File Name: marcha1.log
Channel 4: 'Recto Femoral', 5890 values, engineering units: mV, no filters.
Channel 5: 'Biceps Femoral', 5890 values, engineering units: mV, no filters.
Channel 6: 'Vasto Medial', 5890 values, engineering units: mV, no filters.
Channel 7: 'EMG Semitendinoso', 5890 values, engineering units: mV, no filters.
Channel 8: 'Flexo-Extension', 5890 values, engineering units: deg, no filters.

-0.0181	0.0007	0.456	0.0022	44.8
-0.0278	-0.0015	0.4125	0.0015	45.8
-0.0218	-0.0008	0.3105	0.0007	45.9
-0.0158	0.0007	0.1987	0	46.6
-0.0105	-0.0008	0.0697	-0.003	46.3
-0.0068	0	-0.0533	-0.003	46.8
-0.0015	0.0007	-0.117	-0.003	46.9
0.0007	0	-0.153	-0.003	47.4
0.0007	0.0022	-0.1808	-0.0015	47.1
0.003	0.0007	-0.2026	-0.0015	48
0.0007	0.0007	-0.237	-0.0008	47.9
-0.003	0.0015	-0.2768	-0.0015	48.2
-0.0053	-0.0015	-0.3203	-0.0015	48.5
-0.0053	-0.0015	-0.3548	0.0007	48.7
-0.0053	-0.0015	-0.381	0.0015	48.7
-0.0075	-0.0015	-0.399	0	49
-0.006	-0.0015	-0.4005	-0.0015	49.3
-0.0203	-0.003	-0.3908	0.0007	49.5
-0.0698	-0.0023	-0.3705	-0.0008	49.7
-0.1065	-0.0046	-0.3391	-0.0015	50.2
-0.1088	-0.0046	-0.3	-0.0008	50.4
-0.0915	-0.0023	-0.2753	0	50.6
-0.057	-0.0046	-0.2535	0.0007	50.7
-0.024	-0.003	-0.222	-0.0008	51.3
0.0037	-0.0046	-0.192	-0.0008	51.3
0.0247	-0.0038	-0.1448	-0.0015	51.5
0.0405	-0.0046	-0.0878	-0.0023	51.7
0.054	-0.0053	-0.0293	-0.0008	51.7
0.0675	-0.003	0.0255	-0.0015	52.2
0.0825	-0.003	0.0705	-0.0023	52.2
0.0855	-0.003	0.1012	-0.003	52.7
0.0855	-0.0053	0.1275	-0.003	52.7
0.0802	-0.0053	0.1455	-0.0015	52.9
0.0547	-0.003	0.1567	-0.0023	53.1
0.0247	-0.0015	0.1627	-0.003	53.6
0.0202	-0.0015	0.1627	-0.0046	53.6
0.0202	-0.0023	0.1612	-0.003	54
0.0247	-0.0015	0.1552	-0.0015	54.1
0.048	0.0007	0.1447	0	54.4
0.048	0.0022	0.1342	0	54.5
0.0457	0.0015	0.1185	0	54.6
0.0412	0.0015	0.1012	0	55.1
0.0307	0.0022	0.0855	0	55.1
0.0315	0.0052	0.069	0.0007	55.7
0.0375	0.0022	0.0555	0	55.7
0.051	0	0.042	0.0015	55.9
0.0667	0	0.0277	0.0022	56.1
0.081	0	0.0165	0.0007	56.2
0.0945	0.0015	0.0052	0.0015	56.6
0.108	0.0022	-0.0075	-0.0008	56.7
0.1177	0.0045	-0.0165	-0.0008	56.7
0.1207	0.0037	-0.0256	-0.0015	57.2
0.1252	0.0037	-0.027	-0.0023	57.1
0.1207	0.003	-0.033	-0.0008	57.6
0.1155	0.0037	-0.0608	0.0007	57.6
0.1042	0.003	-0.0773	0.0015	58
0.0832	0.0045	-0.0803	0.0037	57.9
0.0637	0.0037	-0.0818	0.003	58.2
0.0442	0.0037	-0.0615	0.0007	58.3
0.0247	0.0045	-0.0436	-0.0015	58.7
0.0052	0.003	-0.0361	-0.0015	58.9
-0.012	0.0022	-0.0256	-0.0015	58.8
-0.027	-0.0008	-0.024	-0.003	59
-0.0405	0	-0.0256	-0.0015	59.2
-0.0533	0.0007	-0.0278	-0.0008	59.4
-0.06	-0.0008	-0.0278	-0.0023	59.4
-0.0675	0.0007	-0.0278	-0.0008	59.4
-0.0788	0.0007	-0.0278	-0.0015	59.4
-0.0825	0.0007	-0.0278	-0.003	59.8
-0.0863	-0.0008	-0.0293	-0.0015	59.8
-0.0871	0.0007	-0.0293	-0.0038	60
-0.0863	-0.0008	-0.0315	-0.0038	60.1
-0.0871	-0.0015	-0.0278	-0.0015	59.9
-0.0893	-0.003	-0.0256	-0.0023	60.4
-0.0863	-0.0008	-0.0263	-0.0008	60.3
-0.084	0.0007	-0.027	0.0007	60.6
-0.0825	0.0007	-0.0293	0.003	60.4
-0.078	0.0015	-0.0263	0.0015	60.5
-0.0706	0.0015	-0.0256	0.0007	60.6
-0.0638	0.0015	-0.0225	0.0007	60.6
-0.0608	0.0022	-0.0181	0.0015	60.5
-0.057	0.0015	-0.0143	0.0007	60.7
-0.0518	0	-0.0091	-0.0008	60.7
-0.0495	-0.0023	-0.0038	-0.0015	60.8
-0.045	-0.0046	0.0007	-0.0008	60.8
-0.0353	-0.0023	0.0045	0.0022	60.8
-0.0158	-0.0015	0.0067	0.0015	61.1
0.0045	-0.0023	0.0112	0.0015	61
0.0232	-0.003	0.0112	0.003	61.1
0.0382	-0.003	-0.0038	0.003	60.9
0.042	-0.0008	-0.015	0.0022	61.1
0.0427	-0.0023	-0.0165	0.0022	60.9
0.0382	-0.0023	-0.0173	0.0007	61.1
0.0382	-0.0008	-0.0135	0.0007	61.3
0.0405	-0.0008	-0.0128	0.0037	61.2
0.0367	0.0007	-0.0083	0.0015	61.2
0.0315	0.0007	0.0037	-0.0008	61.4
0.024	0.0015	0.009	-0.0008	61.3
0.0165	0.0007	0.0022	-0.0015	61.5
0.0112	0	-0.0008	-0.003	61.2
0.006	-0.0008	0.003	-0.0023	61.3
0.0045	-0.0015	-0.0038	-0.0015	61.2
0.0045	-0.0023	-0.0053	-0.0023	61.2
0.0112	-0.003	-0.0075	-0.0015	61.3
0.012	-0.0038	-0.0181	-0.0038	61.1
0.0127	-0.0038	-0.0368	-0.003	61.4
0.0172	-0.0023	-0.0518	-0.0008	61.3
0.018	-0.0015	-0.0623	-0.0008	61.2
0.0105	-0.0023	-0.0653	0.0007	61.4
0.0037	-0.0046	-0.0578	0.0007	61.1
0.0015	-0.0046	-0.054	-0.0015	61.4
-0.0015	-0.0015	-0.0518	-0.0023	61.1
0.0007	-0.003	-0.0473	-0.0015	61.4
0.0037	-0.0023	-0.042	0	61.2
0.0052	-0.0053	-0.0346	0.0015	61.1
0.003	-0.0046	-0.0173	0.0015	61.2
-0.003	-0.003	0.0007	0.003	61.2
-0.0075	-0.0038	0.0127	0.0022	61
-0.0105	-0.0015	0.018	0.0007	61.3
-0.0135	0.0007	0.0232	-0.0008	61
-0.0165	0.0015	0.0307	-0.0015	61.2
-0.021	0.0007	0.033	-0.0015	60.9
-0.0225	0	0.039	0.0007	61.1
-0.024	-0.0023	0.0367	0.0015	60.9
-0.0256	-0.0015	0.0292	0.003	60.8
-0.0278	-0.0015	0.0157	0.0022	60.9
-0.027	-0.0008	0.0082	0.0007	60.8
-0.0233	-0.0008	0.0015	0.0015	60.9
-0.021	-0.0015	-0.0105	-0.0023	60.6
-0.0181	-0.0008	-0.0248	-0.0046	60.7
-0.0143	0.0007	-0.039	-0.0015	60.5
-0.0128	0.0007	-0.045	-0.0015	60.6
-0.012	-0.003	-0.0413	-0.0008	60.4
-0.012	-0.0015	-0.0353	-0.0008	60.5
-0.012	-0.0008	-0.0278	0	60.3
-0.0105	0.0022	-0.0195	-0.0015	60.4
-0.0091	0.0015	-0.012	-0.003	60.1
-0.006	-0.0008	-0.0091	-0.003	60.1
-0.0015	-0.0008	-0.0023	-0.0053	60
0.003	-0.003	0.0022	-0.003	59.9
0.0007	0.0007	0.0097	-0.0023	60.1
-0.0038	-0.0015	0.0165	-0.0023	59.7
-0.0038	-0.0008	0.0195	-0.0023	59.7
-0.006	-0.0008	0.0225	-0.0008	59.8
-0.0068	-0.0015	0.0232	0.0015	59.5
-0.0083	-0.0008	0.0202	0.0015	59.4
-0.0075	-0.0015	0.015	0.0007	59.3
-0.0068	0.0007	0.0127	0.0007	59.2
-0.0068	0.0007	0.009	0.0007	59.1
-0.0068	0.0022	0.0082	-0.0008	58.9
-0.0053	0.0007	0.0075	0.0015	59.1
-0.0046	0.003	0.0037	0	58.8
-0.0038	0.003	0.003	-0.0008	58.6
-0.0015	0	0.0007	0.0007	58.5
0.0007	0.0007	0.0015	-0.0008	58.3
0.003	-0.0008	0.0022	0.0007	58.4
0.0082	0	0.0015	-0.0008	58
0.0082	-0.0008	0.0015	0.0015	58.1
0.0082	-0.0015	0.0007	0.003	58
0.0075	-0.0015	0	0.0045	57.9
0.0067	-0.0046	-0.0008	0.003	57.7
0.0067	-0.0046	-0.0023	0.0007	57.8
0.0067	-0.0046	0	-0.0015	57.5
0.0067	-0.003	0.0015	-0.0083	57.7
0.0075	-0.003	0.0015	-0.0181	57.1
0.0075	-0.003	0.0015	-0.021	57.3
0.009	-0.003	-0.0015	-0.0068	57.1
0.0082	-0.003	-0.003	-0.0023	57
0.0067	-0.003	-0.0015	-0.0015	56.8
0.0067	-0.003	0.0007	0.003	56.7
0.0067	-0.0015	0.0037	-0.003	56.4
0.0082	-0.0015	0.0045	-0.0046	56.2
0.0075	-0.003	0.0045	-0.003	56
0.009	-0.003	0.0037	-0.0015	55.9
0.0112	-0.0015	0.006	0.0015	55.6
0.0127	-0.0008	0.0052	0.0015	55.7
0.012	-0.0008	0.0067	0.0022	55.4
0.0142	-0.0015	0.0082	0.003	55.4
0.0157	-0.0023	0.0082	0.003	55.2
0.0135	-0.0023	0.0067	-0.0008	54.9
0.015	-0.0023	0.0067	0.0037	55
0.0157	-0.003	0.0075	0.0225	54.8
0.0157	-0.0023	0.0052	0.027	54.5
0.0142	0.0007	0.0067	0.0015	54.4
0.0127	0.0015	0.0112	0.003	54.2
0.012	0.0015	0.0127	0.0082	54.1
0.0112	0.003	0.012	-0.0038	53.8
0.012	0.0015	0.0112	0.0015	53.6
0.0112	0.0007	0.0127	-0.0053	53.4
0.009	0.0015	0.0127	-0.006	53.3
0.0082	0.0015	0.0127	-0.0015	53.2
0.0067	0.0007	0.0157	-0.0053	52.9
0.0052	0.003	0.018	-0.0015	52.6
0.0045	0.0022	0.0195	-0.003	52.4
0.003	0.0007	0.0225	-0.0008	52.3
-0.0015	0	0.0262	0	52.1
-0.0038	-0.0015	0.027	0	51.8
-0.0053	-0.0015	0.0292	-0.0008	51.5
-0.0046	-0.0023	0.0285	-0.003	51.4
-0.0038	-0.0015	0.0262	-0.0008	50.9
-0.0068	-0.0008	0.0255	-0.0015	50.8
-0.0105	0.0007	0.0232	-0.0015	50.5
-0.0143	0.0015	0.024	-0.0015	50.4
-0.0135	0.0007	0.0225	0	50.1
-0.012	0.0007	0.0217	-0.0015	49.8
-0.0098	-0.0008	0.0187	-0.0015	50
-0.012	-0.0015	0.018	0.0022	49.4
-0.012	-0.0015	0.0187	0.003	49.3
-0.012	0.0007	0.0165	0.0022	49
-0.0143	0.0015	0.0172	-0.0008	48.8
-0.0091	0.0015	0.0157	0.0007	48.6
-0.0083	0.0007	0.0142	0.0015	48.3
-0.0068	0.0015	0.0112	0.0015	48.1
-0.0053	0.0022	0.0112	0.0045	47.9
-0.0038	-0.0008	0.0127	0.006	47.6
0	-0.0038	0.0127	0.0082	47.4
0.0015	-0.003	0.012	0.003	47.3
0.0037	0.0007	0.0097	0.0007	47
0.0015	0	0.0105	0.0007	46.8
0.0045	0	0.0105	-0.006	46.4
0.006	0.0015	0.012	-0.015	46.4
0.0052	0.0007	0.0105	-0.0195	45.9
0.0082	0.0007	0.0105	-0.021	45.8
0.009	-0.0008	0.0112	-0.0158	45.4
0.009	-0.003	0.012	-0.0135	45.3
0.009	-0.003	0.0112	-0.003	45
0.009	-0.0068	0.0112	0.0232	44.6
0.0082	-0.0075	0.0105	0.0232	44.4
0.0105	-0.003	0.0105	-0.0023	44.2
0.0112	0	0.0097	-0.0075	43.7
0.0082	-0.0008	0.0097	-0.0038	43.7
0.0082	-0.0046	0.009	0.0217	43.3
0.0082	-0.0068	0.009	0.0427	43.1
0.0067	-0.0053	0.0105	0.0037	42.7
0.0082	-0.0008	0.009	-0.0053	42.5
0.009	-0.003	0.0075	0.0015	42.1
0.009	-0.0046	0.0067	-0.0083	41.9
0.009	-0.0046	0.0052	-0.0008	41.6
0.0097	-0.0038	0.0045	-0.0068	41.3
0.0105	-0.0046	0.003	-0.0038	40.9
0.009	-0.0038	0.003	-0.0023	40.7
0.009	0.0007	0.0015	-0.0098	40.4
0.0097	0.003	-0.0008	-0.0105	40
0.0075	0.0052	-0.0008	-0.0143	39.9
0.0075	0.0022	-0.003	-0.012	39.4
0.0075	-0.0023	-0.0046	-0.0173	39.2
0.009	-0.006	-0.006	-0.0046	38.7
0.0105	-0.0128	-0.0053	0.0382	38.6
0.012	-0.0181	-0.0046	0.0877	38.3
0.0135	-0.0113	-0.0038	0.0862	37.9
0.0142	0.0015	-0.0015	0.0472	37.7
0.0135	0.0097	0	0.0465	37.2
0.0105	0.0165	0	-0.0218	36.9
0.0082	0.0157	-0.0015	-0.1238	36.5
0.006	0.0142	-0.003	-0.192	36.1
0	0.0142	-0.003	-0.1935	35.6
-0.0083	0.0045	-0.0053	-0.0555	35.5
-0.015	-0.0053	-0.0046	0.0652	35.2
-0.0135	-0.0143	-0.003	0.0555	34.7
-0.006	-0.0128	0.003	0.0082	34.3
0	-0.0038	0.0052	0.0352	34.2
0.0022	0.003	0.0037	0.0532	33.7
0.0052	0.0067	0.003	0.0502	33.4
0.0127	0.003	0.0037	0.0465	33
0.0217	-0.0038	0.0022	0.0405	32.6
0.0225	-0.0083	0.0015	0.0855	32.4
0.0195	-0.0105	0.0015	0.06	31.9
0.0157	-0.0158	0.003	0.039	31.7
0.0105	-0.0128	0.0052	-0.0285	31.2
0.0022	-0.0008	0.0067	-0.0615	31
-0.0046	0.0052	0.0052	0.027	30.6
-0.0113	0.0052	0.0015	0.0232	30.1
-0.021	0.003	0.0015	0.009	29.8
-0.0278	0.0105	-0.0023	-0.0825	29.4
-0.0308	0.0277	-0.0046	-0.1928	29
-0.0293	0.0345	-0.0083	-0.1711	28.8
-0.0323	0.018	-0.0091	-0.1335	28.3
-0.0398	0.0037	-0.006	-0.117	28.2
-0.0458	-0.015	-0.0015	-0.0473	27.7
-0.0495	-0.039	0.0052	0.1455	27.3
-0.0495	-0.0323	0.0045	0.1957	27
-0.0458	-0.0113	0.0045	0.0645	26.6
-0.0405	-0.0068	0.0052	0.0165	26.2
-0.0338	-0.003	0.0015	0.033	25.9
-0.027	0	0.0007	0.0495	25.6
-0.027	-0.0008	0	0.0397	25.4
-0.0315	0.0007	0.0007	0.0382	24.7
-0.033	0	0	0.0652	24.5
-0.0293	0.003	0.0007	0.024	24.2
-0.0233	0.0037	0.0015	-0.0091	23.7
-0.0128	0.0015	-0.0046	0.006	23.3
-0.0053	-0.0008	-0.0105	-0.003	22.9
-0.0015	-0.0023	-0.0158	0.0067	22.5
0.0007	-0.0038	-0.0218	0.033	22.5
-0.003	-0.0053	-0.0263	0.0427	21.7
-0.0068	0.0015	-0.027	0.0105	21.6
-0.003	0.0067	-0.024	-0.0278	21
-0.0008	0.0105	-0.0285	-0.0113	20.8
0.003	0.0082	-0.0383	0.0007	20.5
0.0075	0.0045	-0.0368	-0.0008	20
0.0105	0.0022	-0.0368	0	19.8
0.015	-0.0053	-0.0405	0.0045	19.3
0.0127	-0.0113	-0.0428	-0.0068	19
0.0067	-0.0083	-0.0495	-0.0615	18.5
0.0052	0	-0.0495	-0.0825	18.2
0.0052	0.0015	-0.0458	-0.0203	17.9
0.003	0.0037	-0.0413	-0.0053	17.5
0.003	0.0052	-0.033	-0.0225	17
0.0015	0	-0.0308	0.0382	16.8
-0.0091	-0.0068	-0.0293	0.066	16.2
-0.0135	-0.0083	-0.0181	0.006	15.9
-0.0135	-0.0015	-0.0098	-0.0068	15.5
-0.0135	0.0015	-0.0083	0.021	15.2
-0.0083	0.0067	-0.0068	0.0067	14.8
-0.0008	0.0105	-0.0008	0.012	14.4
0.006	0.0105	-0.0068	-0.006	14.2
0.0105	0.0052	-0.0218	0.0037	13.6
0.0105	-0.003	-0.027	0.051	13.4
0.0097	-0.0075	-0.0278	0.0532	12.9
0.009	-0.0165	-0.0135	0.03	12.7
0.0067	-0.0158	0.003	-0.0818	12.2
0.0075	-0.0046	0.0217	-0.0338	11.9
0.0105	-0.0015	0.0412	0.0592	11.5
0.0127	-0.0008	0.054	-0.0893	11.1
0.012	0	0.0652	-0.1935	10.7
0.0112	0.0015	0.0577	-0.1635	10.4
0.0105	0.003	0.0435	-0.039	10.1
0.0142	0.0015	0.0262	-0.0158	9.5
0.024	0.0045	0.0127	-0.0353	9.3
0.0255	0.0082	0.0007	0.03	8.8
0.0247	0.009	-0.0181	0.0195	8.5
0.0292	0.0052	-0.0263	0.0352	8.2
0.0277	0.0007	-0.0165	0.0105	7.8
0.021	-0.003	0.0045	-0.0525	7.6
0.0195	-0.0046	0.0247	-0.0458	7
0.0195	-0.0046	0.0405	0.0157	6.7
0.0202	-0.0068	0.042	0.0892	6.4
0.0277	-0.0128	0.042	0.069	5.9
0.0352	-0.0173	0.0367	0.0457	5.6
0.0397	-0.0158	0.0367	0.1005	5
0.0442	-0.012	0.039	0.0892	4.8
0.0427	-0.0075	0.0292	-0.033	4.2
0.0397	0.0007	0.0262	-0.0923	3.6
0.033	0.0157	0.0255	-0.099	3.5
0.0255	0.0187	0.0322	-0.027	3
0.018	0.0165	0.0367	0.0472	2.8
0.009	0.012	0.0337	0.0187	2.3
0.0045	0.006	0.033	0	2
-0.0015	0.0067	0.0255	-0.0361	1.8
-0.0038	0.003	0.021	-0.0128	1.4
-0.003	-0.003	0.0187	0.0307	1.4
-0.0046	-0.012	0.0195	0.045	0.9
-0.0046	-0.0173	0.0255	0.0435	0.7
-0.0068	-0.0181	0.0315	0.0052	0.6
-0.0068	-0.012	0.0367	0.0015	0.4
-0.003	-0.0015	0.0405	-0.0293	0.2
-0.0038	0.0015	0.042	-0.0218	0
0.0007	0.003	0.0495	0.033	0
0.0045	0	0.0555	0.057	-0.1
0.0022	-0.0008	0.0577	0.0795	-0.3
-0.0068	-0.003	0.06	0.057	-0.1
-0.0218	-0.0083	0.0637	-0.0158	-0.5
-0.027	-0.0105	0.0667	-0.0615	-0.3
-0.0248	-0.0068	0.0622	-0.0795	-0.4
-0.0293	0.0007	0.0517	-0.0848	-0.3
-0.0353	0.003	0.0405	-0.0848	-0.2
-0.0346	0.003	0.0292	-0.0653	-0.2
-0.033	0	0.0067	-0.0218	0.1
-0.0338	-0.0046	-0.0218	-0.003	0
-0.0361	-0.0113	-0.0488	0.033	0.1
-0.0338	-0.0165	-0.0788	0.048	0.2
-0.0353	-0.0135	-0.1125	0.012	0
-0.039	-0.0023	-0.1508	0.0195	0
-0.042	0.0045	-0.1838	0.0495	0.2
-0.0578	0.0067	-0.2055	0.057	0.4
-0.0765	0.0082	-0.2153	0.066	0.7
-0.0938	0.003	-0.222	0.063	0.5
-0.1103	-0.0038	-0.2198	0.03	0.6
-0.114	-0.0105	-0.2026	0.018	0.5
-0.1133	-0.0091	-0.1838	0.0202	0.7
-0.108	-0.0046	-0.159	0.018	0.9
-0.1021	0.0022	-0.1238	0.0045	0.9
-0.114	0.0097	-0.0908	-0.0413	1.1
-0.1426	0.012	-0.081	-0.081	0.9
-0.18	0.012	-0.0593	-0.0405	1.2
-0.2123	0.0097	-0.0405	0.021	1.2
-0.234	0.0022	-0.0488	0.024	1
-0.234	-0.003	-0.0458	0.0007	1.1
-0.207	-0.003	-0.0691	-0.0293	1.1
-0.1703	-0.003	-0.1118	0.0307	1.3
-0.1185	-0.0008	-0.1388	0.099	1.5
-0.057	0.0015	-0.1365	0.0757	1.6
0.0105	0.0037	-0.1178	-0.0046	1.8
0.066	0.0105	-0.0983	-0.0893	1.8
0.1035	0.012	-0.0653	-0.0518	2.1
0.132	0.012	-0.024	-0.0638	2.2
0.1522	0.0105	0.0075	-0.1125	2.2
0.171	0.0142	0.0315	-0.057	2.5
0.1912	0.0202	0.0547	-0.012	2.5
0.2055	0.0202	0.0577	0.0195	2.9
0.2205	0.0217	0.042	0.0292	2.6
0.2407	0.0172	0.0172	0.039	3
0.2625	0.0127	-0.015	0.0472	3
0.2617	0.0105	-0.0495	0.0592	3.2
0.246	0.0052	-0.0743	0.0705	3.4
0.252	-0.0008	-0.0945	0.0345	3.4
0.3135	-0.0105	-0.0975	-0.0353	3.5
0.3825	-0.0315	-0.0758	-0.12	4
0.3877	-0.0488	-0.0675	-0.1088	4.1
0.357	-0.0585	-0.0713	-0.0443	4.5
0.318	-0.0495	-0.0638	0.0127	4.5
0.3067	-0.0046	-0.0495	0.0442	4.9
0.2872	0.03	-0.0458	0.0082	5.3
0.1657	0.0457	-0.045	0.0142	5.5
0.0562	0.0607	-0.0308	0.024	5.6
0.0007	0.0652	0.0015	0.0075	5.8
-0.0383	0.0532	0.0532	0.0127	6.1
-0.0465	0.018	0.1252	0.024	6.2
-0.0713	-0.012	0.2145	0.0577	6.4
-0.0833	-0.0218	0.2872	0.0577	6.3
-0.0953	-0.0225	0.3165	0.0532	6.5
-0.0968	-0.0233	0.324	0.078	6.7
-0.0923	-0.0315	0.315	0.0585	6.9
-0.1013	-0.0323	0.2647	0.0127	6.8
-0.09	-0.0083	0.1897	-0.0195	7
-0.0743	0.0112	0.129	-0.012	7.1
0.0855	0.0037	0.0802	-0.0443	7.3
0.4275	0.0052	-0.0053	-0.1058	7.3
0.498	0.0195	-0.156	-0.066	7.5
0.1095	0.03	-0.2048	-0.0091	7.7
-0.3481	0.0247	-0.0473	0.0142	7.9
-0.6968	0.006	0.0945	0.0862	8.3
-0.7245	-0.012	0.135	0.2122	8.4
-0.504	-0.0203	0.1192	0.327	8.4
-0.2723	-0.0256	0.084	0.3097	8.6
0.0412	-0.0315	0.0937	0.1665	8.6
0.2842	-0.0278	0.057	-0.0315	8.9
0.4552	-0.0158	0.1057	-0.1995	8.7
0.465	0.003	0.3637	-0.2836	9
0.375	0.015	0.6832	-0.2963	9
0.36	0.018	1.017	-0.261	9.2
0.4087	0.0255	1.3042	-0.2011	9.3
0.4875	0.024	1.296	-0.0728	9.4
0.5325	0.0097	1.185	-0.0098	9.6
0.5587	0.0007	1.086	-0.0248	9.8
0.4725	-0.0083	0.996	-0.0346	9.9
0.3412	-0.0233	0.9127	-0.0443	10.1
0.1815	-0.0308	0.8385	-0.0308	10.1
0.0157	-0.0203	0.7695	0	10.4
-0.0998	-0.0105	0.7072	0.0645	10.6
-0.2535	-0.0105	0.5917	0.0727	10.8
-0.4043	-0.0091	0.318	0.093	11.2
-0.5468	-0.0046	-0.048	0.1425	11.4
-0.6555	0.0082	-0.375	0.057	11.7
-0.7178	0.0157	-0.615	-0.0743	11.8
-0.7426	0.0105	-0.7995	-0.1875	11.9
-0.7193	0.0157	-0.999	-0.2558	12.1
-0.6908	0.0217	-1.2353	-0.2063	12.4
-0.6548	0.0195	-1.419	-0.105	12.7
-0.627	0.0015	-1.5556	0.0045	12.7
-0.648	-0.0181	-1.6815	0.1012	13.1
-0.6353	-0.0315	-1.7625	0.1402	13.3
-0.525	-0.0413	-1.6613	0.1552	13.5
-0.4163	-0.048	-1.5188	0.1417	13.6
-0.3068	-0.0608	-1.3875	0.1245	13.9
-0.222	-0.0555	-1.2698	0.1095	13.9
-0.1748	-0.0398	-1.1633	-0.012	14
-0.1598	-0.0188	-1.065	-0.0233	13.8
-0.1643	-0.0038	-0.9765	0.0367	14.2
-0.1013	-0.0083	-0.8963	-0.0008	14.2
-0.0375	-0.0256	-0.822	0.0427	14.1
0.0022	-0.0428	-0.756	0.021	14.3
0.0382	-0.039	-0.6945	-0.0143	14.3
0.0675	0.0127	-0.639	0.0082	14.6
0.0975	0.0825	-0.5625	-0.024	14.4
0.1095	0.1192	-0.3428	-0.0938	14.5
0.1657	0.147	-0.0046	-0.2123	14.4
0.2445	0.1267	0.3277	-0.1418	14.4
0.2857	0.063	0.6757	-0.0968	14.4
0.2902	0.0075	1.0372	-0.0683	14.2
0.2745	-0.0675	1.3575	0.0697	14.4
0.2595	-0.0765	1.6537	0.0367	14.5
0.2512	-0.0278	1.8712	0.0937	14.2
0.2422	-0.0068	1.971	0.081	14.3
0.2085	0.0045	1.8585	-0.0015	13.9
0.1777	-0.0053	1.6995	0.0352	14.2
0.1605	-0.0113	1.5525	-0.0023	14.1
0.108	-0.0068	1.4197	0.0142	14.3
0.036	-0.0105	1.2997	0.0045	14.5
-0.0158	-0.0128	1.1917	0.0217	14.6
-0.0436	-0.015	1.0935	0.0615	14.8
-0.0706	-0.0046	1.0027	0.0555	14.9
-0.0825	-0.003	0.9217	0.0862	15.3
-0.0533	-0.0158	0.8437	0.0502	15.4
0.012	-0.0225	0.7395	-0.0105	15.7
0.0855	-0.03	0.6225	-0.0256	16.2
0.1305	-0.0233	0.4687	0.0195	16.5
0.135	-0.0195	0.2625	0.048	16.8
0.1365	-0.024	0.069	0.0322	17.1
0.135	-0.0135	-0.1365	-0.0083	17.4
0.1477	0.0007	-0.3406	-0.0728	17.8
0.1882	0.0075	-0.5483	-0.0706	17.9
0.2107	0.0067	-0.7516	-0.0593	18.3
0.2287	0.009	-0.927	-0.0788	18.7
0.2415	-0.0015	-1.1018	-0.0158	18.9
0.2475	-0.0113	-1.2555	0.0915	19.7
0.2647	-0.0023	-1.3621	0.1822	19.8
0.282	-0.006	-1.3988	0.2917	20.6
0.3075	-0.0128	-1.3808	0.2797	20.7
0.3292	-0.0068	-1.3388	0.2385	21.2
0.3067	0.0105	-1.2818	0.1995	21.4
0.2257	0.0217	-1.2008	-0.0405	21.7
0.144	0.0195	-1.0898	-0.2558	21.9
0.0735	0.0195	-0.948	-0.3428	22.2
0.0142	0.0165	-0.7335	-0.2558	22.6
-0.0075	0.0142	-0.4875	-0.1073	22.7
-0.0706	0.0097	-0.2505	-0.1448	22.9
-0.1441	0.018	-0.0158	-0.099	23.3
-0.207	0.0232	0.1942	-0.0675	23.3
-0.2363	0.0225	0.3787	-0.1515	23.3
-0.2175	0.0232	0.48	-0.1208	23.7
-0.2325	0.003	0.4402	-0.039	23.6
-0.2453	-0.0098	0.3495	0.0202	23.8
-0.246	-0.0173	0.3637	0.0195	23.8
-0.222	-0.0158	0.465	-0.0098	24
-0.198	-0.0015	0.5542	-0.027	24
-0.2011	0.003	0.6067	0	24.2
-0.2011	-0.0053	0.5805	0.0577	24.3
-0.2228	-0.0143	0.5197	0.0532	24.2
-0.2333	-0.0158	0.4342	0.0165	24.3
-0.207	-0.015	0.3277	0.0382	24.2
-0.1763	0.0015	0.243	0.1357	24.4
-0.165	0.009	0.18	0.2227	24.4
-0.1358	0.012	0.1635	0.2122	23.9
-0.099	0.0187	0.141	0.1065	24.2
-0.0765	0.0075	0.1147	-0.0105	24.1
-0.0578	-0.0008	0.1042	-0.0923	23.9
-0.0578	-0.0046	0.072	-0.1426	24.1
-0.0361	0.0067	0.0052	-0.1043	23.9
0.012	0.0142	-0.039	-0.078	23.8
0.0375	0.0105	-0.063	-0.0683	23.8
0.0457	0.0067	-0.0765	-0.0165	23.8
0.0697	0.0127	-0.0495	-0.0128	23.8
0.054	0.0217	-0.024	0.003	23.4
0.0142	0.0157	0.0045	0.018	23.6
0.0067	0.0135	0.0067	0.012	23.7
-0.003	0.006	-0.0105	0.0232	23.6
-0.0181	-0.0038	-0.0428	0.042	23.8
-0.0195	-0.0105	-0.0998	0.078	23.6
-0.0143	-0.0158	-0.1178	0.1125	23.8
-0.0158	-0.0188	-0.1163	0.0877	23.9
-0.006	-0.0098	-0.1125	-0.0015	23.8
-0.0188	-0.0008	-0.1035	-0.0675	24
-0.0668	-0.0015	-0.099	-0.0923	23.8
-0.1006	0.0045	-0.096	-0.0353	24
-0.0983	0.0007	-0.0721	0.0007	23.8
-0.0825	-0.0068	-0.027	-0.006	24.2
-0.114	-0.0098	0.0067	0.0142	23.7
-0.12	-0.012	0.0232	-0.0225	24.4
-0.0706	-0.0105	0.0285	-0.012	23.8
-0.0525	-0.0128	0.0345	0.0187	23.7
-0.0233	-0.012	0.0592	0.018	23.8
0.039	-0.0128	0.0817	0.024	23.6
0.1012	-0.0128	0.078	0.0067	23.5
0.1717	-0.0068	0.084	-0.0098	23.6
0.2542	-0.0038	0.0585	-0.0405	23.4
0.3502	-0.0015	-0.012	-0.0443	23.4
0.4425	-0.0083	-0.078	-0.0203	23.5
0.5205	-0.0128	-0.126	-0.0248	23.3
0.5835	-0.0068	-0.1568	-0.0578	23.4
0.6217	0.0135	-0.198	-0.0878	23.3
0.6405	0.0195	-0.2603	-0.0323	23.5
0.639	0.006	-0.3323	0.0637	23.2
0.6112	-0.0083	-0.378	0.141	23.4
0.567	-0.0233	-0.378	0.129	23.3
0.5017	-0.0195	-0.3555	-0.0518	23.2
0.4177	-0.012	-0.3165	-0.1155	23.2
0.3255	-0.0173	-0.2888	-0.0683	23.2
0.222	-0.021	-0.2573	-0.0818	23.2
0.111	-0.0248	-0.2213	0.0435	23.3
-0.0083	-0.0203	-0.2026	0.1072	23
-0.132	-0.0038	-0.1793	0.0232	23.4
-0.2483	0.0067	-0.1553	0.0435	23.1
-0.354	0.0157	-0.1396	0.0255	23.3
-0.4418	0.021	-0.132	-0.012	23.4
-0.5108	0.0195	-0.1283	0.0015	23.3
-0.5521	0.018	-0.1223	0.0142	23.5
-0.5603	0.0135	-0.1088	0.0457	23.4
-0.5551	0.0075	-0.1013	0.06	23.6
-0.5348	-0.0015	-0.0968	0.069	23.6
-0.501	-0.0008	-0.0698	-0.0428	23.4
-0.4575	0.0037	-0.0158	-0.1373	23.8
-0.4058	0.0045	0.0525	-0.078	23.7
-0.3496	0.0045	0.1185	-0.0383	23.7
-0.2798	0.003	0.156	-0.0128	23.6
-0.216	0.003	0.1537	-0.003	23.7
-0.1688	0.0007	0.1462	-0.0046	23.8
-0.1411	0	0.1372	0.0022	23.6
-0.1178	0.0007	0.1455	0.0022	23.6
-0.0983	0.0052	0.1792	0.0067	23.6
-0.0893	0.0082	0.1927	0.003	23.5
-0.0803	0.0097	0.1747	0.0037	23.8
-0.0706	0.0112	0.1477	0.003	23.4
-0.0405	0.0052	0.126	0.0007	23.7
-0.003	0.0045	0.1102	-0.0023	23.4
0.039	0.003	0.0937	-0.0053	23.7
0.09	-0.0008	0.0825	0.0135	23.6
0.1305	0.0037	0.075	0.024	23.6
0.1612	0.0015	0.0742	-0.0105	23.5
0.1815	0.003	0.0877	-0.033	23.4
0.2047	-0.0008	0.0757	0.0007	23.4
0.2415	-0.0091	0.0502	0.0315	23.5
0.2752	-0.0091	0.0082	0.0247	23.4
0.2872	-0.0113	-0.054	0.0555	23.4
0.276	-0.0105	-0.0773	0.093	23.5
0.2595	-0.0046	-0.0825	0.042	23.3
0.246	-0.0008	-0.0765	-0.0135	23.6
0.2287	0.0037	-0.0615	-0.057	23.3
0.2002	0.006	-0.0503	-0.0285	23.5
0.1732	0.0007	-0.0405	0.006	23.4
0.1402	-0.0038	-0.027	-0.0195	23.5
0.1095	-0.0038	-0.0046	0.0082	23.7
0.0975	-0.003	0.009	-0.0083	23.5
0.084	-0.003	0.033	-0.0068	23.7
0.0667	-0.003	0.0495	0.0007	23.4
0.0487	-0.003	0.0615	-0.0143	23.6
0.03	-0.0023	0.0847	0	23.5
0.0165	-0.0015	0.108	-0.0105	23.4
0.0007	-0.0008	0.1387	-0.0023	23.6
-0.0105	0.0015	0.1635	-0.0038	23
-0.0203	0.0022	0.1845	-0.0046	23.4
-0.0293	0.0045	0.1897	-0.006	23.4
-0.039	0.003	0.2047	-0.015	23.3
-0.0488	0.003	0.225	-0.0105	23.3
-0.0608	0.0015	0.237	-0.0158	23.1
-0.0683	-0.0015	0.2422	-0.0091	23.3
-0.0735	-0.0046	0.243	0.0037	23.2
-0.0706	-0.0075	0.249	0.0097	23.4
-0.0668	-0.0053	0.2565	0.0022	23.1
-0.0683	-0.0046	0.2557	0.0067	22.9
-0.0683	-0.006	0.2445	0.0067	23.1
-0.0683	-0.0023	0.2325	-0.006	23
-0.0653	0.0015	0.2085	0.0007	22.9
-0.06	0	0.1852	-0.0046	22.9
-0.063	-0.003	0.1635	-0.0038	22.9
-0.0691	-0.0068	0.1357	-0.003	22.9
-0.0713	-0.0046	0.108	-0.0023	22.9
-0.0645	-0.0015	0.0787	0.0045	22.9
-0.0593	0.0007	0.0457	0.0015	22.8
-0.0518	0.0007	0.0082	0.0007	22.7
-0.0443	-0.0015	-0.0308	-0.0015	22.9
-0.042	0	-0.0691	0.0007	22.6
-0.0405	-0.0015	-0.0968	0.0045	22.9
-0.0405	-0.0023	-0.1193	0.0067	22.8
-0.0361	-0.0015	-0.1448	0.009	22.7
-0.0256	0.0015	-0.1696	0.009	22.8
-0.0165	0.0015	-0.195	0.0015	22.7
-0.0158	-0.0008	-0.2175	-0.015	22.7
-0.0143	-0.0008	-0.2378	-0.0188	22.6
-0.0135	0.0007	-0.2475	-0.0098	22.6
-0.012	0.0007	-0.2498	0.0007	22.7
-0.0135	-0.0015	-0.2475	-0.0008	22.4
-0.0195	-0.0038	-0.2415	-0.0008	22.7
-0.024	-0.0038	-0.2295	0.0037	22.5
-0.0248	-0.003	-0.21	-0.0008	22.4
-0.0293	-0.0015	-0.1935	-0.0053	22.5
-0.0353	-0.0008	-0.1756	-0.006	22.1
-0.0383	0.0022	-0.1523	0.0007	22.5
-0.0428	0.0037	-0.129	-0.0015	22.2
-0.042	0.0015	-0.1006	0.0007	22.3
-0.0361	-0.0008	-0.0735	0.0045	22.4
-0.03	-0.0038	-0.0525	0.0045	22
-0.0188	-0.0068	-0.033	0.018	22
-0.0091	-0.0075	-0.015	0.027	22
-0.0046	-0.0015	0.003	0.0165	22
-0.0046	0.003	0.024	0.0082	21.9
-0.0068	0	0.042	0.0195	22
-0.0046	-0.0046	0.0615	-0.0128	21.9
-0.0015	0	0.078	-0.0653	21.6
0.0067	0.003	0.093	0.0217	21.6
0.0165	-0.0023	0.105	0.093	21.6
0.0195	-0.0015	0.1132	-0.0218	21.4
0.0195	0	0.1215	-0.0713	21.6
0.0187	-0.0015	0.1215	-0.0293	21.4
0.018	0.0037	0.1222	-0.039	21.3
0.0195	0.0067	0.12	-0.0503	21.3
0.0165	0.0105	0.1162	-0.057	21.2
0.018	0.0067	0.1147	-0.0443	21.4
0.018	-0.0015	0.1155	-0.0023	21
0.0202	-0.0053	0.1147	0.048	21
0.021	-0.012	0.1102	0.0967	21
0.021	-0.012	0.1065	0.105	21
0.0195	-0.0038	0.1005	0.0367	20.8
0.015	0.0045	0.0892	-0.0405	21
0.0135	0.0045	0.0705	-0.0375	20.9
0.0067	0	0.0495	0.024	20.9
0.0015	-0.003	0.0307	0.012	20.7
-0.0053	0.0015	0.012	-0.027	20.8
-0.0256	0.0022	-0.0015	-0.0008	20.6
-0.0488	0.0007	-0.012	0.0195	20.7
-0.0533	-0.0023	-0.0181	0.0502	20.6
-0.045	-0.0075	-0.027	0.0352	20.5
-0.06	-0.0008	-0.0405	0.0142	20.4
-0.0691	-0.0015	-0.0555	0.0112	20.3
-0.0706	-0.0015	-0.0713	-0.0375	20.4
-0.0735	-0.0015	-0.0825	-0.0413	20.2
-0.0653	-0.003	-0.0818	-0.0181	20.2
-0.0578	-0.0015	-0.0721	-0.0068	20.1
-0.0503	-0.0008	-0.066	-0.0091	20.1
-0.0443	0.0015	-0.0653	-0.0053	20.1
-0.0293	0.0015	-0.0638	-0.0046	20.1
-0.0181	0.0037	-0.063	-0.0105	19.8
-0.0165	0.003	-0.063	-0.0083	19.8
-0.0165	0.003	-0.06	-0.012	19.6
-0.0158	-0.0008	-0.054	-0.0105	19.8
-0.012	-0.0023	-0.0518	-0.012	19.7
-0.0008	-0.0008	-0.0428	-0.0053	19.5
0.0165	-0.003	-0.0323	0.0052	19.5
0.027	-0.0023	-0.0233	0.0015	19.3
0.0322	-0.0008	-0.021	0.003	19.6
0.0337	0	-0.0218	0.003	19.3
0.0382	-0.0008	-0.0158	0.0015	19.3
0.0405	0.0015	-0.0083	0.0022	19.3
0.039	0.0015	-0.0023	0.0007	19.3
0.045	0.0015	0.003	-0.0015	19.2
0.0502	0.0015	0.0105	-0.0008	19.1
0.054	0.0007	0.0157	-0.0015	19.2
0.0532	0.0015	0.0202	-0.0046	19
0.0517	0.0015	0.0232	-0.003	19
0.048	0.003	0.027	-0.0015	19
0.0465	0.0007	0.0315	0.0007	18.9
0.0465	-0.0015	0.0262	0.0082	18.8
0.0442	-0.006	0.0255	0.0172	18.9
0.0405	-0.0091	0.0262	0.0112	18.7
0.0382	-0.0038	0.027	-0.0015	18.7
0.0345	-0.0015	0.027	-0.003	18.5
0.0285	0.0007	0.0255	-0.012	18.6
0.0255	0.0015	0.0225	-0.0068	18.4
0.0202	0	0.0157	0.009	18.4
0.0105	-0.0008	0.0082	-0.006	18.4
0.0015	0.0007	0.003	-0.024	18.3
-0.0023	0.0007	-0.0015	-0.0218	18.3
-0.0008	0.0007	-0.0075	-0.0015	18.1
0	-0.0015	-0.015	0.0045	18
0.003	-0.003	-0.0173	0.0015	18.1
0.0052	-0.0008	-0.0203	0.0022	17.6
0.006	-0.0015	-0.0195	-0.012	18
0.0052	0	-0.0203	-0.0128	17.5
0	0.0015	-0.027	-0.0203	17.6
-0.0046	0.0015	-0.0308	-0.0256	17.5
-0.0023	0.0007	-0.0323	0.0022	17.5
-0.0023	0	-0.033	0.0502	17.6
-0.0038	-0.003	-0.0323	0.0712	17.3
-0.0038	-0.0008	-0.0315	0.051	17.4
-0.0046	0.0045	-0.03	0.0615	17.3
-0.0046	0.0022	-0.0293	0.0517	17.3
-0.0068	0	-0.0248	-0.0293	17.1
-0.0068	-0.0068	-0.021	-0.0848	17
-0.006	-0.006	-0.0195	-0.0653	17
-0.0083	-0.0038	-0.0165	-0.0181	17.2
-0.0091	-0.0105	-0.0143	0.0315	16.9
-0.0098	-0.015	-0.0091	0.045	17
-0.0091	-0.0143	-0.0068	0.0142	16.8
-0.006	-0.0091	-0.0046	0.0157	16.8
-0.0046	-0.0023	-0.0023	-0.0181	16.7
-0.0038	0.0052	0.0015	-0.039	16.6
-0.0046	0.006	0.006	-0.0195	16.6
-0.0008	0.0045	0.0067	-0.0495	16.5
0	0.0075	0.0082	-0.0368	16.6
0.0015	0.0075	0.0105	-0.0188	16.4
0.0007	0.009	0.0142	-0.027	16.3
0.0015	0.0082	0.0142	0.0007	16.3
0.003	0.0007	0.0075	0.0465	16.2
0.0015	-0.0083	0.012	0.1035	16.3
-0.0008	-0.0098	0.0202	0.099	16.1
-0.0008	-0.0105	0.0225	0.0225	16
0.0007	-0.0038	0.0337	-0.03	15.9
-0.0008	0.0015	0.0405	-0.063	15.8
-0.0015	0.0022	0.036	-0.0375	15.9
0.0067	-0.0008	0.0277	0.0382	15.7
0.0127	-0.006	0.0127	0.0202	15.6
0.009	-0.0023	0.0015	0.0015	15.7
0.0052	-0.0008	-0.0083	-0.0518	15.4
0.0007	0.0022	-0.0143	-0.1208	15.3
-0.0008	0.0045	-0.0188	-0.0615	15.1
0.0015	0.0052	-0.0218	-0.015	15.2
0.006	0.003	-0.024	0.0105	15.2
0.012	-0.0015	-0.0256	0.027	15
0.0195	-0.0015	-0.0233	0.0262	15
0.0187	-0.003	-0.024	0.0555	15
0.015	-0.0068	-0.0256	0.048	14.8
0.0142	-0.0098	-0.0256	0.0007	14.8
0.012	-0.0098	-0.0218	-0.0353	14.7
0.0075	-0.006	-0.0181	-0.0668	14.8
0.0045	0.0022	-0.0181	-0.0533	14.5
0.0007	0.015	-0.0195	0.0045	14.7
0.0007	0.0112	-0.0181	0.0015	14.3
-0.0008	0.003	-0.0181	0.0382	14.4
-0.0053	0.0015	-0.0218	0.063	14.1
-0.006	-0.0015	-0.0195	0.0097	14.2
-0.0098	0.0007	-0.015	0.0202	14.1
-0.0113	0.0022	-0.012	0.003	14
-0.012	0.0007	-0.0128	-0.0135	14.1
-0.012	0	-0.0128	-0.0128	13.9
-0.0105	0	-0.012	-0.0046	13.8
-0.0105	0	-0.012	0.0375	13.8
-0.0068	-0.0038	-0.0091	0.0082	13.6
-0.0053	-0.0046	-0.0083	0.0045	13.5
-0.0098	-0.0046	-0.0143	0.018	13.5
-0.0203	-0.0046	-0.021	0.0007	13.1
-0.03	-0.0038	-0.0233	-0.0083	13.4
-0.03	-0.003	-0.0248	-0.0165	13
-0.027	-0.0015	-0.027	-0.0158	13.2
-0.0346	-0.0046	-0.0293	0.0142	13
-0.0436	-0.0068	-0.024	0.0855	13
-0.0405	-0.006	-0.015	0.0712	13
-0.03	0.003	-0.0053	0.0322	12.8
-0.0203	0.009	0.0045	-0.0128	12.7
-0.0083	0.009	0.0105	-0.09	12.6
0.0067	0.0067	0.0082	-0.054	12.5
0.0052	0.0015	0.0015	-0.0165	12.6
-0.0046	0.0007	-0.003	-0.0225	12.3
-0.0091	-0.0008	-0.0075	-0.0068	12.5
-0.0091	-0.0023	-0.0165	-0.0083	12.1
-0.0053	-0.0023	-0.0218	0.006	12.2
-0.0015	-0.0023	-0.027	0.012	12
-0.0023	-0.0023	-0.03	0.0105	12
-0.0015	-0.0008	-0.0308	0.009	12.1
-0.0023	0	-0.0315	-0.003	11.7
-0.0046	0	-0.0293	-0.0181	11.8
0.0022	0.0037	-0.0233	-0.0165	11.6
0.0135	0.003	-0.0165	0.012	11.8
0.0225	-0.0008	-0.0083	0.0105	11.6
0.0277	-0.003	-0.0015	0.0045	11.5
0.0292	-0.0015	0.0015	-0.0046	11.5
0.0307	0	0.006	-0.0285	11.6
0.0292	0.0015	0.0075	-0.0046	11.3
0.0285	-0.0015	0.0082	0.0097	11.5
0.027	-0.0053	0.0105	-0.0015	11.3
0.0337	-0.0046	0.0165	-0.0015	11.2
0.1222	-0.0038	0.0195	-0.0158	11.1
0.258	-0.0046	0.0172	-0.0053	11
0.1455	-0.003	0.015	0.0082	11
-0.063	-0.0015	0.0052	0.003	10.9
-0.0465	-0.0015	-0.003	0.0112	11
0.0082	-0.0023	-0.0046	0.0067	10.7
0.1882	-0.0053	-0.0165	0.0045	10.9
0.372	-0.0053	-0.0353	0.0045	10.7
0.4117	-0.0015	-0.0563	0.0015	10.7
0.399	-0.0008	-0.0878	0.0015	10.4
0.2085	0.0022	-0.114	0	10.5
0.0082	0.0007	-0.1298	0.0022	10.4
-0.1538	0.0007	-0.1463	0.0015	10.5
-0.2881	0.0015	-0.1515	0.003	10.4
-0.3451	0.0007	-0.1403	0.0022	10.4
-0.3818	0.0007	-0.114	0.0007	10.3
-0.381	0	-0.0728	0.0007	10.4
-0.3923	-0.0008	-0.0256	-0.0008	10.1
-0.4028	-0.0015	0.0232	0.0007	10.3
-0.3915	0.0015	0.0637	0	10.4
-0.3615	0.0007	0.108	0.0007	10.2
-0.3203	0.0007	0.1612	0.0007	10.3
-0.2595	0.0007	0.2175	-0.0008	9.8
-0.2033	0.0007	0.2752	0.0007	10.1
-0.1553	-0.0008	0.3322	0	9.9
-0.1006	-0.0008	0.3772	-0.0008	10
-0.0533	-0.0008	0.4065	-0.003	9.9
0.0465	-0.0023	0.42	-0.003	9.9
0.1942	-0.0015	0.4237	-0.0015	9.9
0.282	-0.003	0.4162	0.0007	9.7
0.2932	-0.0023	0.4057	0.0045	9.7
0.2857	-0.0008	0.3847	0.0037	9.9
0.2497	-0.0015	0.3622	0.0015	9.7
0.1822	-0.0023	0.3405	-0.0015	9.9
0.1132	-0.0038	0.309	-0.0046	9.5
0.063	-0.0038	0.2752	-0.0046	9.7
0.0405	-0.0046	0.2355	-0.0053	9.5
0.0427	-0.0008	0.186	-0.0038	9.5
0.0592	0.0037	0.1402	0.0007	9.5
0.078	0.003	0.1155	-0.0008	9.6
0.102	0.0015	0.075	0	9.5
0.1222	0.0015	0.0105	0.0015	9.5
0.1387	0.0015	-0.0653	0.0022	9.4
0.15	0.0007	-0.1553	0.003	9.3
0.1552	0.0015	-0.243	0	9.5
0.1582	0.0007	-0.318	-0.0015	9.4
0.1627	-0.003	-0.3555	-0.003	9.3
0.1642	-0.0053	-0.3548	-0.0015	9.3
0.162	-0.0068	-0.3315	0.0067	9.3
0.1447	-0.0053	-0.2895	0.0112	9.2
0.1065	0	-0.234	0.0127	9.3
0.072	0.0037	-0.1748	0.012	9.1
0.0367	0.0007	-0.1125	-0.0053	9.3
-0.0008	-0.0038	-0.0518	-0.0293	9.1
-0.0308	0	-0.0068	-0.024	9.3
-0.0683	0.0015	0.0165	-0.006	9.3
-0.0975	0.0007	0.0375	-0.003	9.1
-0.1065	0.0015	0.06	-0.0008	9.2
-0.0878	0.003	0.0532	0.0007	9.2
-0.0706	0.0037	0.0262	0.0007	9.1
-0.0638	0.0015	-0.0135	0.0015	9
-0.0638	0.0007	-0.0893	0.0015	9
-0.075	0.0007	-0.1845	0.0015	9
-0.0698	0.0015	-0.3053	-0.0015	9
-0.0675	0.0015	-0.4313	-0.0015	9
-0.0706	0	-0.5521	-0.0015	8.9
-0.0743	-0.0015	-0.6398	-0.003	9
-0.0758	-0.0015	-0.6781	-0.003	9
-0.0675	0.0007	-0.6713	-0.0023	8.9
-0.0578	-0.0015	-0.6353	-0.0015	9
-0.0436	-0.0023	-0.5918	-0.0015	8.7
-0.033	0.0007	-0.5408	-0.0015	8.7
-0.024	-0.0008	-0.4755	-0.0008	9
-0.0173	0	-0.372	0.0007	8.8
-0.0158	-0.0008	-0.24	-0.0015	8.7
-0.0143	-0.0015	-0.1208	-0.0038	8.8
-0.0158	-0.003	-0.0105	-0.0023	8.7
-0.021	-0.0023	0.087	-0.0015	9
-0.0218	0.0007	0.1717	0.0007	8.5
-0.0195	0.0007	0.2542	0.003	8.9
-0.0308	0.0037	0.3157	0.0052	8.8
-0.0375	0.0015	0.363	0.003	8.9
-0.0368	0	0.4027	0.0022	8.6
-0.0443	0.0007	0.4312	0.0015	8.7
-0.0436	-0.0008	0.4507	-0.0008	8.7
-0.0293	-0.003	0.4665	0.0015	8.5
-0.0218	-0.0053	0.4747	0.0007	8.8
-0.0203	-0.0053	0.4552	0.0015	8.6
-0.0158	-0.0046	0.42	0.0022	8.7
-0.0075	-0.0023	0.3862	0	8.6
0	-0.0023	0.3412	0.0007	8.6
0.0045	0	0.2925	-0.0008	8.7
0.0127	0.0015	0.2392	0.0007	8.5
0.0232	-0.0015	0.1897	0.0015	8.6
0.0345	-0.0008	0.141	0.0007	8.8
0.048	-0.0015	0.0885	0.0015	8.5
0.0577	0.0007	0.045	0.0007	8.6
0.0615	0.0015	0.0127	0.0015	8.8
0.063	0.0007	-0.012	-0.0008	8.7
0.0615	0	-0.0285	-0.0008	8.8
0.0645	0	-0.045	0.0015	8.5
0.0675	0.0015	-0.0555	-0.0015	8.7
0.0637	-0.0015	-0.0615	0	8.7
0.051	-0.0023	-0.0691	0	8.7
0.0255	-0.0008	-0.0706	0.0007	8.7
-0.0046	0	-0.0638	0.0007	8.8
-0.021	0.0007	-0.042	-0.0008	8.7
-0.0308	0.003	-0.0181	0.0007	8.9
-0.0383	0.0045	-0.0015	-0.0008	8.9
-0.0428	0.0022	0.0067	0.0007	9
-0.0458	0.0007	0.021	0.003	8.7
-0.042	0.0045	0.033	0.0015	9
-0.0353	0.003	0.039	0.0015	8.7
-0.027	0.0007	0.0472	0.0037	9
-0.021	0.0015	0.0465	0.0052	8.9
-0.0165	-0.0015	0.0502	0.0052	8.8
-0.012	-0.0015	0.0637	0.0045	9
-0.0128	-0.0038	0.0712	0.0022	9
-0.003	-0.0038	0.072	0.003	9.2
0.003	-0.0008	0.069	0.0037	9
0.0007	-0.003	0.0667	0.0015	9.2
0.009	-0.0015	0.0615	0.0022	8.9
0.0142	0.0007	0.054	0.0007	9.1
0.018	0.0007	0.0577	-0.0008	9.2
0.009	-0.0008	0.0585	-0.0008	9.1
-0.0256	-0.003	0.0495	0	9
-0.0653	-0.0015	0.0427	0.0007	9.2
-0.1163	0	0.0277	0.0022	9.2
-0.1748	-0.0008	0.012	0.003	9.4
-0.2363	-0.003	-0.0015	0.003	9.2
-0.2888	-0.0038	-0.0203	-0.0008	9.3
-0.3045	-0.003	-0.0353	-0.0046	9.3
-0.2806	-0.0023	-0.0488	-0.0046	9.1
-0.216	-0.0023	-0.0615	-0.0023	9.5
-0.1178	-0.0046	-0.0803	-0.003	9.3
0.009	-0.003	-0.1035	-0.003	9.5
0.141	-0.0023	-0.1215	-0.0008	9.3
0.2505	-0.0015	-0.1388	0.0007	9.6
0.3277	-0.0008	-0.1515	0.0007	9.3
0.3607	0	-0.1605	0.0045	9.5
0.351	-0.0008	-0.168	0.003	9.6
0.3157	0	-0.1688	-0.0008	9.6
0.2752	0	-0.165	-0.0015	9.7
0.24	-0.0008	-0.159	-0.0008	9.7
0.1987	0	-0.1523	0.0007	9.7
0.1477	-0.0015	-0.1448	-0.0008	9.8
0.1027	-0.0015	-0.1388	-0.0015	9.8
0.066	-0.0023	-0.1335	-0.0046	9.9
0.0405	-0.003	-0.1305	-0.0083	9.9
0.0232	-0.0015	-0.1253	-0.0091	9.9
0.0082	-0.003	-0.1185	-0.006	10.3
0.0022	-0.0008	-0.1178	-0.003	9.9
-0.0046	-0.0008	-0.1095	-0.0008	10.3
-0.0068	-0.0023	-0.0953	-0.0008	10.1
-0.0053	-0.003	-0.0825	-0.0015	10.2
-0.0083	-0.003	-0.0698	-0.0015	10.3
-0.0181	-0.0023	-0.057	-0.0023	10.3
-0.0368	-0.0008	-0.0383	-0.0008	10.4
-0.048	-0.0008	-0.0218	-0.0008	10.6
-0.057	-0.0015	-0.0105	-0.0015	10.5
-0.0638	-0.0015	0.0052	0.0007	10.7
-0.0721	0.003	0.0082	0.0015	10.7
-0.0945	0.0052	0.0045	0.0022	10.9
-0.1133	0.003	0	0	11
-0.1178	0.0007	-0.0053	-0.0008	10.9
-0.1028	-0.0008	-0.0083	0.0007	11.1
-0.0788	-0.0008	-0.0053	0.0007	11.2
-0.0721	-0.0008	0.0067	0.0007	11.3
-0.0706	-0.0008	0.024	-0.0008	11.3
-0.0608	0	0.0337	-0.0008	11.5
-0.0593	0.0045	0.0315	-0.0008	11.6
-0.0518	0.0052	0.0405	-0.0023	11.6
-0.0353	0.0007	0.0502	-0.003	11.6
-0.021	0.0015	0.0547	-0.0015	12
-0.0083	0.0022	0.0637	-0.003	11.9
-0.003	0.0015	0.0675	-0.0038	12.1
-0.0015	0.0022	0.0712	-0.0023	12
0.0015	0.0007	0.0742	-0.003	12.4
-0.0015	0.0007	0.078	-0.0023	12.3
-0.0023	-0.0008	0.0825	-0.003	12.5
0.0007	-0.0008	0.0862	-0.003	12.6
0.006	-0.0015	0.0892	-0.0015	12.5
0.012	-0.0023	0.0915	-0.0023	12.8
0.0165	-0.0015	0.09	-0.003	12.7
0.0195	-0.0015	0.0862	-0.0015	13
0.0157	-0.0008	0.0825	-0.0008	12.8
0.012	0.0007	0.0795	-0.0008	13
0.009	-0.0008	0.0765	-0.0015	13.2
0.0067	-0.0015	0.0712	-0.0015	13.4
0.0067	-0.0023	0.0675	-0.0015	13.4
0.0045	-0.0046	0.0615	-0.0008	13.4
0.0082	-0.0046	0.0532	0.0007	13.5
0.0232	-0.0015	0.0427	-0.0008	13.9
0.0082	-0.0008	0.0337	-0.003	13.9
-0.0248	-0.0023	0.0247	-0.003	13.9
-0.0181	-0.0015	0.018	-0.0038	14
0.0015	-0.0008	0.015	-0.0046	14.1
0.0142	-0.0008	0.0105	-0.003	14.6
0.0315	-0.0015	0.0105	-0.0038	14.3
0.0405	-0.003	0.0105	-0.0053	14.5
0.048	-0.0015	0.0097	-0.0053	14.4
0.048	-0.0023	0.0082	-0.0046	14.8
0.0457	-0.0008	0.0082	-0.003	14.9
0.042	-0.0008	0.009	-0.0015	14.8
0.0337	-0.0008	0.009	-0.0008	15.1
0.0232	0.0007	0.0105	-0.0008	15.3
0.0165	0.0007	0.0135	0	15.3
0.0075	-0.0008	0.0157	-0.0023	15.5
-0.0053	-0.0038	0.0165	-0.003	15.5
-0.0113	-0.003	0.0157	-0.0008	15.7
-0.0181	0	0.0195	-0.0008	15.5
-0.0203	0.0022	0.0202	-0.0008	15.9
-0.0181	0.003	0.018	0.0007	15.8
-0.0173	0.003	0.0135	0.0015	16
-0.0105	0.0015	0.009	0.0007	16.2
-0.003	-0.0008	0.0052	0	16.2
0.003	0.0007	0.0007	0	16.3
0.0082	0.0007	-0.0046	0.0015	16.4
0.012	0.0007	-0.0083	0.003	16.5
0.0165	0	-0.0128	0.0007	16.8
0.0195	-0.0015	-0.015	0	16.9
0.0217	0	-0.0158	-0.0015	16.8
0.0232	-0.0023	-0.0181	-0.0038	17.1
0.0262	-0.0008	-0.0195	-0.0015	17
0.0307	-0.0023	-0.021	-0.0023	17.5
0.03	-0.0046	-0.0233	-0.0023	17.3
0.0285	-0.0053	-0.0263	-0.0023	17.7
0.0292	-0.0053	-0.0293	-0.0008	17.5
0.0307	-0.003	-0.0315	-0.0008	17.7
0.033	-0.0023	-0.0353	-0.0038	17.9
0.0322	0.0007	-0.0383	-0.003	17.9
0.0277	0.0015	-0.0375	-0.0015	18.2
0.0217	0.0015	-0.0346	-0.0008	18.1
0.0187	0.0015	-0.033	0.0015	18.4
0.0142	-0.0008	-0.0346	0.0007	18.5
0.009	0.0015	-0.0383	0	18.6
0.0045	0.0007	-0.0405	-0.0015	18.9
-0.0046	-0.0008	-0.0443	-0.0023	19
-0.015	-0.0023	-0.048	-0.0015	19.2
-0.0233	-0.0023	-0.054	-0.0015	19.3
-0.03	-0.0008	-0.0578	-0.0015	19.4
-0.0405	0.0015	-0.0615	-0.0015	19.7
-0.0518	0.0015	-0.0653	-0.0008	19.8
-0.0593	0.0015	-0.0713	-0.0015	20.1
-0.0653	0.0015	-0.0788	-0.0023	20.3
-0.0698	-0.0008	-0.0818	-0.0008	20.5
-0.0721	0.0007	-0.0856	0	20.8
-0.075	0	-0.0818	0.0007	20.9
-0.0735	-0.0015	-0.075	0.0022	21.3
-0.0743	-0.0008	-0.0728	0.0037	21.3
-0.0698	-0.0015	-0.0668	0.003	21.7
-0.06	-0.0023	-0.063	0.0015	21.9
-0.0518	-0.003	-0.0555	0.0015	22.1
-0.0383	-0.0015	-0.0488	0.0015	22.3
-0.0256	-0.0023	-0.0428	0.0022	22.6
-0.0143	-0.0023	-0.0346	0.0015	22.9
0.0007	-0.0015	-0.024	0.0015	23.1
0.0127	0	-0.015	0.0015	23.3
0.0255	-0.0015	-0.0083	0.0015	23.8
0.0352	-0.003	-0.0046	0.0015	23.6
0.0435	-0.0046	-0.0015	0.0007	24.1
0.0495	-0.003	0.0007	0.0007	24.2
0.054	-0.0008	0.003	-0.0015	24.4
0.0585	-0.0015	0.003	-0.0015	24.6
0.0592	-0.0023	0.003	-0.0008	25
0.0555	-0.0046	0.003	-0.0015	25.2
0.051	-0.003	0.0052	0	25.3
0.0517	-0.0023	0.0067	0.0007	25.4
0.048	-0.003	0.0112	0.0022	25.7
0.042	-0.0023	0.024	0.0037	26
0.0382	-0.003	0.066	0.0037	26.3
0.0307	-0.0046	0.1552	0.0037	26.5
0.0232	-0.0046	0.2902	0.0037	26.8
0.0195	-0.0038	0.435	0.0052	27
0.012	-0.003	0.5715	0.0052	27.1
0.0082	-0.003	0.6525	0.003	27.6
0.006	-0.0008	0.5797	0.0045	27.5
0.003	-0.0023	0.417	0.0052	28.2
-0.0008	-0.003	0.2572	0.0052	28.3
-0.006	-0.0008	0.0405	0.0037	28.7
-0.0038	0.0007	-0.2325	0.0022	28.8
0.003	0.0015	-0.5445	0.0015	29.1
0.006	0.0022	-0.8573	-0.0008	29.3
0.0082	0.0022	-1.095	-0.0015	29.7
0.0082	0.0015	-1.2023	-0.0008	29.9
0.0022	-0.0008	-1.1903	-0.0015	30.1
-0.0083	-0.0015	-1.1333	-0.003	30.2
-0.0143	-0.0015	-1.0733	-0.0038	30.7
-0.0165	-0.003	-1.0238	-0.0015	30.8
-0.0195	-0.0015	-0.9128	-0.0008	31.3
-0.0203	-0.0008	-0.7178	-0.0008	31.6
-0.0218	-0.003	-0.4883	0	31.8
-0.021	-0.0015	-0.2205	0.0015	32
-0.024	-0.0015	0.0465	0	32.2
-0.0248	0.0015	0.2887	0.0022	32.7
-0.0218	0.0007	0.5092	0.0037	32.8
-0.0195	0.0007	0.6945	0.0015	33.1
-0.0218	0.0022	0.8505	0.0045	33.5
-0.0256	0.0007	0.9682	0.0037	33.6
-0.0315	0.003	1.044	0.0022	34.1
-0.0405	0.003	1.0807	0.003	34.3
-0.0428	0.0045	1.0815	0.003	34.4
-0.042	0.0037	1.0507	0.003	34.8
-0.0413	0.0015	0.9892	0.0022	34.8
-0.0368	0.0007	0.903	0.003	35.1
-0.0353	-0.0008	0.801	0.0015	35.2
-0.0293	0	0.69	0.0007	35.6
-0.0256	-0.0023	0.5722	0.0015	35.8
-0.0278	-0.0015	0.453	0.0007	35.9
-0.0293	-0.003	0.333	0	36.3
-0.0308	-0.0023	0.2212	-0.0015	36.4
-0.0293	-0.0023	0.1162	-0.0023	36.8
-0.03	-0.0008	0.024	-0.0015	36.9
-0.0293	0	-0.054	-0.0015	37
-0.0293	-0.0008	-0.12	0	37.4
-0.0256	0.0015	-0.1635	0	37.8
-0.021	0.0015	-0.1935	0.0015	37.9
-0.0181	0.0015	-0.2085	0.0015	38.2
-0.006	-0.0008	-0.1838	0.0022	38.5
-0.015	0.0007	-0.099	0.003	38.7
-0.084	0	0.0172	0.0022	38.7
-0.1463	0.0007	0.1327	0.0015	39.1
-0.1441	0.003	0.2295	0.0007	39.3
-0.111	0.0022	0.2805	0.0022	39.5
-0.0585	0.0022	0.2895	0.0015	39.9
0.003	0.003	0.2752	0.0015	39.9
0.0562	0.0015	0.2475	0.0022	40.4
0.0877	0.0007	0.2085	0.0015	40.4
0.102	-0.0008	0.159	0.0007	40.7
0.1147	-0.0015	0.0937	0.0007	41
0.1425	-0.0008	-0.0068	0.0007	41.1
0.1747	-0.0023	-0.1275	0.0015	41.4
0.1875	-0.0015	-0.2175	-0.0015	41.5
0.1897	-0.0023	-0.2836	-0.0015	41.6
0.1732	-0.003	-0.3383	-0.0008	42.2
0.1455	-0.0015	-0.3675	-0.0008	42.1
0.114	-0.0008	-0.3908	-0.0023	42.7
0.0787	0.0015	-0.4088	-0.003	42.5
0.048	-0.0008	-0.4253	-0.0038	42.9
0.0217	-0.0023	-0.4373	-0.0046	43.1
-0.0046	-0.0023	-0.444	-0.003	43.4
-0.0278	0.0007	-0.4373	-0.0023	43.7
-0.0458	-0.0008	-0.42	-0.0038	43.8
-0.0623	-0.0015	-0.3968	-0.0038	44.1
-0.0698	0.0015	-0.3728	-0.003	44.5
-0.0698	0	-0.3525	-0.003	44.7
-0.063	-0.0008	-0.3315	-0.0046	44.8
-0.0518	-0.0015	-0.309	-0.0023	45.3
-0.042	-0.003	-0.2828	0	45.4
-0.0338	-0.0008	-0.2573	-0.0008	45.8
-0.024	0.0007	-0.228	-0.0008	45.8
-0.0143	0.0007	-0.192	-0.0015	46.2
-0.0075	-0.0008	-0.153	-0.0008	46.3
-0.0038	0.0007	-0.1088	0.0007	46.7
-0.003	0.0015	-0.0668	0.0015	47
-0.0008	-0.0008	-0.0248	0.0015	47.2
-0.0015	-0.0008	0.0142	0.0015	47.4
-0.0008	-0.0015	0.0487	0.003	47.6
0.0015	-0.0023	0.078	0.003	48.1
0	0	0.1027	0.003	47.9
0.0015	0	0.126	0.0015	48.5
-0.0015	0.0015	0.1425	0	48.4
-0.003	0	0.1522	0.0007	48.7
0.0007	-0.0023	0.156	-0.0008	48.9
0.0045	-0.0015	0.1537	0.0007	49.1
0.0082	-0.0023	0.144	0.0022	49.3
0.009	-0.0008	0.126	0.0015	49.6
0.0127	-0.0015	0.1065	0.0015	49.7
0.0165	-0.0015	0.0862	-0.0015	49.9
0.0202	-0.0008	0.0712	-0.0008	50.1
0.024	0	0.054	-0.0015	50.4
0.0292	0.0007	0.0352	-0.003	50.5
0.0315	0	0.0225	-0.003	50.7
0.0322	0.0015	0.0112	0.0007	51
0.0352	0.0015	0.0015	0.0007	51.1
0.0367	0.0015	0.0015	0.0007	51.4
0.033	0.0015	0.0045	0.0022	51.4
0.0285	0.0007	0.015	0.0007	51.7
0.024	0.0015	0.027	0.0007	51.8
0.0157	0.0037	0.042	0.003	52
0.012	0.003	0.0607	0.0007	52.2
0.009	0.003	0.0787	0.003	52.4
0.0142	0.0037	0.099	0.0015	52.6
0.027	0.0045	0.1162	0.0007	53
0.0405	0.0037	0.1305	0.0022	53
0.0525	0.0015	0.1425	-0.0008	53.5
0.0577	0.0007	0.1522	-0.0008	53.4
0.057	0.0007	0.159	-0.0015	53.7
0.0495	0.0007	0.1597	-0.0008	53.8
0.0367	0.0022	0.1597	0.0007	54
0.0202	0.0022	0.1545	0.0022	54.3
0.003	0.003	0.1425	0.0022	54.4
-0.0105	0.0007	0.1297	0.0022	54.6
-0.0256	0.0015	0.111	0.0015	54.7
-0.0368	0.0007	0.0892	0	54.9
-0.0436	-0.0023	0.0652	0.0022	55
-0.0518	-0.0008	0.042	0.0015	55.1
-0.0555	0.0007	0.0195	0.0015	55.3
-0.0593	0.0015	-0.0046	0.0015	55.4
-0.0638	0.0007	-0.0278	0.0007	55.5
-0.0668	0.0007	-0.0495	0.0007	55.8
-0.0675	-0.0008	-0.0691	0	55.8
-0.0675	-0.0038	-0.0878	0	56.2
-0.0645	-0.003	-0.1058	-0.0008	56
-0.0615	-0.0015	-0.1185	0	56.4
-0.057	0.0007	-0.129	-0.0008	56.4
-0.0525	0.0007	-0.1358	0	56.4
-0.0473	0.0015	-0.1426	-0.0008	56.7
-0.0436	0.003	-0.147	-0.0046	56.5
-0.0375	0.003	-0.1478	-0.003	56.9
-0.03	0.003	-0.1463	-0.0015	56.9
-0.0233	0.003	-0.1433	-0.0015	56.9
-0.021	0.003	-0.135	-0.0015	57.2
-0.0218	0.0007	-0.1238	-0.0015	57.3
-0.0278	-0.0023	-0.1073	-0.0015	57.3
-0.0353	-0.003	-0.0893	-0.0008	57.4
-0.0398	-0.0038	-0.0743	0.0007	57.5
-0.042	-0.0046	-0.0585	0	57.6
-0.0368	-0.0053	-0.03	-0.0015	57.7
-0.0256	-0.0053	0.0075	-0.0015	57.9
-0.0113	-0.0038	0.0292	0.0007	57.9
0.006	-0.003	0.0202	0.0015	58
0.0225	-0.0023	0.0082	0.003	58
0.0367	-0.0008	0.009	0.0022	58.2
0.0435	-0.0015	0.0015	0.0015	58.3
0.0465	-0.0015	-0.0105	0.0007	58.1
0.0472	-0.0008	-0.0173	0.0022	58.5
0.0487	-0.0015	-0.0256	0.003	58.5
0.0502	-0.0015	-0.0293	0.0007	58.5
0.0487	-0.0015	-0.0278	0.0007	58.5
0.0427	-0.0015	-0.03	-0.0008	58.6
0.0427	0	-0.0353	-0.0008	58.8
0.039	-0.0008	-0.0293	0.0007	58.6
0.0352	-0.0015	-0.0188	0.0007	58.7
0.0352	-0.0023	-0.0075	0.0007	58.8
0.0255	-0.0046	-0.0008	-0.0008	58.7
0.0157	-0.0053	-0.0008	-0.0008	59
0.0052	-0.0046	-0.0008	0	58.8
-0.0098	-0.0015	-0.0068	0.0007	58.9
-0.0203	-0.0008	-0.0113	0.0007	58.9
-0.0308	-0.0008	-0.012	0.0007	58.9
-0.0368	0	-0.0091	0.003	59
-0.0368	-0.0023	-0.0015	0.0015	58.9
-0.0346	-0.0015	0.006	0.0007	58.9
-0.0346	-0.0008	0.015	0.0007	59
-0.0323	-0.003	0.0202	0.0015	59.1
-0.03	-0.0046	0.0247	0.0007	59.1
-0.027	-0.0038	0.0225	0	59.1
-0.024	-0.003	0.0195	-0.0023	59.2
-0.024	-0.0015	0.0165	-0.0038	59.4
-0.0218	-0.0015	0.0105	-0.0053	59.1
-0.0203	-0.0008	0.0067	-0.006	59.4
-0.0165	0.0007	0	-0.0046	59.3
-0.012	0.0015	-0.0083	-0.0038	59.2
-0.0113	0.0015	-0.0128	-0.0023	59.2
-0.012	0.0015	-0.0128	-0.0053	59.2
-0.0105	0.0015	-0.0143	-0.0053	59.3
-0.0083	0.0015	-0.0158	-0.0046	59.3
0	0	-0.0181	-0.0046	59.4
0.0142	-0.0046	-0.0218	-0.0053	59.4
0.024	-0.0046	-0.0248	-0.0053	59.3
0.0307	-0.0068	-0.0278	-0.0046	59.3
0.0337	-0.0075	-0.0315	-0.0038	59.1
0.0315	-0.0053	-0.0353	-0.003	59.3
0.0285	-0.0046	-0.0368	-0.003	58.9
0.024	-0.0046	-0.0405	-0.0038	59.1
0.0255	-0.0023	-0.0383	-0.0046	59
0.027	-0.0015	-0.0346	-0.0038	58.9
0.024	-0.0023	-0.0323	-0.0015	59
0.0232	-0.0023	-0.027	-0.003	58.9
0.0202	-0.0015	-0.0225	-0.003	58.9
0.0187	-0.0008	-0.0203	-0.0008	58.9
0.0195	-0.0015	-0.0195	0.0015	58.8
0.0157	0.0015	-0.0173	0.0007	58.9
0.0142	0.003	-0.0128	0.0015	58.5
0.012	0.003	-0.0105	0.003	58.5
0.0105	0.0022	-0.0053	0.0015	58.6
0.0112	0.0022	0.0007	0.0022	58.5
0.009	0.003	0.0082	0.003	58.4
0.009	0.0015	0.018	0.0007	58.3
0.0127	-0.0008	0.0292	0.0007	58.2
0.015	-0.003	0.0375	0.0015	58.1
0.0142	-0.0023	0.048	0.0007	58
0.0157	0.0007	0.06	0.003	58.1
0.0172	0.0007	0.069	0.003	57.8
0.018	-0.0023	0.0765	0.0015	58.1
0.0172	-0.0008	0.0825	0	57.8
0.0187	0.0007	0.0855	0.0015	57.7
0.0195	0.0007	0.0892	0.0022	57.7
0.0157	0.0015	0.0892	0.0015	57.6
0.0105	0.0015	0.0885	0.0015	57.8
0.0097	0	0.0862	0	57.5
0.0127	0.0015	0.0862	-0.0015	57.4
0.0172	0.0015	0.0855	-0.0008	57.3
0.0187	0.0015	0.084	0.0007	57.3
0.0232	-0.0015	0.0802	-0.0015	57.2
0.0292	-0.003	0.0675	-0.0015	57
0.0315	0	0.0525	-0.0015	57.1
0.0307	0	0.0345	-0.0015	56.9
0.0352	0	0.0142	-0.0008	56.7
0.0405	0.0007	-0.0053	-0.0015	56.6
0.0427	0	-0.0203	0	56.3
0.0412	0.0007	-0.0308	-0.0008	56.5
0.0352	-0.0008	-0.0428	-0.0008	56.2
0.0292	0.0007	-0.0458	0	56.2
0.0255	-0.0008	-0.0495	0.0007	55.9
0.0195	-0.0015	-0.0548	0.0015	55.8
0.0157	0	-0.057	0.0022	55.7
0.012	0.0007	-0.0615	0.003	55.8
0.0097	-0.0008	-0.0638	0.0015	55.6
0.0082	-0.0008	-0.0623	0.0007	55.4
0.0052	-0.0008	-0.0593	0.0007	55.1
0.0045	0	-0.054	-0.0008	55.1
0.0007	-0.0015	-0.0503	-0.0015	54.8
-0.0053	-0.003	-0.0428	-0.0023	54.8
-0.0113	-0.0015	-0.0353	-0.003	54.5
-0.0173	-0.0015	-0.027	0	54.3
-0.0233	0	-0.0173	0.0007	54.4
-0.0256	-0.0008	-0.0128	0.0007	53.8
-0.0293	-0.0023	-0.0105	0.0015	53.9
-0.0323	-0.0008	-0.0105	-0.0008	53.5
-0.0353	-0.003	-0.0105	-0.0015	53.3
-0.0405	-0.0015	-0.0105	-0.0015	53.1
-0.0443	-0.0023	-0.0113	-0.003	52.9
-0.0443	-0.003	-0.0128	-0.0015	52.6
-0.0443	-0.0023	-0.0158	-0.0023	52.4
-0.042	-0.0023	-0.0165	-0.003	52.2
-0.0405	0.0015	-0.0181	-0.003	52.2
-0.039	-0.0008	-0.0195	-0.0015	51.7
-0.0383	-0.0015	-0.0188	-0.0015	51.7
-0.0346	-0.0008	-0.0195	-0.0008	51.6
-0.0315	-0.0038	-0.0181	-0.0008	51.2
-0.0293	-0.003	-0.0158	-0.0015	50.9
-0.0218	-0.0015	-0.012	0.0007	50.7
-0.015	-0.0015	-0.0105	-0.0008	50.7
-0.0105	-0.0015	-0.0075	-0.0015	50.3
-0.0091	-0.0015	-0.0046	0	50.4
-0.006	-0.003	-0.0008	0	50.1
-0.0083	-0.0015	0.0015	0.0007	49.9
-0.0053	-0.0008	0.0045	0.0015	49.9
-0.0008	-0.0015	0.006	0.003	49.6
0.0022	0	0.0075	0.0037	49.5
0.0052	0	0.009	0.0015	49.2
0.0052	0.0007	0.0112	0.0022	49
-0.0046	0.0015	0.012	0.003	49
-0.0256	0.003	0.0142	0.003	48.6
-0.0353	0.003	0.0157	0.003	48.5
-0.0375	0.0015	0.018	0.003	48.4
-0.0405	0.0022	0.0172	0.0015	48.1
-0.0375	0.0015	0.0165	-0.0008	48.1
-0.0338	0.0007	0.0172	-0.0015	47.7
-0.0285	0.0007	0.0165	-0.0008	47.7
-0.024	0.0007	0.0157	0.0007	47.4
-0.0181	0	0.018	0.0007	47.2
-0.015	-0.0008	0.0172	0.0007	47.1
-0.0105	0	0.018	-0.0008	46.7
-0.0068	-0.0015	0.0157	-0.0015	46.4
-0.0053	-0.0038	0.015	-0.0015	46.2
0.0007	-0.003	0.018	-0.0008	45.9
0.003	-0.0023	0.018	0.0022	45.7
0.0045	-0.0015	0.0195	0.0007	45.4
0.006	-0.003	0.0217	-0.0015	45.4
0.0082	-0.003	0.0247	-0.0008	44.9
0.012	-0.0023	0.027	-0.0008	44.8
0.0157	-0.0046	0.03	-0.003	44.4
0.0165	-0.0038	0.0337	-0.003	44
0.0157	-0.0046	0.0352	-0.0015	43.8
0.0165	-0.006	0.0375	-0.0015	43.6
0.0172	-0.0068	0.0382	-0.003	43.3
0.0157	-0.0053	0.0382	-0.003	42.9
0.0157	-0.0046	0.0375	-0.003	42.6
0.0165	-0.0068	0.0367	-0.0015	42.4
0.0195	-0.0046	0.0367	-0.0015	42.2
0.018	-0.0038	0.0367	-0.0008	41.9
0.0157	-0.0046	0.0352	-0.0015	41.6
0.015	-0.0046	0.0315	-0.0015	41.1
0.0157	-0.003	0.0277	-0.0008	41
0.018	-0.0015	0.027	-0.0015	40.4
0.018	-0.0008	0.027	0.0015	40.4
0.0187	-0.0008	0.024	0.003	40.1
0.018	-0.0008	0.0217	0.0022	39.7
0.0165	0	0.0202	0.003	39.5
0.0157	-0.0008	0.018	0.0007	39.1
0.012	-0.0008	0.0135	0	39.1
0.009	-0.0015	0.0075	0.0007	38.4
0.009	-0.0008	0.0067	0.0007	38.3
0.0067	0.0015	0.009	0	37.8
0.006	0.0007	0.0082	0.0022	37.6
0.0037	0.0007	0.0105	0.0045	37.2
0.0037	0	0.0105	0.003	37
0.0052	-0.0015	0.0112	0.003	36.7
0.003	-0.003	0.012	0.003	36.3
-0.0015	-0.0053	0.0142	0.0052	36
-0.0046	0.0015	0.0142	0.0052	35.6
-0.0046	0.0067	0.0142	0.0045	35.1
-0.0015	0.0045	0.015	0.0015	34.9
0.0015	0.0052	0.0135	-0.0015	34.4
0.006	0.003	0.0135	-0.006	34.2
0.0097	0.0015	0.012	-0.0105	33.7
0.0187	0.0022	0.009	-0.012	33.2
0.0277	0.0007	0.0067	-0.0105	33.2
0.024	-0.0046	0.003	0.0045	32.5
0.0142	-0.0068	0.0015	0.0142	32.2
0.0037	-0.006	-0.0015	0.0022	31.9
-0.0015	0.0015	-0.0038	-0.0143	31.5
-0.0015	0.0067	-0.0068	-0.0195	31.1
-0.003	0.0105	-0.0075	-0.0256	30.7
0.006	0.012	-0.0075	-0.012	30.4
0.0195	0.0067	-0.0105	0.0157	29.9
0.0247	0.003	-0.0128	0.042	29.2
0.0255	0.0037	-0.0143	0.0487	29.4
0.027	0.003	-0.0158	-0.0091	29
0.0277	0.006	-0.0158	-0.0308	28.6
0.0195	0.0142	-0.0143	-0.0023	28.3
0.0082	0.0142	-0.0091	0.0292	28.1
0.0022	0.0037	-0.0046	0.1192	27.8
-0.0023	0.003	-0.0068	0.1162	27.1
-0.0128	0.0075	-0.0158	0.0442	26.9
-0.021	0	-0.0218	0.0712	26.5
-0.0248	-0.0233	-0.0278	0.0067	26.1
-0.0285	-0.0293	-0.0278	-0.186	25.6
-0.03	-0.0181	-0.0218	-0.273	25.2
-0.0256	-0.0158	-0.0158	-0.156	24.8
-0.024	-0.0098	-0.015	-0.0848	24.6
-0.0218	0.006	-0.012	-0.1598	24.1
-0.0135	0.0307	-0.0083	-0.1006	23.9
-0.0046	0.0255	-0.0046	0.0495	23.3
0.003	-0.012	-0.0038	0.1485	23.3
0.0052	-0.0315	-0.0046	0.096	22.5
0.009	-0.0353	-0.0046	0.0435	22.2
0.009	-0.0263	-0.0015	0.108	21.9
0.0052	-0.0188	-0.0015	0.0562	21.4
0.0052	-0.015	-0.0098	0.09	21.1
0.0015	-0.0181	-0.012	0.156	20.4
0.003	-0.0195	-0.0105	0.0907	20.2
0.0037	-0.0083	-0.0098	-0.033	19.6
0.0007	0.0037	-0.0075	-0.1073	19.3
-0.0015	0.0127	-0.0068	-0.0263	18.9
-0.0083	0.0187	-0.0053	-0.033	18.4
-0.012	0.0232	0.0007	-0.0743	18
-0.0143	0.0202	0.003	-0.0278	17.6
-0.021	0.018	0.0022	-0.0113	17
-0.0203	0.0157	0.0052	-0.024	16.7
-0.0263	0.003	0.0007	-0.048	16.2
-0.0346	-0.0038	-0.0068	-0.0473	16
-0.0361	-0.003	-0.0046	-0.03	15.3
-0.0315	0.0015	-0.0053	0.0015	15
-0.0225	0.0045	-0.012	0.036	14.5
-0.0128	0.0082	-0.0188	0.033	13.9
-0.0053	0.0105	-0.021	0.0217	13.8
-0.0015	0.0052	-0.0195	0.0277	13
-0.0008	0.0022	-0.0173	0.0165	12.7
-0.0015	0.0007	-0.0293	0.0112	12.2
-0.0023	-0.0008	-0.0503	0.042	11.5
-0.0046	-0.0015	-0.0803	0.054	11.4
-0.0091	0.0067	-0.1095	0.0345	10.9
-0.0143	0.0082	-0.108	0.024	10.7
-0.0195	0.0015	-0.0915	0.0052	10.2
-0.0233	-0.0053	-0.0645	-0.0181	9.9
-0.027	-0.0158	-0.03	-0.0525	9.5
-0.0338	-0.0218	-0.0015	-0.12	8.9
-0.033	-0.0158	0.0105	-0.1103	8.8
-0.0293	0.0045	0.0082	-0.0653	8.1
-0.0181	0.0202	-0.0008	-0.0405	7.8
0.0007	0.0157	-0.0068	0.006	7.4
0.0097	0.0052	-0.0091	-0.021	6.9
0.0172	-0.0053	-0.0143	-0.0113	6.5
0.0255	-0.0091	-0.027	0.0495	6
0.0337	-0.0023	-0.0375	0.1155	5.7
0.0367	0	-0.0353	0.1335	5.3
0.0337	0.003	-0.0293	0.0435	4.7
0.033	0	-0.0218	0.0915	4.3
0.033	-0.0105	-0.0181	0.1582	3.8
0.033	-0.0143	-0.0091	0.1305	3.3
0.0292	-0.024	0.0015	0.1822	3
0.0232	-0.0383	0.0202	0.2362	2.4
0.0217	-0.0503	0.0397	0.1222	2.1
0.015	-0.0405	0.0465	-0.075	1.4
0	-0.0173	0.0435	-0.2483	1
-0.0195	0.0112	0.0262	-0.417	0.7
-0.0308	0.0427	0.015	-0.4425	0.4
-0.0233	0.0712	0.009	-0.327	-0.1
-0.0083	0.0915	0.0157	-0.1133	-0.5
-0.0046	0.078	0.0247	0.039	-0.6
-0.0015	0.0495	0.0247	0.0307	-1.1
0.0045	0.0142	0.0285	0.0225	-1.5
0.0045	-0.0203	0.0315	0.0195	-1.8
0.0075	-0.0428	0.0517	0.078	-2.1
0.0097	-0.0653	0.0697	0.1327	-2.3
0.0165	-0.057	0.075	0.108	-2.7
0.0262	-0.0368	0.084	0.0967	-2.7
0.03	-0.024	0.0967	0.12	-3
0.0315	-0.003	0.108	0.0915	-3.2
0.0322	0.0127	0.1162	-0.0038	-3.2
0.0345	0.027	0.132	-0.075	-3.5
0.042	0.0315	0.1447	-0.0458	-3.5
0.0457	0.0352	0.1537	0.0007	-3.6
0.039	0.0375	0.1597	0.0292	-3.6
0.03	0.0247	0.1627	0.1162	-3.4
0.03	0.0142	0.165	0.1477	-3.6
0.0465	0.0052	0.1642	0.0757	-3.5
0.0592	-0.006	0.1552	-0.0225	-3.6
0.0637	-0.0368	0.1372	-0.0825	-3.4
0.0577	-0.096	0.1132	-0.1448	-3.4
0.0195	-0.111	0.075	-0.2288	-3.6
-0.0308	-0.0615	0.0277	-0.2213	-3.2
-0.081	-0.0203	-0.0233	-0.0623	-3.1
-0.1253	0.0105	-0.0848	0.0045	-3.1
-0.1538	0.018	-0.1538	-0.0083	-2.9
-0.1718	0.0097	-0.207	0.0802	-2.9
-0.1845	-0.0008	-0.2325	0.0952	-2.4
-0.2033	-0.0135	-0.2355	0.1357	-2.5
-0.2175	-0.012	-0.2385	0.144	-2.2
-0.2145	-0.0158	-0.2468	0.0712	-2.2
-0.1973	-0.033	-0.2535	0.0052	-2.1
-0.168	-0.0683	-0.2558	-0.0893	-1.8
-0.1268	-0.063	-0.249	-0.1103	-1.6
-0.0825	-0.0203	-0.2483	-0.0878	-1.7
-0.0555	0.0082	-0.249	0.018	-1.3
-0.0346	0.0435	-0.2393	0.0975	-1.2
-0.0346	0.0652	-0.2183	0.0427	-0.9
-0.0548	0.069	-0.1928	-0.0735	-0.8
-0.0825	0.0562	-0.1665	-0.078	-0.6
-0.1125	0.0217	-0.1335	0.0142	-0.3
-0.1335	0.0232	-0.1178	-0.0181	-0.4
-0.1515	0.0502	-0.114	-0.0023	0.2
-0.1441	0.0615	-0.1013	0.003	0
-0.1118	0.0457	-0.0803	-0.0046	0.5
-0.0525	0.0307	-0.0713	0.0292	0.5
0.0382	0.0405	-0.0563	0.0172	0.8
0.0892	0.0217	-0.0361	0.042	0.9
0.0937	-0.0068	-0.0293	0.0315	1.2
0.1192	-0.0233	-0.024	0.0337	1.4
0.1215	-0.0218	0.0195	0.033	1.7
0.126	-0.0015	0.084	0.0277	1.6
0.147	-0.0008	0.0922	0.0405	2.2
0.1537	0.0232	0.0802	0.0345	2.1
0.1665	0.0165	0.048	0.0442	2.5
0.18	-0.0361	0.033	0.0367	2.6
0.2025	-0.0555	0.042	0.03	2.9
0.2212	-0.0728	0.027	0.0225	3.2
0.24	-0.0638	0.0082	0.0127	3.3
0.2632	-0.0368	-0.0203	0.018	3.6
0.2497	-0.0068	-0.0278	-0.0015	3.7
0.2362	0.0465	-0.0105	-0.0413	4
0.2857	0.069	0.0097	-0.0203	4.1
0.3765	0.0495	0.0277	0.0157	4.4
0.4657	-0.0203	0.0592	0.0067	4.5
0.5092	-0.0458	0.0727	0.0127	4.8
0.4702	0.0172	0.0675	-0.0091	4.9
0.3975	0.0952	0.0667	-0.0233	5.3
0.3052	0.1552	0.0495	-0.0105	5.2
0.1777	0.1282	0.012	-0.0195	5.6
0.0705	0.0517	-0.0308	-0.0308	5.6
-0.0008	0.0187	-0.0691	-0.0256	6
-0.0503	0.003	-0.081	-0.0143	5.9
-0.0788	-0.0173	-0.0653	-0.0353	6.3
-0.1043	-0.0375	-0.063	-0.0323	6.3
-0.1448	-0.0405	-0.0818	-0.024	6.6
-0.1568	-0.0383	-0.1125	-0.0233	6.9
-0.1613	-0.057	-0.132	0.0097	7
-0.1515	-0.0765	-0.1223	0.0397	7.6
0.0592	-0.0863	-0.0743	0.0457	7.3
0.0382	-0.096	-0.0225	0.039	7.6
-0.7666	-0.0765	-0.0038	0.039	7.8
-0.9518	-0.063	0.0067	0.0067	8
-0.8918	-0.0638	0.009	-0.0203	8.2
-1.2953	-0.0188	-0.027	-0.012	8.3
-0.726	0.0382	-0.0668	-0.0143	8.7
-0.1628	0.0712	-0.0668	0.0165	8.9
0.6405	0.0795	-0.0465	0.0502	9.1
1.3207	0.072	0.0345	0.033	9.4
1.434	0.0585	0.114	0.0157	9.3
1.5457	0.03	0.162	-0.0353	9.6
1.3905	-0.0218	0.2392	-0.0413	9.8
1.3042	-0.0293	0.2295	0.0277	10.1
1.0162	-0.0203	0.1875	0.0045	10.3
0.6255	-0.0383	0.4065	-0.0405	10.4
0.4342	-0.027	0.8047	-0.0645	10.7
0.4372	-0.0173	1.1655	-0.1028	10.8
0.465	-0.0008	1.4542	-0.1365	11.1
0.3045	0.0045	1.389	-0.135	11.2
0.237	-0.0158	1.2562	0.0217	11.7
0.111	-0.0383	1.1632	0.1365	12.1
0.0157	-0.057	1.065	0.1027	11.9
-0.1545	-0.0308	0.9765	0.0577	12.5
-0.3098	-0.0218	0.8482	0.0232	12.5
-0.4395	-0.0105	0.5805	-0.0203	12.9
-0.5551	0.024	0.2535	-0.1028	13.1
-0.6083	0.0127	-0.0788	-0.189	13
-0.7028	0.0202	-0.3233	-0.168	13.5
-0.7988	0.0097	-0.618	-0.0188	13.5
-0.9705	-0.027	-0.9308	0.0405	14
-1.1138	-0.0158	-1.1768	0.0082	13.9
-1.2391	0.0157	-1.3995	0.009	14.2
-1.2758	0.0292	-1.611	-0.0173	14.2
-1.209	0.012	-1.7468	-0.0353	14.4
-1.1108	0.0052	-1.6973	-0.0046	14.4
-0.9705	-0.0008	-1.5503	-0.0143	14.6
-0.8258	-0.0158	-1.416	-0.057	14.6
-0.6608	-0.0218	-1.2938	0.0232	14.8
-0.531	-0.024	-1.1843	0.0607	14.7
-0.4245	-0.0181	-1.0845	0.048	14.9
-0.3315	-0.027	-0.9938	0.0765	14.9
-0.2408	-0.0293	-0.912	0.0277	15
-0.1598	-0.0181	-0.8363	0.0787	15
-0.0871	-0.003	-0.768	0.1477	15
0	0.0097	-0.6525	0.0802	15.2
0.042	0.0232	-0.4178	-0.0825	14.9
0.0667	0.039	-0.1628	-0.0788	15.4
0.1087	0.0292	0.102	0.036	15.4
0.183	0.0195	0.45	-0.0165	15.7
0.2347	0.0195	0.861	0.012	15.8
0.258	0.012	1.2367	0.0045	16
0.2745	0.0052	1.5075	-0.0015	16.2
0.2467	-0.0046	1.7025	0.0307	16.6
0.213	-0.003	1.8255	0.0007	16.5
0.1485	0.0015	1.8465	0.0292	16.8
-0.0645	0.0015	1.7107	0.0127	16.9
-0.1583	0.0045	1.563	0.0157	17.1
-0.0706	0.0067	1.428	0.0015	17.3
-0.1208	0.0045	1.3072	-0.0091	17.6
-0.045	0.0037	1.1977	0.0292	17.9
0.0727	0.003	1.0845	0.033	18.2
0.1462	-0.0008	0.894	0.0502	18.4
0.2407	-0.006	0.6817	0.0667	18.8
0.2662	-0.0113	0.444	0.0315	19
0.3442	-0.0113	0.1545	-0.054	19
0.3405	-0.003	-0.1635	-0.0593	19.4
0.3322	0.0067	-0.4133	-0.0128	19.7
0.3307	0.0127	-0.5985	0.0105	20.1
0.3202	0.009	-0.7553	0.024	20.3
0.3097	0.0037	-0.8603	0.015	20.4
0.2707	0.0067	-0.9375	0.0232	20.7
0.276	0.0037	-0.9893	0.0345	21
0.2535	0.0052	-0.9788	0.015	21.1
0.219	0.018	-0.9338	0.021	21.6
0.1755	0.0307	-0.8633	0.0997	21.6
0.1515	0.036	-0.7508	0.1957	22
0.1425	0.0195	-0.5985	0.246	22
0.123	-0.0008	-0.4051	0.261	22.4
0.0922	-0.0195	-0.1628	0.1957	22.5
0.0442	-0.0428	0.081	0.0952	22.6
-0.021	-0.0555	0.2505	-0.1635	22.8
-0.0975	-0.0233	0.408	-0.5641	22.9
-0.09	0.0232	0.573	-0.5543	23.1
-0.0563	0.0292	0.7057	-0.3623	23.4
-0.015	0.0232	0.807	-0.258	23.5
0.0292	0.009	0.8572	-0.0863	23.6
0.0045	-0.0038	0.873	-0.048	23.5
0.0112	-0.0068	0.8572	0.0322	23.9
0.015	-0.0128	0.8415	0.1155	23.8
0.006	-0.0128	0.8565	0.0405	23.8
0.018	0.003	0.8385	-0.0225	23.8
0.012	0.0232	0.789	0.0082	23.6
0.0315	0.0307	0.6757	0.057	23.7
0.039	0.0412	0.4912	0.0345	23.5
0.0292	0.042	0.3412	0.039	23.6
0.0052	0.027	0.2707	0.0457	23.5
-0.0465	0.0067	0.225	0.0712	23.8
-0.093	-0.0105	0.1537	0.0855	23.8
-0.114	-0.0128	0.057	0.0802	23.8
-0.114	-0.0181	-0.0975	0.045	23.8
-0.135	-0.0256	-0.246	-0.027	23.9
-0.162	-0.027	-0.3458	0.0307	24
-0.1553	-0.0233	-0.4305	0.0825	24.1
-0.1328	-0.0165	-0.5475	0.075	23.8
-0.1343	-0.0098	-0.6825	0.036	23.5
-0.1328	-0.0008	-0.7343	0.009	24
-0.1043	0.003	-0.7508	-0.0135	24.9
-0.0915	0.0052	-0.7785	-0.0968	23.5
-0.0743	0.0045	-0.7958	-0.0465	23.3
-0.0533	0.0015	-0.8325	-0.0083	23.5
-0.06	-0.0015	-0.8625	-0.021	23.4
-0.0548	-0.006	-0.861	0.027	23.5
-0.0375	-0.003	-0.8288	0.0105	23.2
-0.0158	-0.0008	-0.7598	0.0007	23.3
0.0277	-0.0083	-0.6893	0.0007	23
0.0705	-0.0113	-0.6376	-0.0023	22.9
0.1132	-0.012	-0.6098	0.0022	22.8
0.1672	-0.012	-0.6158	-0.0053	22.7
0.219	-0.0068	-0.6465	0.0292	22.7
0.2632	-0.003	-0.6593	0.0502	22.6
0.2895	0.0007	-0.642	0.0007	22.5
0.3007	0.0015	-0.6203	-0.024	22.6
0.3217	0.0007	-0.5865	0.0015	22.5
0.3442	-0.0015	-0.5445	-0.003	22.5
0.339	0.0007	-0.474	0.0067	22.5
0.3307	0.0082	-0.4036	-0.0046	22.5
0.3345	0.009	-0.3488	0.0037	22.7
0.3127	0.0022	-0.2993	0.033	22.5
0.2692	-0.0046	-0.24	-0.0368	22.7
0.2212	-0.0128	-0.1875	-0.09	22.5
0.165	-0.0188	-0.1545	-0.0675	22.5
0.1027	-0.0128	-0.1103	0.0105	22.6
0.0382	-0.0008	-0.0803	0.0502	22.5
-0.0195	0.0022	-0.0465	0.081	22.4
-0.0706	0.0007	-0.0233	0.105	22.5
-0.1095	0.0015	-0.0135	0.0547	22.4
-0.1253	0.0037	0	0.0517	22.5
-0.1358	0.0037	0.0195	-0.039	22.3
-0.1448	0.0007	0.0585	-0.111	22.5
-0.1515	0.0105	0.1005	-0.0578	22.2
-0.1508	0.0157	0.1297	-0.0945	22.4
-0.1396	0.003	0.1522	-0.1148	22.2
-0.105	0.0015	0.186	-0.108	22.4
-0.0518	0.0015	0.2167	-0.0518	22.4
-0.0135	-0.0143	0.2497	0.0652	22.1
0.009	-0.0165	0.2812	0.099	22.4
0.0277	-0.012	0.3082	0.0772	22.3
0.0382	-0.0105	0.3352	0.0277	22
0.0382	-0.0083	0.3517	0.0127	22.2
0.033	-0.0105	0.369	-0.003	22
0.0307	-0.0068	0.3892	-0.03	22.1
0.0225	-0.0046	0.405	0.0015	21.9
0.003	-0.0015	0.414	-0.003	22
-0.0233	-0.0008	0.4365	-0.0075	22
-0.039	0.003	0.459	0.0112	21.8
-0.042	0.0082	0.453	0.0037	21.9
-0.0465	0.0105	0.4177	0.0142	21.6
-0.0548	0.0142	0.3675	0.0502	21.8
-0.0691	0.009	0.3262	0.0532	21.6
-0.0893	0.0052	0.2955	0.0255	21.6
-0.1088	0.0022	0.2745	0.0052	21.5
-0.135	-0.003	0.2587	-0.0518	21.3
-0.1575	0.0022	0.2377	-0.1328	21.3
-0.1748	0.0105	0.2085	-0.09	21.2
-0.1883	0.0142	0.186	0.0405	21.3
-0.1958	0.0105	0.1657	0.0337	21.4
-0.1988	0.006	0.132	-0.0128	21.3
-0.1935	0.0037	0.1012	0.0015	21.4
-0.1815	0	0.0705	-0.0068	21.2
-0.165	-0.0053	0.0435	0.045	21.2
-0.1485	-0.0105	0.0172	0.0817	21.2
-0.1388	-0.0105	-0.0098	0.045	21.2
-0.1365	-0.0075	-0.0293	0.0532	21.4
-0.129	-0.0068	-0.0428	0.051	21.1
-0.1095	-0.0023	-0.0495	-0.0473	21.3
-0.0953	0.0022	-0.0533	-0.0825	21.2
-0.0765	-0.0008	-0.0518	-0.0181	21.3
-0.0465	-0.0046	-0.0458	-0.0203	21.2
-0.0248	-0.0015	-0.0361	-0.0368	21.1
-0.0008	0.003	-0.0233	-0.0143	21.2
0.0405	0.0052	-0.0083	0.0195	21.3
0.0802	0.0052	0.009	0.0307	21
0.108	0.0037	0.0255	0.0082	21.1
0.1185	0.0067	0.045	-0.0293	20.8
0.1245	0.0067	0.0645	-0.0563	21
0.1327	0.003	0.0825	-0.0203	20.8
0.135	-0.0008	0.099	-0.0046	20.8
0.141	-0.0038	0.1155	-0.0173	21
0.1447	-0.0046	0.1335	-0.006	20.7
0.147	-0.0128	0.1485	0.012	20.7
0.153	-0.0158	0.1612	0.0277	20.6
0.156	-0.0128	0.171	0.0195	20.7
0.1477	-0.0143	0.174	0.03	20.6
0.1275	-0.0128	0.1732	0.0345	20.5
0.1087	-0.0075	0.1672	0.024	20.6
0.099	-0.0053	0.1575	0.051	20.4
0.0937	-0.0068	0.144	0.0292	20.4
0.0862	-0.0038	0.1252	-0.0375	20.6
0.072	-0.0015	0.099	-0.0428	20.4
0.0607	0.003	0.072	-0.0135	20.5
0.0517	0.0052	0.0502	-0.0308	20.3
0.0352	0.0015	0.0322	-0.0203	20.5
0.0315	-0.0008	0.009	-0.0038	20.3
0.0367	-0.0015	-0.0098	0.009	20.4
0.0285	0	-0.027	0.0285	20.4
0.0277	0.0052	-0.0503	0.018	20.2
0.0292	0.0105	-0.0795	0.0255	20.4
0.0225	0.0112	-0.1058	0.0015	20.3
0.0232	0.012	-0.1298	-0.0465	20.2
0.024	0.009	-0.1478	-0.0263	20
0.0255	0.0007	-0.1598	0.0997	20.2
0.024	-0.0105	-0.1748	0.1425	20.2
0.0165	-0.0225	-0.18	0.0315	20
0.0037	-0.0165	-0.186	-0.0578	20.1
-0.0195	0.0007	-0.1958	-0.0795	20.1
-0.0368	0.009	-0.195	-0.0908	19.6
-0.048	0.009	-0.192	-0.1088	19.8
-0.0593	0.0045	-0.1823	-0.0473	19.8
-0.0728	-0.0046	-0.1718	-0.03	19.9
-0.0818	-0.0075	-0.1598	0.009	19.8
-0.0825	-0.0083	-0.1441	0.0405	19.8
-0.0871	-0.0038	-0.1275	-0.0083	19.8
-0.0871	-0.0015	-0.1065	0.039	19.8
-0.0885	-0.0008	-0.0848	0.0232	19.9
-0.0863	-0.0015	-0.0668	0.0292	19.8
-0.0863	-0.0053	-0.0511	0.0345	19.8
-0.09	-0.0038	-0.0346	0.003	19.8
-0.084	-0.0015	-0.0158	0.006	19.8
-0.0863	0.0015	-0.0008	-0.0488	19.8
-0.0923	-0.0015	0.015	-0.0361	19.8
-0.09	-0.0038	0.0285	-0.0346	19.5
-0.084	-0.003	0.0405	-0.0256	19.7
-0.0795	-0.0038	0.0547	-0.0105	19.5
-0.078	-0.0015	0.0675	-0.0038	19.7
-0.0743	-0.0015	0.0772	0.0577	19.4
-0.0721	0.0045	0.084	0.039	19.6
-0.0668	0.012	0.0862	0.0022	19.4
-0.0563	0.0097	0.0885	0.0195	19.3
-0.0465	0.0052	0.0892	0.0232	19.3
-0.0383	0.0007	0.0877	0.0307	19
-0.0285	-0.0046	0.0825	0.0532	19.3
-0.0203	-0.0053	0.0772	0.0465	19.1
-0.0053	-0.0046	0.0712	0.0382	19
0.0075	-0.0053	0.06	0.015	19
0.018	0	0.0502	-0.0638	18.9
0.03	0.006	0.0382	-0.099	18.8
0.039	0.0082	0.021	-0.054	18.7
0.0427	0.0045	0.006	-0.039	18.8
0.039	-0.0015	-0.006	-0.0436	18.6
0.0352	-0.0053	-0.0143	-0.0308	18.4
0.0307	-0.0068	-0.0195	-0.0691	18.4
0.0277	-0.0046	-0.021	-0.0405	18.3
0.0195	-0.0053	-0.0278	0.0285	18.4
0.0142	-0.0053	-0.0361	0.0465	18.3
0.015	-0.0053	-0.0428	0.0855	18
0.012	-0.0038	-0.0503	0.0975	18.2
0.0142	-0.0015	-0.0548	0.0735	18
0.0225	-0.0015	-0.057	0.009	18.1
0.0307	-0.0015	-0.0615	-0.0375	17.9
0.0427	0	-0.0691	-0.0105	17.7
0.054	0.003	-0.078	-0.0098	17.8
0.0502	-0.0008	-0.0848	-0.0023	17.5
0.0427	-0.0015	-0.0863	-0.0015	17.6
0.036	-0.0008	-0.081	-0.0053	17.6
0.0292	-0.003	-0.0735	0.0007	17.3
0.0142	-0.0023	-0.0615	-0.0068	17.4
-0.003	-0.003	-0.0503	0	17.1
-0.0053	-0.0015	-0.0383	-0.003	17.4
-0.0158	0.0007	-0.0233	-0.0038	17.2
-0.012	-0.0008	-0.0128	-0.0053	17.2
0.0007	0.0015	-0.0008	-0.0075	17.2
0.0007	0.0015	0.0067	-0.0053	16.9
0.0075	0.0015	0.009	-0.0091	17
0.0105	0.0037	0.012	-0.012	17
0.0135	0.006	0.0127	-0.0068	17
0.0142	0.0052	0.0187	0.003	16.9
0.009	0.0022	0.027	0.0015	16.8
-0.0015	-0.0008	0.0277	0.0202	16.9
-0.0195	-0.0098	0.0307	0.039	16.4
-0.0278	-0.0113	0.0307	0.003	16.5
-0.0278	-0.0053	0.0315	-0.0285	16.5
-0.0218	0.0007	0.0345	-0.0225	16.4
-0.0128	0.003	0.0322	-0.0068	16.5
-0.0046	-0.0008	0.0315	0.0082	16.2
0.0045	-0.003	0.0322	0.0052	16.3
0.0105	-0.003	0.0337	0.006	16.2
0.0202	0.0007	0.0337	-0.0015	16
0.027	0.003	0.0345	-0.012	16
0.0315	0.003	0.0307	-0.0083	15.8
0.0322	-0.0008	0.0225	-0.0068	15.9
0.0315	-0.0008	0.018	-0.003	15.8
0.0345	-0.0015	0.012	-0.003	15.7
0.0337	-0.0008	0.0067	0.003	15.7
0.0352	-0.0008	0	0.0075	15.6
0.0345	-0.0008	-0.0038	0.0105	15.7
0.0345	0	-0.0053	0.0082	15.3
0.0345	-0.0015	-0.0068	-0.0091	15.2
0.0292	-0.0008	-0.0091	-0.0143	15.3
0.0255	-0.0008	-0.0128	0.0045	15.2
0.021	0.0007	-0.0188	0.0015	15.3
0.012	0.0007	-0.0233	-0.0098	14.8
0	-0.0008	-0.0218	-0.0046	15.1
-0.0068	0.0007	-0.021	-0.0053	14.8
-0.0098	0.0022	-0.0203	-0.0015	14.7
-0.0113	0.0015	-0.0181	-0.0015	14.8
-0.0158	0.0015	-0.0203	-0.0023	14.4
-0.0173	-0.0008	-0.0225	-0.0023	14.6
-0.0173	-0.0015	-0.0233	-0.012	14.4
-0.0195	0.003	-0.0218	-0.015	14.2
-0.0195	0.0037	-0.021	-0.0135	14.4
-0.0225	0.0045	-0.0195	-0.0046	14
-0.0256	0.0045	-0.0135	0.0262	14.2
-0.0256	0	-0.0083	0.0577	13.9
-0.0256	0.0015	-0.0068	0.0382	13.9
-0.024	0.003	-0.0053	0.0127	13.9
-0.0248	0.0007	-0.0046	0.0052	13.6
-0.0248	0	-0.0053	-0.0091	13.9
-0.0233	0.0007	-0.0068	-0.0158	13.5
-0.024	-0.0008	-0.0083	-0.0225	13.5
-0.0383	-0.003	-0.0068	-0.0046	13.3
-0.0503	-0.0046	-0.0083	0.0142	13.4
-0.0525	-0.0023	-0.0068	0.0075	13.3
-0.0488	0.0015	-0.0053	0.0217	13.3
-0.0405	0.0007	-0.0046	0.0457	13.1
-0.0368	-0.0008	-0.003	0.0045	13
-0.0315	-0.0008	-0.0015	-0.0105	12.8
-0.0248	-0.0008	-0.0008	0.0165	12.9
-0.0128	-0.003	0.0015	-0.0165	12.6
-0.0023	-0.0046	0.0015	-0.0165	12.7
0.003	-0.003	0.0007	0.0037	12.5
0.0067	-0.0053	0.0022	-0.0083	12.4
0.009	-0.003	0.0015	-0.0195	12.5
0.0157	-0.0023	0.0007	-0.003	12.2
0.0202	-0.0038	-0.0008	0.0195	12.4
0.0172	-0.0053	0.0045	0.0082	12
0.0187	-0.0046	0.018	0.0082	12.1
0.0285	-0.0008	0.012	0.0007	12
0.039	0.0045	0.0112	-0.0278	11.9
0.048	0.006	0.0217	-0.0713	11.6
0.051	0.003	0.0195	-0.0668	11.6
0.0472	0.0007	0.018	-0.0038	11.6
0.039	-0.0015	0.0127	-0.0015	11.6
0.0352	-0.0053	0.0127	0.0052	11.5
0.0405	-0.006	0.0142	0.0165	11.5
0.0442	-0.003	0.0127	0.0052	11.2
0.0427	-0.0015	0.0097	0.0157	11.5
0.039	-0.0038	-0.0015	0.009	11.1
0.0307	-0.0046	-0.0181	0.006	11.2
0.0232	-0.0046	-0.033	-0.0015	11.2
0.0255	-0.0038	-0.0338	0.0052	10.9
0.021	-0.0038	-0.0315	0.0075	10.8
0.0075	-0.0015	-0.024	-0.0008	10.7
0.0045	-0.0015	-0.0203	0.0052	10.7
0.0127	-0.0008	-0.0158	-0.0008	10.6
0.0142	-0.0008	-0.0098	0.003	10.7
0.015	-0.0046	-0.0135	0.006	10.6
0.027	-0.0008	-0.0173	0.0045	10.5
0.0292	0.0015	-0.0173	0.0052	10.4
0.0232	0.0015	-0.0158	0.0037	10.4
0.0105	0.0007	-0.0091	0.0045	10.3
-0.003	0	-0.0008	0.003	10.5
-0.0173	0.0022	0.0052	0.0022	10.2
-0.0405	0.003	0.0052	0	10.4
-0.0555	0.0022	0.0045	0.0015	10.2
-0.054	-0.0015	0.0007	0.0015	10.3
-0.0383	-0.0015	-0.003	-0.0015	10.1
-0.0315	-0.0015	-0.0091	-0.0008	10
-0.027	-0.0023	-0.015	-0.0015	10.2
-0.0181	-0.003	-0.0165	0.0007	9.8
-0.0098	-0.003	-0.0158	0.0007	10.1
-0.0046	-0.0008	-0.0128	-0.0015	9.9
-0.012	0.0007	-0.0075	-0.0008	9.9
0.0067	-0.0015	-0.0015	-0.0023	9.9
0.039	-0.0008	-0.0015	-0.0015	9.9
0.045	0.0007	-0.0083	-0.003	9.6
0.051	-0.0015	-0.015	-0.003	9.8
0.0352	0	-0.0181	-0.003	9.5
0.0082	-0.0008	-0.0233	-0.0053	9.7
0.0247	-0.0008	-0.0278	-0.0046	9.6
0.0502	-0.0008	-0.033	-0.0046	9.5
0.0202	-0.0015	-0.0375	-0.0053	9.6
0.0082	0	-0.0368	-0.0046	9.5
0.0262	0.0015	-0.0353	-0.0015	9.5
0.0195	0.0015	-0.0361	0.0067	9.3
-0.0105	0.0015	-0.0346	0.0097	9.6
-0.0256	0.0007	-0.0315	0.0045	9.4
-0.0428	-0.0053	-0.0315	0.0135	9.6
-0.075	-0.0091	-0.0315	-0.0008	9.4
-0.0825	-0.003	-0.0293	-0.0315	9.4
-0.0938	0	-0.0293	-0.0128	9.5
-0.093	-0.0008	-0.0285	0.0007	9.3
-0.0675	0.0015	-0.0293	-0.0053	9.4
-0.0113	-0.0008	-0.0315	0.0022	9.3
-0.0495	-0.0015	-0.0315	-0.0038	9.2
-0.1628	-0.0038	-0.0315	0.0015	9.4
-0.0443	-0.0015	-0.0308	0.0007	9.1
-0.024	-0.0008	-0.0218	-0.0008	9.1
-0.1275	0.0007	-0.003	0.003	9
-0.0293	0.0015	0.0142	-0.0015	9.2
0.1297	-0.0015	0.024	0.0015	9.3
0.327	-0.0038	0.0232	-0.0008	9.2
0.408	-0.003	0.0105	0.0007	9.4
0.3397	-0.003	-0.0181	-0.0008	9
0.2197	-0.0046	-0.0578	-0.0015	9
0.0765	-0.003	-0.105	0.003	9.1
-0.054	-0.0015	-0.1441	0.0015	9.1
-0.1523	-0.0015	-0.1583	0.0007	9
-0.2265	-0.0015	-0.1448	-0.0015	9
-0.2821	-0.0015	-0.114	-0.0038	9.1
-0.2798	-0.0015	-0.0721	-0.003	9
-0.2685	0.003	-0.0293	-0.0008	9
-0.2708	0.0037	0.0127	0.0007	9.1
-0.2783	-0.0008	0.054	0.0007	9
-0.2745	-0.0023	0.0885	-0.0008	9.1
-0.2693	-0.0008	0.1245	0.0007	8.8
-0.2558	0.003	0.159	0.003	9
-0.2175	0.0052	0.1942	0	9
-0.159	0.003	0.2205	-0.0023	8.9
-0.075	0.0015	0.2272	-0.003	8.9
-0.0098	-0.0008	0.2392	-0.0015	8.9
0.0427	-0.003	0.2505	-0.0023	8.9
0.0862	0.0007	0.2505	-0.0008	8.8
0.1177	0.0007	0.2467	0.0037	8.7
0.1492	-0.0008	0.2325	0.0037	9
0.1642	-0.0015	0.204	0.003	8.6
0.1695	0.0007	0.1657	0.0015	8.7
0.1732	0.0015	0.1185	0.0015	8.8
0.1822	-0.0023	0.0945	0	8.7
0.2025	-0.003	0.1807	-0.0008	8.8
0.2265	-0.0015	0.3795	0.0037	8.5
0.237	0.0015	0.5415	0.0067	8.7
0.2445	0.0015	0.6322	0.0075	8.7
0.246	0.003	0.6765	0.0067	8.6
0.2355	0.0052	0.6352	0.0045	8.6
0.2175	0.0052	0.516	0.0052	8.7
0.189	0.0045	0.3562	0.0045	8.5
0.1627	0.0015	0.1762	0.003	8.6
0.1297	0.0007	-0.0398	0.0022	8.4
0.087	-0.0015	-0.2678	0.0007	8.7
0.0592	-0.003	-0.4905	-0.0008	8.4
0.0855	-0.003	-0.714	-0.0038	8.7
0.1635	-0.0023	-0.9113	-0.0046	8.5
0.192	-0.003	-1.0658	-0.0053	8.5
0.1515	-0.0038	-1.1866	-0.0046	8.6
0.123	-0.0023	-1.2653	-0.0046	8.5
0.0832	-0.003	-1.2765	-0.003	8.7
0.042	-0.0015	-1.2518	-0.0008	8.4
0.0157	-0.0038	-1.1843	-0.0015	8.8
-0.0143	-0.0046	-1.0605	-0.0015	8.5
-0.0256	-0.0053	-0.8753	-0.0015	8.6
-0.0346	-0.003	-0.6383	-0.0015	8.5
-0.0353	0.0052	-0.375	0.0015	8.7
-0.0338	0.006	-0.099	0.0022	8.5
-0.0368	0.0007	0.1402	0.003	8.6
-0.0465	0.0015	0.3607	0.0045	8.5
-0.0623	0.003	0.5475	0.0037	8.6
-0.0645	0.0007	0.6975	0.003	8.6
-0.0698	0.0007	0.831	0.0045	8.7
-0.0706	-0.0015	0.8992	0.003	8.5
-0.0615	-0.0008	0.9405	0.003	8.5
-0.054	0	0.9877	0.0052	8.6
-0.042	0.0007	0.9952	0.0067	8.4
-0.0293	0.003	0.9772	0.0052	8.7
-0.033	0.0007	0.9405	0.0045	8.3
-0.0488	-0.0008	0.8782	0.0037	8.5
-0.045	0.0015	0.8025	0.0015	8.5
-0.012	0.0007	0.714	0	8.4
0.0352	-0.0008	0.618	0.0015	8.6
0.051	0	0.5175	-0.0008	8.5
0.0217	0	0.414	0	8.5
-0.0323	0	0.3217	0.0015	8.6
-0.0953	0.0015	0.2422	-0.0008	8.4
-0.1523	0.0015	0.171	0.0015	8.6
-0.2085	0	0.108	0.0015	8.4
-0.2475	0	0.0517	0	8.6
-0.2948	0	0.0007	0.0007	8.4
-0.4081	0.0015	-0.039	0.0015	8.6
-0.5798	0.0007	-0.0668	0.0015	8.5
-0.735	0.0007	-0.0863	-0.0008	8.4
-0.7516	0	-0.1043	-0.0023	8.7
-0.5873	-0.0023	-0.1208	-0.0053	8.5
-0.3233	-0.0015	-0.1441	-0.0091	8.7
-0.0068	0.0007	-0.1658	-0.0075	8.6
0.2812	0.0007	-0.1853	-0.0053	8.7
0.453	-0.0008	-0.1988	-0.0038	8.7
0.537	0	-0.1973	-0.003	8.8
0.543	-0.0015	-0.1898	-0.003	8.9
0.5197	-0.0008	-0.1763	-0.0015	8.7
0.486	-0.0015	-0.1703	-0.0008	8.8
0.4312	-0.0008	-0.1748	0.0007	8.8
0.3795	-0.0008	-0.1808	0.0037	8.6
0.3157	-0.0008	-0.1793	0.0045	9
0.237	0.0007	-0.1726	0.0045	9
0.1627	-0.0008	-0.1598	0.0052	8.9
0.1072	-0.0015	-0.1515	0.0045	9
0.078	-0.0046	-0.1441	0.0022	8.9
0.0735	-0.0068	-0.1335	0.0007	9.1
0.0727	-0.0038	-0.1253	0.0015	9
0.0592	-0.0008	-0.117	0.0015	9.1
0.0322	0.0015	-0.1103	0	9.1
-0.0173	0.0015	-0.105	-0.0053	9.3
-0.084	0.0015	-0.1013	-0.0105	9.2
-0.1515	-0.0015	-0.1013	-0.012	9
-0.1913	-0.0008	-0.1028	-0.0091	9.4
-0.219	0.0007	-0.1088	-0.0068	9.3
-0.2453	-0.0038	-0.1178	-0.0075	9.5
-0.261	-0.0075	-0.1275	-0.0046	9.5
-0.2745	-0.006	-0.1403	-0.0008	9.5
-0.2783	-0.003	-0.1523	0.0022	9.6
-0.2708	-0.0015	-0.165	0.0022	9.5
-0.2595	0.0015	-0.1808	0.0007	9.6
-0.2678	-0.0008	-0.195	0.0015	9.8
-0.2618	-0.0015	-0.21	0.0007	9.7
-0.1988	0.0007	-0.222	0.0007	9.9
-0.108	0	-0.2265	-0.0008	10
-0.0256	-0.0008	-0.2318	-0.0023	10.1
0.0337	-0.0015	-0.234	-0.003	10
0.0675	-0.0008	-0.237	-0.0046	10
0.0877	-0.0008	-0.231	-0.003	10.2
0.1147	0.0022	-0.2183	-0.0046	10.1
0.1342	-0.0015	-0.207	-0.003	10.4
0.1387	0.0007	-0.1913	-0.003	10.3
0.1485	0.0052	-0.1778	-0.0023	10.6
0.153	0.0015	-0.165	-0.0015	10.7
0.144	0.0015	-0.1426	0.0015	10.7
0.1245	0.0007	-0.1185	0.003	11.2
0.0825	0	-0.0975	-0.0008	10.7
0.0555	0	-0.0713	-0.0015	11
0.0555	0.0007	-0.0488	-0.0008	11.1
0.0517	-0.0008	-0.0278	-0.0015	11.2
0.0457	-0.0008	-0.0053	-0.0015	11.3
0.0427	-0.0008	0.0105	-0.0008	11.5
0.0382	-0.003	0.0202	-0.0015	11.4
0.042	-0.0023	0.027	0.0007	11.7
0.042	-0.0023	0.039	0.0015	11.8
0.036	0	0.06	-0.0008	11.9
0.0285	-0.0008	0.0862	-0.0015	12
0.0195	-0.0046	0.114	-0.003	12.2
0.0135	-0.0068	0.1275	-0.0015	12.4
0.0112	-0.0068	0.1365	0.0015	12.3
0.0037	-0.0046	0.141	0.0015	12.6
0	-0.003	0.1425	0	12.6
0.0052	0.0015	0.1312	0.0015	12.9
0.012	0.0045	0.1162	0.0037	13
0.015	-0.0008	0.0967	0.0007	13
0.0195	-0.0015	0.0727	0.0007	13.1
0.0307	-0.0008	0.0727	0.0022	13.2
0.0375	-0.0008	0.09	0.0015	13.4
0.0412	-0.0008	0.1042	-0.0015	13.6
0.042	-0.0046	0.1065	-0.0038	13.9
0.0375	-0.0053	0.1057	-0.0046	14
0.0345	-0.0068	0.099	-0.0046	13.9
0.0217	-0.0046	0.0802	-0.003	14.1
0.012	-0.0023	0.0637	-0.0023	14.1
0.0052	-0.003	0.0592	-0.003	14.7
0.0037	-0.0038	0.0615	-0.0053	14.7
0.0015	-0.0015	0.066	-0.0038	14.7
-0.0083	0.0007	0.069	-0.0046	15
-0.0135	-0.003	0.0675	-0.0053	14.9
-0.0173	-0.003	0.0675	-0.006	15.2
-0.0165	-0.0023	0.0652	-0.0075	15.3
-0.0195	-0.0015	0.0532	-0.0053	15.5
-0.0203	0.0007	0.0375	-0.0053	15.7
-0.0225	0.0015	0.0232	-0.0046	15.9
-0.0278	0.0045	0.0105	-0.003	16
-0.0308	0.0037	0.0022	-0.003	16.2
-0.0323	0.0045	-0.0046	-0.0008	16.2
-0.0315	0.0037	-0.0083	-0.0023	16.5
-0.027	0.0007	-0.0105	-0.003	16.5
-0.0225	0	-0.0173	-0.003	16.8
-0.0233	-0.0015	-0.021	-0.0023	16.7
-0.0278	0.0007	-0.024	-0.003	17
-0.0323	0.0015	-0.0248	-0.0023	17.1
-0.0323	0.0015	-0.0203	0.0007	17.5
-0.0256	0	-0.0233	-0.0008	17.5
-0.0165	-0.0008	-0.0285	-0.0023	17.7
-0.0038	-0.0015	-0.0293	-0.0015	17.9
0.009	-0.003	-0.0256	-0.003	17.8
0.0232	-0.0015	-0.0188	-0.003	18.1
0.0352	-0.003	-0.0068	-0.003	18.3
0.0412	-0.0008	0.006	-0.0015	18.4
0.048	-0.0008	0.0232	-0.0015	18.6
0.0487	-0.0015	0.0202	-0.0023	18.8
0.0465	-0.0008	-0.0308	-0.0015	18.9
0.0412	0	-0.1245	-0.0015	19.3
0.033	-0.0008	-0.2258	-0.003	19.3
0.0247	-0.0015	-0.2873	-0.003	19.6
0.0157	0.0007	-0.309	0	19.6
0.0097	-0.0008	-0.3128	-0.0008	20
0.0045	-0.0008	-0.3083	-0.0038	20.2
-0.0023	-0.0008	-0.3158	-0.0046	20.2
-0.0083	0	-0.3353	-0.0046	20.7
-0.0165	0.0022	-0.3451	-0.0068	21
-0.0285	0.0015	-0.3488	-0.0083	21.1
-0.0383	0.0007	-0.3481	-0.0068	21.3
-0.0495	0	-0.3203	-0.0053	21.6
-0.0638	0.0007	-0.258	-0.0015	21.8
-0.0765	0.0007	-0.1568	0	22.3
-0.084	0.003	-0.0398	0.0015	22.5
-0.0856	0.003	0.0765	0.0037	22.7
-0.078	0.0007	0.1875	0.0052	22.9
-0.0668	-0.0015	0.2842	0.0052	23.5
-0.0533	-0.003	0.366	0.0045	23.4
-0.0398	0	0.4297	0.0045	24
-0.0248	-0.0008	0.4927	0.0022	24
-0.006	-0.0015	0.555	0.003	24.4
0.0165	-0.0008	0.606	0.0075	24.5
0.039	-0.0008	0.6397	0.0067	25
0.063	-0.0015	0.6472	0.0045	25.2
0.0847	-0.0008	0.6292	0.0045	25.3
0.099	-0.003	0.5872	0.0037	25.8
0.1027	-0.003	0.5317	-0.0008	26
0.1065	-0.0008	0.468	-0.0015	26.1
0.1065	-0.0008	0.3937	-0.0015	26.3
0.0997	-0.0015	0.3142	-0.0015	26.7
0.093	-0.0008	0.2347	0.0007	27
0.0832	-0.0008	0.1582	0	27.5
0.0705	0.0007	0.0877	0.0007	27.4
0.0555	0.0015	0.0255	0.003	28
0.0427	0.0015	-0.0285	0.003	28.1
0.0277	-0.0008	-0.0721	0.0037	28.4
0.015	-0.0008	-0.1065	0.0022	28.8
0.003	-0.0015	-0.1178	0.0022	29
-0.0143	-0.0046	-0.0908	0.0022	29.5
-0.0263	-0.0053	-0.0338	0.0007	29.6
-0.0368	-0.0053	0.0495	0.0015	30.1
-0.0503	-0.0038	0.1387	0.0007	30.2
-0.0608	-0.0053	0.2032	0.0037	30.6
-0.066	-0.0038	0.231	0.0045	31.1
-0.063	-0.0008	0.216	0.0045	31.2
-0.0585	0	0.18	0.0052	31.8
-0.0533	-0.0008	0.1305	0.003	31.9
-0.0473	-0.0023	0.0577	0.0022	32.2
-0.0458	-0.0015	0.003	0.0007	32.7
-0.0443	-0.003	-0.0315	-0.0008	32.8
-0.045	-0.003	-0.0653	0.0015	33.2
-0.0458	-0.0015	-0.0975	0.0015	33.6
-0.0428	-0.0008	-0.1335	0.0015	33.8
-0.042	0	-0.1748	0.003	34
-0.0405	0	-0.225	0.0022	34.3
-0.0353	-0.003	-0.2603	0.0022	34.8
-0.0323	-0.003	-0.2821	0.0015	35
-0.0285	-0.003	-0.303	0.003	35.4
-0.0308	-0.0053	-0.3195	0.0045	35.6
-0.0338	-0.0046	-0.3315	0.0022	36
-0.0308	-0.0015	-0.3458	0.0022	36.4
-0.0233	0.0015	-0.3555	0.0052	36.6
-0.0173	-0.0008	-0.3518	0.0037	36.9
-0.0098	-0.0008	-0.3473	0.0022	37.1
0.0007	0.0007	-0.3353	0.0022	37.5
0.0082	0.0007	-0.3255	0.003	37.9
0.0127	0	-0.3128	0.0045	37.8
0.018	-0.0015	-0.2955	0.003	38.3
0.0172	-0.0008	-0.2783	0.0007	38.4
0.0157	0.0007	-0.2543	-0.0008	38.9
0.0142	0.0015	-0.2295	0	39.1
0.012	0.0007	-0.2033	0.0015	39.2
0.009	0.0007	-0.18	0.0015	39.6
0.0052	0.003	-0.1605	0.0007	39.8
0.003	0.0015	-0.1403	0.0007	40
0.0015	0.0007	-0.1193	0.0015	40.3
-0.003	0.0007	-0.1006	0.0015	40.5
-0.006	0.0022	-0.084	0.0007	40.9
-0.0046	0.0015	-0.0698	-0.0008	41.1
-0.003	-0.0015	-0.06	0.0022	41.4
-0.0046	-0.0015	-0.0503	0.003	41.6
-0.0015	-0.0015	-0.045	0.0015	41.8
0.0037	0.0007	-0.0405	0.0007	42.2
0.0067	0.0015	-0.0368	0	42.2
0.0097	0.0015	-0.0353	0	42.7
0.0142	0.003	-0.0353	-0.0008	42.8
0.0202	0.0045	-0.039	-0.0008	43.3
0.0292	0.0037	-0.048	-0.0008	43.5
0.0352	0.0045	-0.0593	0.0007	43.5
0.0405	0.003	-0.0743	0	43.8
0.042	-0.0008	-0.0878	-0.0008	44
0.0427	-0.0008	-0.099	0	44.2
0.0442	-0.0015	-0.1043	-0.0015	44.5
0.0352	0.0007	-0.1028	-0.0008	44.6
-0.0053	0.0007	-0.1095	-0.0008	45
-0.0668	0.0007	-0.1118	0.0015	45.2
-0.099	0.0022	-0.108	0	45.5
-0.1133	0.0022	-0.1118	-0.0023	45.8
-0.1118	0.0045	-0.1065	-0.0023	46.1
-0.0953	0.0015	-0.0893	-0.0015	46.3
-0.084	0.0015	-0.0668	-0.0023	46.5
-0.0668	0.0015	-0.0353	-0.003	47
-0.0488	0.0007	0.0037	-0.0023	47.2
-0.0278	-0.0008	0.0442	-0.0015	47.5
-0.0091	-0.003	0.0877	0.0007	47.8
0.012	-0.003	0.1297	0.0015	48.1
0.0382	-0.0015	0.1717	0.0022	48.2
0.0562	-0.0008	0.21	0.0022	48.6
0.066	-0.0038	0.2467	0.0007	48.8
0.0712	-0.0068	0.2842	0.0007	49.2
0.0735	-0.0053	0.321	-0.0008	49.1
0.0675	-0.003	0.3562	0.0007	49.7
0.057	-0.0015	0.3862	0.0015	49.9
0.0457	-0.003	0.4125	-0.0015	50
0.033	-0.003	0.438	0	50.4
0.0202	-0.003	0.456	-0.0008	50.5
0.0105	-0.0053	0.4717	0	51
-0.0008	-0.0038	0.4822	-0.0008	51.2
-0.0165	-0.0015	0.4852	-0.0008	51.6
-0.0405	-0.0008	0.477	0	51.4
-0.0818	0.0015	0.4432	0	51.9
-0.1215	0.0015	0.3975	0.0007	52
-0.1155	0.0007	0.3562	0.0007	52.4
-0.0893	-0.0023	0.327	0.003	52.6
-0.0473	-0.003	0.309	0.0022	52.8
0.0195	-0.003	0.27	0.0022	53
0.054	-0.003	0.2272	0.0007	53.2
0.0802	0.0007	0.1822	-0.0008	53.4
0.0922	0.0015	0.1335	0	53.8
0.096	0.0045	0.0937	-0.0015	53.6
0.1102	0.0052	0.057	-0.0023	54.2
0.1207	0.0022	0.0307	-0.003	54.4
0.1432	0.003	0.0052	-0.0015	54.6
0.1567	0.0045	-0.015	-0.0015	54.9
0.1642	0.0052	-0.0308	-0.003	54.8
0.1627	0.0045	-0.042	-0.0008	55.4
0.15	0.0015	-0.0473	0.0007	55.4
0.1327	0.0007	-0.054	0.0022	55.7
0.1117	0.0007	-0.0578	0.0015	56
0.0952	0.0015	-0.0615	0.0015	56.1
0.0787	0.0007	-0.06	0.0007	56.5
0.0667	-0.0008	-0.06	0	56.8
0.0532	0.0007	-0.0615	0.0015	56.8
0.039	0.0007	-0.063	0.0015	57.1
0.024	0.0007	-0.0675	0.0022	57
0.0067	-0.0008	-0.0713	0.0007	57.5
-0.0135	0	-0.078	-0.0008	57.6
-0.0278	-0.0015	-0.0878	-0.0008	58
-0.039	0	-0.1021	-0.0015	58.1
-0.054	-0.0008	-0.1163	-0.0008	58.2
-0.0668	-0.0008	-0.1328	-0.0008	58.3
-0.0788	0.0015	-0.1478	-0.0015	58.5
-0.09	0.0007	-0.1605	-0.0008	58.8
-0.0893	0.003	-0.1741	0.0022	58.6
-0.0915	0.0037	-0.186	0.0045	58.9
-0.0923	0.0037	-0.2003	0.0015	59.1
-0.0856	0.0022	-0.2108	0.0007	59.3
-0.0803	0.0022	-0.2243	-0.0008	59.3
-0.0743	0.0045	-0.2393	-0.0008	59.6
-0.0691	0.0052	-0.2483	-0.0008	59.6
-0.0623	0.0037	-0.2528	-0.0008	59.9
-0.0555	0.0015	-0.2558	0.0007	59.8
-0.0511	0.0022	-0.2595	-0.0008	60.3
-0.0473	0	-0.2558	0.0007	60.2
-0.042	0.0007	-0.2438	0.0007	60.5
-0.0353	0.0007	-0.2303	-0.0015	60.3
-0.0181	0.0007	-0.2108	0	60.4
0.009	0.0007	-0.186	-0.0008	60.6
0.033	0	-0.1665	0	60.5
0.0427	-0.0008	-0.1523	0.0015	61
0.0412	-0.0015	-0.1328	0.0015	60.7
0.0337	-0.0008	-0.114	0.003	60.9
0.0255	-0.0015	-0.1013	0.0015	60.8
0.0157	-0.0015	-0.0871	-0.003	61
0.0105	-0.0015	-0.0713	-0.0015	61.2
0.0075	-0.0023	-0.057	-0.0008	61.2
0.0022	-0.0046	-0.0405	-0.0015	61.2
0.0007	-0.0046	-0.0218	-0.0008	61.3
-0.0015	-0.003	-0.0091	-0.0008	61.3
-0.0046	-0.003	0.009	-0.0008	61.5
-0.006	-0.0023	0.0322	-0.0015	61.4
-0.0091	-0.0008	0.042	-0.0008	61.5
-0.0135	-0.0015	0.0502	-0.0015	61.6
-0.0195	-0.003	0.063	-0.0023	61.5
-0.0278	-0.0038	0.0727	-0.0008	61.8
-0.0383	-0.0053	0.0825	0.0007	61.6
-0.0443	-0.0053	0.0817	-0.0008	61.8
-0.0518	-0.0015	0.078	0.0007	61.7
-0.0578	-0.0008	0.0787	0.0007	61.7
-0.0683	-0.0008	0.0847	-0.0008	61.9
-0.0735	-0.0023	0.0877	-0.0008	61.6
-0.0721	-0.003	0.0862	-0.0015	62
-0.0698	0	0.084	-0.0008	61.7
-0.0683	-0.003	0.078	-0.0015	62
-0.0668	-0.003	0.0697	-0.0008	62
-0.063	-0.003	0.0592	-0.0015	61.9
-0.0563	-0.0038	0.0525	-0.0023	62.2
-0.0436	-0.0023	0.0427	-0.0015	62
-0.033	-0.0008	0.0382	-0.0008	62.2
-0.0143	0.0007	0.0412	-0.0008	62.1
0.012	0	0.0367	0.0007	62.3
0.0232	0.003	0.0322	-0.0008	62.3
0.027	0.003	0.033	-0.0015	62.2
0.03	0.0015	0.0315	-0.0015	62.1
0.0292	-0.0008	0.027	-0.0015	62.2
0.0277	-0.0015	0.0217	-0.0015	62.1
0.0255	-0.0008	0.0127	-0.0015	62.2
0.0277	0.0007	0.0015	-0.0008	61.9
0.0255	-0.0008	-0.0046	0	62.1
0.021	-0.0023	-0.0105	-0.0008	61.9
0.0195	-0.0023	-0.0181	-0.0023	61.9
0.0195	-0.003	-0.027	-0.0053	61.7
0.018	-0.003	-0.033	-0.0068	61.7
0.015	-0.0015	-0.0315	-0.0053	62
0.012	-0.0015	-0.0405	-0.0046	61.7
0.0127	-0.0008	-0.057	-0.003	62
0.0127	-0.0015	-0.0691	-0.0015	61.6
0.0127	-0.0008	-0.0765	-0.0023	61.7
0.0157	-0.0015	-0.078	-0.0015	61.7
0.0165	-0.0008	-0.0788	-0.0023	61.7
0.0165	-0.0023	-0.0795	-0.0015	61.4
0.0157	-0.0008	-0.0773	-0.0015	61.5
0.0202	0.0007	-0.0743	0.0015	61.4
0.0232	-0.003	-0.066	0.0022	61.5
0.0202	-0.0038	-0.0555	0.003	61.3
0.0217	-0.0046	-0.0473	0.0015	61.5
0.0202	-0.0038	-0.0361	-0.0015	61.2
0.0195	0	-0.027	-0.0015	61.3
0.018	0.0022	-0.0195	-0.0046	61.5
0.018	0.003	-0.0113	-0.003	61.2
0.0157	0.0022	-0.0053	-0.0015	61.3
0.0127	0.0007	0	-0.0008	61.3
0.0165	0.0007	0.0067	-0.0008	61.3
0.0165	0.0007	0.015	-0.0015	61.1
0.0165	-0.0008	0.024	-0.0015	61.1
0.018	-0.003	0.0352	-0.0015	61
0.0202	-0.0023	0.0465	-0.0008	61
0.0195	-0.0015	0.0547	0.0007	60.9
0.0187	-0.0015	0.0585	-0.0008	61
0.0195	-0.003	0.0592	0	60.8
0.0202	-0.0046	0.0607	0.0007	61.1
0.0195	-0.0053	0.06	0.0015	60.7
0.0165	-0.0038	0.0592	-0.0008	60.8
0.0142	-0.003	0.0592	-0.0015	60.7
0.0135	-0.0008	0.057	0.0007	60.6
0.0105	0.0007	0.054	-0.0015	60.6
0.0097	-0.0008	0.0517	-0.003	60.4
0.0105	-0.0015	0.048	-0.0008	60.5
0.0105	0.0007	0.0427	0.0007	60.3
0.012	0.0007	0.0382	0.0007	60.3
0.012	-0.0008	0.033	-0.0008	60.2
0.0105	-0.0008	0.0285	-0.0015	60.3
0.0105	-0.0008	0.0232	-0.0008	60.1
0.0075	-0.003	0.0195	0	59.9
0.0052	-0.0023	0.0165	0.0015	59.9
0.0052	-0.003	0.012	0.0007	59.8
0.0067	-0.0038	0.0112	0.0007	59.7
0.0075	-0.0038	0.0082	0.0037	59.6
0.0067	-0.003	0.0037	0.003	59.4
0.0045	-0.003	0.003	0.003	59.2
0.0022	-0.003	0.0007	0	59.2
0.003	-0.0015	-0.0015	-0.0008	59.1
0.0015	0	-0.003	0.0007	59.1
0.0015	0.0015	-0.0046	0.0015	58.7
0.003	0.003	-0.006	0.0022	58.7
0.003	0.0022	-0.0075	0.003	58.3
-0.0008	0.0007	-0.0075	0.0022	58.3
-0.003	0.0007	-0.0053	0.0007	58
-0.003	0.0007	-0.003	0.0007	58
-0.0038	0	-0.0015	0.0015	57.8
0.0007	0.0007	-0.0015	0.0022	57.6
0	0.0007	0.0007	0	57.4
-0.0008	0.0015	0.003	0.0007	57.1
-0.0008	0.0007	0.0045	0.0022	57.1
0.0007	0.0015	0.0082	0.0015	57
0.0037	0	0.009	0.0015	56.5
0.003	0	0.009	0.0015	56.6
0.003	0.0015	0.0105	0.0007	56.4
0.0045	0.0007	0.0082	-0.0008	56.2
0.003	-0.0008	0.0067	-0.0015	56
-0.003	0.0007	0.0082	0.0007	55.7
-0.006	0.0007	0.0067	0	55.5
-0.0083	-0.0008	0.0075	0.0007	55.3
-0.0091	-0.0008	0.0082	-0.0008	55.3
-0.012	0.0007	0.0067	0	55.1
-0.0128	0	0.0052	-0.0008	54.7
-0.012	-0.0008	0.0067	0	54.5
-0.015	-0.0015	0.0082	-0.0015	54.2
-0.0143	-0.0008	0.009	-0.0015	54.1
-0.0143	-0.003	0.0105	-0.0008	54
-0.0181	-0.003	0.009	-0.003	53.6
-0.0203	-0.0008	0.0082	-0.003	53.5
-0.0285	0.0007	0.0075	-0.0015	53.2
-0.0338	-0.0008	0.0067	-0.0023	52.9
-0.0346	-0.0008	0.006	-0.0015	52.9
-0.0368	0	0.0067	-0.0008	52.5
-0.033	0.0007	0.0067	-0.0015	52.4
-0.027	0.0045	0.0052	0.0015	51.9
-0.024	0.0037	0.0052	0.0022	52
-0.0165	0.003	0.0052	0.0037	51.6
-0.015	0.003	0.0045	0.0045	51.3
-0.0143	0.0007	0.003	0.0022	51.1
-0.0083	0.0022	0.0015	0.0015	50.9
-0.0068	0.0015	0.0022	0.0037	50.5
-0.0053	0.0022	0.003	0.0052	50.3
-0.003	0.0037	0.006	0.0045	50
-0.0015	0.0007	0.0067	0.0045	49.8
0.0015	0.0007	0.0067	0.0045	49.5
0.0045	0.0022	0.0045	0.0007	49.3
0.0067	0.0045	0.0067	0.0015	49
0.0082	0.0045	0.0112	0.0015	48.7
0.0075	0	0.0135	0.0007	48.5
0.012	-0.0023	0.0165	0.0007	48.3
0.0157	-0.0038	0.018	0.0022	47.9
0.0142	-0.0038	0.0187	-0.0008	47.6
0.015	-0.003	0.0217	-0.0015	47.3
0.0172	-0.003	0.0232	-0.0008	47.1
0.0157	-0.0046	0.024	-0.0008	46.7
0.0165	-0.0046	0.0262	-0.0008	46.5
0.0165	-0.0053	0.0255	0.0007	46
0.0127	-0.0046	0.0277	0.0007	45.8
0.0112	-0.0038	0.0285	-0.0015	45.6
0.0127	-0.0046	0.0277	-0.003	45.1
0.0142	-0.0046	0.0277	-0.0023	45
0.0157	-0.006	0.027	-0.0023	44.4
0.0157	-0.0068	0.024	-0.003	44.4
0.018	-0.0068	0.0225	-0.0023	44
0.0202	-0.006	0.0202	-0.0023	43.8
0.0217	-0.0091	0.0195	-0.0038	43.5
0.0217	-0.0091	0.018	-0.0015	43.1
0.0187	-0.0083	0.0165	-0.0015	42.7
0.0142	-0.0068	0.0135	-0.0023	42.4
0.0142	-0.0053	0.0112	-0.0015	42.2
0.0165	-0.0053	0.006	-0.0015	41.8
0.0165	-0.0023	0.0037	-0.0015	41.5
0.012	0	0.0037	-0.003	41.3
0.0105	-0.0008	0.0007	-0.0023	40.9
0.009	-0.0015	0.0007	-0.0008	40.6
0.0082	-0.0015	-0.003	-0.0023	40.4
0.0082	-0.0008	-0.0053	-0.0038	40
0.003	-0.0015	-0.0091	-0.0046	39.9
-0.0015	-0.0008	-0.0105	-0.0046	39.1
-0.0105	0	-0.0098	-0.0046	39.1
-0.015	0.0007	-0.012	-0.003	38.7
-0.0083	0.0007	-0.012	-0.0015	38.3
-0.0023	0.0015	-0.0143	-0.0046	38
-0.003	0.0015	-0.0128	-0.0053	37.6
-0.0068	0.0022	-0.0128	-0.0046	37.2
-0.012	0.0007	-0.0143	-0.0053	36.9
-0.0083	-0.0015	-0.012	-0.0075	36.5
-0.0023	-0.0038	-0.0105	0.0022	36.3
-0.0008	-0.0046	-0.0098	0.0142	35.7
0.003	-0.0015	-0.0091	0.0075	35.6
0.0015	0.0015	-0.0075	0.0015	35
0.0007	0.0022	-0.0083	0.0022	34.6
0.0007	0.003	-0.0075	-0.0008	34.4
0.0007	0.003	-0.0075	-0.003	33.9
-0.0023	0.0015	-0.0091	-0.0053	33.7
-0.0098	0.0022	-0.0113	-0.0046	33.5
-0.012	0.0022	-0.012	-0.0046	33
-0.0143	0.0015	-0.012	-0.0105	32.8
-0.0165	0.0045	-0.0135	-0.0135	32.2
-0.0165	0.0082	-0.0135	-0.012	32.2
-0.015	0.0052	-0.0143	-0.0143	31.7
-0.0158	0.0007	-0.0195	-0.0181	31.3
-0.0248	0	-0.0225	-0.0143	30.9
-0.0293	-0.0015	-0.0256	0.0127	30.5
-0.0323	-0.0046	-0.0278	0.0405	30.3
-0.0368	-0.0046	-0.0256	0.0015	29.9
-0.0353	-0.0023	-0.0218	-0.0225	29.4
-0.033	-0.0046	-0.0218	0.0045	29.2
-0.0278	-0.0091	-0.021	0.0052	28.7
-0.0195	-0.0083	-0.0181	0.021	28.6
-0.0143	-0.0008	-0.0181	0.0352	27.9
-0.0203	0.0052	-0.015	0.0607	27.9
-0.0308	0.0022	-0.0158	0.0757	27.3
-0.0346	0.0067	-0.0188	0.024	27
-0.039	0.0075	-0.0188	-0.0038	26.6
-0.039	0	-0.0165	-0.003	26.3
-0.0315	-0.0053	-0.0113	-0.0525	25.8
-0.0203	-0.006	-0.0098	-0.1853	25.5
-0.0143	-0.0068	-0.0143	-0.1283	25.1
-0.0128	-0.012	-0.0143	0.0765	24.7
-0.0098	-0.0008	-0.0091	0.0112	24.3
-0.0075	0.006	-0.0015	-0.0263	24
0.0007	-0.0015	0.003	0.0667	23.6
0.0082	-0.006	0.0022	0.0555	23.3
0.009	-0.0105	0.0082	0.0705	22.9
0.009	-0.0105	0.0142	0.0442	22.4
0.0075	0.0037	0.015	0.0247	22.3
0.0082	0.0232	0.0127	0.0015	21.6
0.006	0.027	0.006	-0.114	21.3
0.0007	0.0157	-0.0046	-0.0953	21
-0.006	0.0015	-0.0218	-0.0436	20.4
-0.003	-0.0128	-0.039	-0.0143	20.2
0.003	-0.0203	-0.0511	0.0607	19.8
0.009	-0.0113	-0.0555	0.0345	19.5
0.0135	0.0022	-0.048	0.021	19
0.0142	0.0045	-0.0346	0.0427	18.6
0.0172	0.003	-0.0203	0.027	18.4
0.018	0.0007	-0.0083	0.0412	17.7
0.0202	-0.0015	-0.0015	0.0195	17.7
0.018	-0.0046	0.0007	-0.0075	17.2
0.018	-0.0053	-0.0015	-0.012	16.8
0.0217	0.0007	-0.0015	-0.0143	16.3
0.0225	0.0075	-0.0053	-0.0165	15.9
0.0217	0.009	-0.0158	-0.0428	15.5
0.0195	0.0067	-0.0285	-0.0383	15.1
0.024	0.0037	-0.039	-0.024	14.6
0.03	-0.0015	-0.0443	-0.0075	14.1
0.0217	-0.0075	-0.0353	0.018	14
0.0112	-0.0083	-0.0143	-0.012	13.4
0.0052	-0.0046	0.009	-0.048	13.1
0.003	0	0.033	-0.0083	12.7
0.003	0.0075	0.0472	-0.0128	12.3
-0.0015	0.0082	0.0532	-0.0053	11.6
0.0082	0.0015	0.0532	0.0615	11.5
0.0142	-0.0015	0.0442	0.0802	10.8
0.0157	-0.0015	0.0405	0.0952	10.4
0.0232	-0.0008	0.0345	0.0817	10
0.0202	-0.0038	0.021	0.063	9.5
0.0172	-0.006	0.0075	0.0487	9.4
0.0172	-0.0038	-0.0083	-0.0278	8.5
0.0127	0.0007	-0.0248	-0.1118	8.2
0.0127	0.006	-0.0293	-0.0765	7.6
0.0135	0.012	-0.0173	0.0637	7.5
0.0142	0.0067	-0.0046	0.1612	7
0.018	-0.0158	0.012	0.192	6.5
0.0172	-0.033	0.0202	0.0712	5.9
0.018	-0.0323	0.0285	-0.1463	5.5
0.018	-0.0181	0.0405	-0.1515	5.1
0.0097	0.0067	0.0412	-0.1178	4.9
-0.0068	0.0292	0.0292	-0.2273	4.2
-0.0225	0.0367	0.012	-0.1358	4.2
-0.0181	0.0172	-0.0046	-0.0181	3.5
-0.0068	-0.0128	-0.0195	-0.0405	3.3
-0.0128	-0.0353	-0.033	-0.0413	2.7
-0.015	-0.0436	-0.0488	-0.1058	2.2
-0.015	-0.0098	-0.057	-0.0533	1.9
-0.0233	0.0322	-0.0593	0.0742	1.2
-0.027	0.0405	-0.0585	0.1597	1
-0.0308	0.027	-0.063	0.18	0.5
-0.0203	0.0157	-0.0653	0.1065	0.4
-0.006	0.003	-0.042	0.1425	-0.1
-0.0068	-0.0233	-0.0165	0.099	-0.5
-0.0165	-0.0338	-0.0105	-0.0608	-0.9
-0.0315	-0.03	-0.0091	0.0157	-1
-0.033	-0.0165	-0.0091	0.1192	-1.2
-0.0315	0.0082	0.0045	-0.0608	-1.4
-0.03	0.0217	0.0315	-0.1928	-2.1
-0.0158	0.024	0.051	-0.135	-2
-0.003	0.0112	0.0675	-0.0788	-2.2
0.0105	-0.024	0.0735	-0.045	-1.9
0.0277	-0.0608	0.075	-0.0188	-2.2
0.0367	-0.0593	0.0787	0.0157	-2.3
0.0487	-0.0195	0.0877	0.0045	-2.3
0.054	0.018	0.1095	0.0615	-2.4
0.042	0.0472	0.1252	0.0675	-2.3
0.0292	0.0675	0.1215	-0.0691	-2.5
0.0157	0.0577	0.114	-0.153	-2.5
0.0097	0.0322	0.0982	-0.2138	-2.3
0.009	0.0067	0.0742	-0.1313	-2.3
-0.006	0.0067	0.0555	-0.0046	-2.2
-0.024	0.0277	0.045	0.0427	-1.9
-0.0503	0.039	0.039	0.0712	-1.9
-0.0803	0.024	0.0345	0.0652	-1.6
-0.084	-0.0068	0.0315	0.0705	-1.5
-0.0735	-0.0473	0.0195	0.0487	-0.7
-0.0683	-0.1028	-0.0023	0.0225	-1.1
-0.0585	-0.1013	-0.033	-0.0218	-1
-0.0518	-0.0706	-0.0653	-0.048	-0.8
-0.0503	-0.0525	-0.1043	-0.0398	-0.7
-0.054	-0.0135	-0.1523	-0.003	-0.3
-0.0608	0.0052	-0.2003	0.0495	-0.3
-0.066	0.0127	-0.237	0.0427	0.1
-0.081	0.0067	-0.2535	0.0742	0
-0.1013	-0.006	-0.2505	0.0855	0.2
-0.1238	-0.0053	-0.2393	0.069	0.4
-0.1545	-0.0053	-0.2258	0.087	0.4
-0.1785	0.003	-0.1898	0.078	0.7
-0.1988	-0.0008	-0.1441	0.0577	0.7
-0.2198	-0.0015	-0.1065	0.0262	0.9
-0.2175	0.0045	-0.075	-0.0091	1.1
-0.1688	0.0127	-0.0675	-0.0706	1
-0.1073	0.0135	-0.063	-0.0863	1.3
-0.0908	0.0142	-0.054	-0.024	1.3
-0.0645	0.0157	-0.0555	0.0067	1.7
-0.0256	0.009	-0.0293	0.0082	1.7
0.0165	0.0112	0.018	0.0142	1.8
0.0772	0.0105	0.042	0.009	2.1
0.114	0.0127	0.054	0.009	1.8
0.156	0.0127	0.0712	0.0052	2.1
0.189	0.0112	0.0817	-0.0023	2.2
0.1995	0.0112	0.0922	-0.003	2.3
0.2205	0.0082	0.0937	-0.0015	2.5
0.2437	0.0112	0.066	0.0142	2.4
0.2797	0.0082	0.0382	0.042	2.8
0.2805	0.0052	0.003	0.063	3
0.2572	0.0015	-0.0443	0.0577	3.2
0.3082	0.0007	-0.0638	0.0457	3.3
0.4215	0.0052	-0.0691	0.0292	3.6
0.492	0.006	-0.0495	-0.0375	3.8
0.4897	0.012	-0.0068	-0.0968	3.8
0.4642	0.0157	0.012	-0.0735	4.3
0.411	0.0195	-0.0068	-0.003	4.4
0.2887	0.0142	-0.0256	0.0142	4.6
0.1612	0.006	-0.0233	0.003	4.7
0.057	0.0052	-0.0203	-0.0068	4.9
-0.0315	0.0075	-0.0346	-0.0165	5.5
-0.0856	0.0052	-0.0638	0.009	5.5
-0.129	0.003	-0.0998	0.027	5.8
-0.1268	0.003	-0.1238	0.0277	6.1
-0.1065	0.0082	-0.1335	0.042	5.7
-0.1088	0.0127	-0.1223	0.0652	7.2
-0.0975	0.0075	-0.0878	0.042	6.6
-0.0668	0.0045	-0.0585	-0.0353	6.4
-0.0338	0.0067	-0.0256	-0.0518	6.9
0.009	0.0067	0.0495	0.0037	6.9
0.0157	0.0015	0.1102	0	7.2
-0.423	-0.0038	0.1515	-0.0233	7.2
-0.999	-0.0023	0.186	0.003	7.8
-0.5235	0.0015	0.1897	0.0232	7.7
-0.231	0	0.1672	0.024	8.1
-0.7343	-0.0008	0.1147	0.0105	8.2
-0.3406	-0.003	0.0915	-0.0038	8.3
0.2385	-0.0068	0.1042	-0.039	8.5
0.6007	-0.0263	0.1282	-0.0975	9
1.023	-0.0511	0.1522	-0.0938	8.9
1.149	-0.0548	0.1687	-0.0465	9.3
1.1805	-0.0405	0.2122	-0.039	9.2
0.9667	-0.0165	0.216	-0.0068	9.5
0.81	-0.0075	0.2467	0.0517	9.7
0.627	0.0082	0.5047	0.0615	9.9
0.216	0.0142	0.9195	0.0562	10.1
0.2685	0.0217	1.329	0.0577	10.2
0.543	0.054	1.3305	0.0577	10.6
0.573	0.0742	1.1895	0.0277	10.6
0.603	0.0712	1.1122	-0.0068	10.9
0.4987	0.054	1.0185	0.006	11
0.2835	0.0322	0.8662	0.0112	11.2
0.0675	0.0247	0.5835	-0.0323	11.3
-0.159	0.0045	0.1522	-0.0046	11.2
-0.297	-0.0465	-0.1441	0.042	11.4
-0.4823	-0.078	-0.4748	-0.0068	11.5
-0.6083	-0.0698	-0.6931	-0.0128	11.8
-0.7043	-0.0488	-0.8865	0.0195	11.9
-0.7785	-0.0405	-1.0748	-0.0548	11.7
-0.7988	-0.006	-1.206	-0.1845	11.9
-0.8708	0.024	-1.335	-0.2235	12.1
-0.9173	0.0165	-1.4865	-0.2011	12.1
-0.9548	0.009	-1.644	-0.1365	12.4
-0.9555	-0.0105	-1.5563	-0.057	12.3
-0.9135	-0.024	-1.4206	-0.0361	12.6
-0.885	-0.03	-1.2758	-0.0165	12.4
-0.8138	-0.0263	-1.1401	-0.0046	12.6
-0.6945	-0.0105	-1.0905	0.0007	12.6
-0.5843	-0.0128	-1.0035	-0.0023	12.6
-0.4913	-0.0218	-0.9195	-0.027	12.8
-0.4125	-0.0263	-0.8438	0.0045	13.3
-0.3615	-0.0256	-0.774	0.0592	13.3
-0.3233	-0.015	-0.7103	0.069	13.7
-0.3068	-0.0098	-0.5805	0.0547	13.5
-0.3015	0.0022	-0.2851	0.0502	14.1
-0.318	0.006	0.0442	0.0457	14.2
-0.3428	-0.003	0.339	0.042	14.7
-0.2798	-0.003	0.645	0.0457	15
-0.1403	-0.0023	0.984	0.0435	15.6
-0.015	0.0007	1.2405	0.0487	15.9
0.0712	0.0067	1.4325	0.0495	16.2
0.0997	0.018	1.596	0.0517	16.8
0.0052	0.0165	1.692	0.0465	17
0.0127	0.0105	1.743	0.0382	17.8
0.1372	0.0067	1.7085	0.033	18.1
0.129	0.0007	1.5697	0.024	18.4
0.189	0.0045	1.4347	0.0262	18.8
0.2767	0.006	1.314	0.0255	19.4
0.3555	0.0045	1.2045	0.0232	19.8
0.4635	0.0045	1.0972	0.018	20.2
0.507	0.0052	0.9855	0.0172	20.4
0.6022	0.0067	0.8497	0.0165	21.1
0.714	0.003	0.6945	0.0127	21.3
0.804	0.003	0.4665	0.015	21.8
0.81	0.0007	0.2047	0.009	22
0.7612	0.0022	-0.0706	0.0007	22.5
0.7095	0.0052	-0.3158	-0.0105	22.7
0.6	0.003	-0.5205	-0.0128	22.8
0.4537	-0.0008	-0.6803	-0.003	23.2
0.318	-0.0046	-0.7785	-0.0083	23.4
0.1935	-0.0038	-0.861	-0.0203	23.6
0.0742	0.0015	-0.9203	-0.0015	23.5
-0.0098	0.009	-0.9443	0.0525	23.7
-0.075	0.0022	-0.9413	0.024	23.9
-0.1335	0.0022	-0.9233	-0.0285	24
-0.192	0.0007	-0.8498	0.0292	24.2
-0.2753	-0.0068	-0.7328	0.057	24.3
-0.3533	0.003	-0.6105	0.009	24.3
-0.3773	0.0105	-0.4935	-0.033	24.4
-0.3833	0.009	-0.3668	-0.0346	24.3
-0.3638	0.0045	-0.2295	-0.0293	24.4
-0.2948	0.0007	-0.1095	-0.0308	24.3
-0.2423	0	0.0097	-0.0008	24.6
-0.2123	-0.0046	0.1125	0.0487	24.5
-0.1643	-0.0083	0.1957	0.0532	24.3
-0.0878	-0.0015	0.2625	-0.012	24.3
-0.0623	0.0037	0.3367	-0.012	24.4
-0.0315	0.0097	0.4125	-0.0128	24.4
0.0105	0.0187	0.4492	-0.0285	24.4
-0.0256	0.0157	0.4537	-0.0113	24.2
-0.0436	0.0082	0.4297	-0.0375	24.4
0.0015	0.009	0.3885	-0.0458	24.1
0.0405	0.009	0.3277	-0.0091	24.6
0.0892	-0.0015	0.2475	0.0735	24.6
0.123	-0.0091	0.18	0.0675	24.2
0.1042	-0.0128	0.1312	-0.0046	24.2
0.084	-0.024	0.1207	0.0405	24
0.0232	-0.0278	0.1192	0.084	24.2
-0.0315	-0.0203	0.0855	0.0412	24.2
-0.048	-0.0091	0.0577	-0.0135	24.1
-0.0608	0	0.0345	-0.0645	24.1
-0.0555	0.0007	0.0015	-0.1388	24
-0.0721	0.0007	-0.0278	-0.1875	23.9
-0.12	0.003	-0.0533	-0.1245	24
-0.1995	0.0015	-0.063	-0.0495	24
-0.2423	0	-0.0608	-0.0405	24.1
-0.2258	0.0015	-0.0503	-0.0105	23.8
-0.1785	0.0052	-0.0353	-0.0075	24.1
-0.1155	0.0022	-0.0593	-0.0091	23.7
-0.0885	-0.0015	-0.1178	0.0007	24.2
-0.0878	-0.0053	-0.1845	-0.0105	23.9
-0.0593	-0.0083	-0.2723	-0.0008	23.6
0.0105	-0.0083	-0.3428	-0.0053	23.8
0.1087	-0.0105	-0.393	0.0015	23.5
0.1957	-0.0083	-0.4013	0.0082	23.8
0.2175	-0.0075	-0.369	0.0075	23.4
0.2722	-0.0068	-0.3525	0.0127	23.7
0.3877	-0.0068	-0.3383	0.0082	23.3
0.468	-0.012	-0.3421	0.009	23.3
0.5347	-0.012	-0.3675	0.0052	23.3
0.5685	-0.006	-0.3788	0.0082	23.3
0.5587	0.003	-0.3975	0.0112	23.1
0.5512	0.0082	-0.3885	0.0127	23.1
0.5535	0.0105	-0.3368	0.0135	23.1
0.5197	0.0045	-0.2505	0.0082	23.4
0.4522	-0.0008	-0.1741	0.0097	23.3
0.396	0.0007	-0.135	0.009	23.4
0.324	-0.0015	-0.159	0.0075	23.5
0.2422	-0.0008	-0.2123	0.0075	23.5
0.1672	-0.0008	-0.2115	0.0052	23.6
0.084	-0.0015	-0.237	0.0045	23.4
-0.0225	0.0015	-0.2708	0.0052	23.7
-0.1441	0.003	-0.2453	0.0067	23.6
-0.237	0	-0.1995	0.0045	23.8
-0.3225	-0.0068	-0.1568	0.003	23.7
-0.4133	-0.003	-0.1028	0.0045	23.6
-0.4725	0.0052	-0.0263	0.0097	23.6
-0.486	0.0067	0.021	0.0105	23.6
-0.48	0.0022	0.0517	0.009	23.4
-0.4605	0.0015	0.033	0.0097	23.7
-0.4328	0.003	0.0045	0.0045	23.4
-0.3855	0.0022	0.009	0.003	23.8
-0.3345	0.003	0.0195	0.006	23.6
-0.2843	0.0037	0.0345	0.0082	23.7
-0.2333	0.0045	0.0472	0.0067	23.7
-0.2063	0.0052	0.0997	0.0067	23.9
-0.1845	0.0052	0.1477	0.0052	24.1
-0.1553	0.003	0.1852	0.003	23.8
-0.1043	0.0037	0.2145	0.0037	24
-0.0473	0.003	0.2355	0.0022	23.9
-0.0046	0.0037	0.24	0.0037	23.9
0.0322	0.0067	0.2325	0.0015	24.1
0.0615	0.006	0.225	-0.0023	24.1
0.0915	0.003	0.1837	-0.0015	23.8
0.1395	0.0007	0.1425	0.0052	23.9
0.1875	-0.0008	0.1027	0.0202	23.6
0.2115	-0.003	0.0645	0.0247	23.9
0.2227	0	0.0217	0.018	23.6
0.2362	0.0007	-0.0038	0.0022	23.8
0.2422	0.0022	-0.003	-0.0375	23.7
0.2265	0.006	0.0127	-0.0773	23.8
0.2212	0.0127	0.0277	-0.0608	23.8
0.2332	0.0157	0.0112	-0.0338	23.7
0.2257	0.0112	-0.0008	-0.0353	23.8
0.2137	0.006	-0.0091	-0.0068	23.6
0.2085	-0.0046	-0.0135	0.0045	23.8
0.189	-0.0075	-0.0143	0.0037	23.6
0.1672	-0.0143	-0.0225	0.0742	23.8
0.1462	-0.0218	-0.0256	0.0457	23.8
0.1215	-0.0105	-0.0263	-0.0653	23.8
0.0982	0.0045	-0.0315	0.0142	23.8
0.0735	0.0015	-0.0405	0.1065	23.9
0.0382	-0.003	-0.0375	0.0802	24
-0.0046	-0.0068	-0.0375	0.0487	23.9
-0.03	-0.0135	-0.0346	0.0382	23.9
-0.0428	-0.0143	-0.0256	0.0555	23.9
-0.06	-0.012	-0.0165	0.0667	24.1
-0.0758	-0.0023	0.0105	0.0532	23.9
-0.0893	0.0045	0.045	0.0135	24.2
-0.09	0.0015	0.069	-0.0158	24
-0.0856	0.0007	0.093	0.0172	24.3
-0.0923	0.0015	0.1275	0.066	24
-0.1006	0.0052	0.1612	-0.003	24.1
-0.1103	0.0067	0.195	-0.0788	23.9
-0.1163	-0.0008	0.2272	-0.1298	23.8
-0.12	-0.0046	0.2512	-0.246	23.7
-0.123	-0.0023	0.2722	-0.234	23.8
-0.1163	0.0007	0.2865	-0.0691	23.8
-0.1103	0.0067	0.2947	-0.0046	23.7
-0.093	0.012	0.3007	0.0067	23.4
-0.0706	0.0105	0.309	0.075	23.6
-0.0585	-0.0015	0.3165	0.0667	23.5
-0.0518	-0.0105	0.3165	0.0315	23.6
-0.0518	-0.0046	0.306	-0.0428	23.5
-0.0555	-0.0023	0.2887	-0.0698	23.6
-0.0713	-0.0008	0.2647	0.0127	23.6
-0.093	0.0015	0.2347	0.0007	23.6
-0.0915	0.0007	0.2092	-0.0008	23.6
-0.075	0.0052	0.1777	0.006	23.6
-0.0675	0.0067	0.1402	-0.0158	23.6
-0.0593	0.0007	0.1035	0.0045	23.6
-0.0503	-0.0068	0.0637	-0.0008	23.3
-0.0428	-0.006	0.0232	0.0045	23.5
-0.0293	-0.012	-0.0173	0.0052	23.3
-0.0203	-0.0203	-0.0503	0	23.3
-0.0256	-0.0165	-0.0735	0.0165	23.4
-0.033	-0.0091	-0.0893	0.0442	23.2
-0.042	0	-0.1006	0.054	23.4
-0.045	0.0075	-0.1155	0.0397	23.2
-0.048	0.0105	-0.135	0.0202	23.1
-0.054	0.0142	-0.1613	-0.0158	23.1
-0.0548	0.0157	-0.192	-0.0233	23
-0.057	0.0082	-0.2213	-0.0218	23.1
-0.0525	0.0015	-0.2408	-0.0091	22.8
-0.0405	-0.003	-0.252	0.0307	22.8
-0.033	-0.0068	-0.2573	0.0202	22.8
-0.0218	-0.0053	-0.258	0.0075	22.7
-0.012	-0.003	-0.252	-0.0053	22.6
-0.003	-0.0038	-0.2423	-0.0195	22.5
0.0007	0	-0.237	-0.0278	22.6
0.0007	0.0045	-0.2288	-0.0128	22.3
0.0052	-0.006	-0.2168	0.0465	22.2
0.0075	-0.0173	-0.2018	0.0532	22.2
0.0067	-0.0233	-0.1756	0.0562	22
0.012	-0.0256	-0.1418	0.0555	22
0.0172	-0.0105	-0.1163	0.0165	21.9
0.0202	0.0007	-0.0945	0.0142	21.9
0.0187	0.0007	-0.0765	0.0045	22
0.0127	0.0015	-0.0706	0.006	21.7
0.0127	0	-0.0548	0.009	21.9
0.0135	0.0015	-0.0225	0.0135	21.7
0.0135	0	0.0142	0.0352	21.6
0.0127	0.0007	0.0442	-0.006	21.7
0.0157	0.0052	0.0667	-0.0555	21.5
0.027	0.006	0.0877	-0.0503	21.6
0.0307	0.0067	0.105	-0.0353	21.3
0.024	0.0045	0.1192	-0.0353	21.4
0.0015	0.0022	0.1297	-0.0188	21.2
-0.0248	0.0007	0.141	0.0367	21.1
-0.0578	0.0007	0.1462	0.0352	21.2
-0.0825	0.0045	0.1515	-0.0218	21
-0.0803	0.0067	0.1567	-0.0158	21
-0.0728	0.003	0.1575	0.0382	20.8
-0.0525	-0.0015	0.1597	0.0765	21
-0.0346	-0.0015	0.1567	0.0442	20.7
-0.027	-0.0068	0.1462	-0.0015	20.7
-0.0091	-0.0091	0.1335	-0.045	20.5
0.0105	-0.0068	0.1215	-0.0923	20.5
0.0322	-0.0046	0.1102	-0.0495	20.3
0.0495	-0.0015	0.0945	-0.0023	20.3
0.0607	0.0007	0.0795	0.0007	20.1
0.063	0.0067	0.0667	0	20.2
0.0592	0.0105	0.0502	-0.0068	19.9
0.0562	0.0105	0.027	-0.0128	19.9
0.0465	0.0112	0.006	-0.024	19.8
0.042	0.0105	-0.0128	-0.0346	19.7
0.0435	0.009	-0.0346	-0.0256	19.8
0.0427	0.003	-0.0518	-0.006	19.3
0.039	-0.0046	-0.0698	-0.003	19.5
0.0345	-0.0083	-0.0856	0.009	19.3
0.0345	-0.0105	-0.0938	0.0232	19.3
0.0382	-0.0091	-0.1028	-0.0143	19.2
0.0397	-0.0053	-0.1133	-0.0368	19.2
0.0367	-0.0053	-0.1185	0.0105	19
0.039	-0.0075	-0.12	0.0277	19
0.0367	-0.006	-0.1163	0.042	18.7
0.0352	-0.0068	-0.1095	0.075	18.8
0.0405	-0.0068	-0.105	0.0082	18.5
0.0382	-0.003	-0.0998	-0.0788	18.7
0.0255	-0.0015	-0.093	-0.015	18.4
0.0157	-0.003	-0.0856	0.0457	18.5
0.012	-0.0008	-0.0825	0.0202	18.3
-0.0053	0.0015	-0.0788	0.027	18.3
-0.0075	0.0007	-0.0735	-0.0278	18.1
0.0007	0.0015	-0.0691	-0.0915	18
-0.0008	0.003	-0.0653	-0.054	17.9
0.0015	0.0015	-0.0615	-0.006	18
-0.0008	-0.0008	-0.057	-0.0128	17.9
0.0045	-0.0008	-0.054	-0.0128	17.8
0.006	-0.003	-0.0465	0.0007	17.6
0.003	-0.0046	-0.039	0.0037	17.5
0.0037	-0.0053	-0.0308	0.0315	17.4
-0.0008	-0.0038	-0.0195	0.0405	17.2
0.0037	-0.0015	-0.0075	0.0127	17.2
0.0052	0.0015	0.0045	-0.0105	17
0.0015	0.006	0.0127	-0.012	17.1
-0.003	0.0082	0.0187	-0.0203	16.9
-0.0083	0.003	0.0255	-0.003	16.9
-0.0053	-0.0023	0.03	0.0135	16.9
-0.0046	-0.0023	0.0315	0.009	16.4
-0.0053	-0.0046	0.0352	0.0165	16.6
-0.006	-0.0053	0.042	-0.0008	16.4
-0.003	-0.0053	0.0532	0.018	16.5
-0.0023	-0.003	0.06	0.024	16.4
0.0007	-0.0038	0.0615	-0.0046	16.2
0.0037	-0.0008	0.06	-0.0158	16.1
-0.0008	0.0105	0.063	-0.0113	16.1
-0.0008	0.0142	0.0637	0.033	15.9
-0.0015	0.0105	0.0562	0.0217	15.9
-0.0038	-0.0008	0.045	0.0105	15.8
-0.003	-0.0143	0.0345	0.0052	15.8
-0.003	-0.012	0.027	-0.0173	15.7
-0.0046	-0.0008	0.0232	0.0405	15.6
-0.0083	-0.003	0.0202	0.0502	15.5
-0.0083	-0.003	0.018	0.012	15.5
-0.0046	-0.0008	0.0165	-0.006	15.6
0.003	-0.006	0.012	-0.0488	15.3
0.0105	-0.0023	0.0067	-0.063	15.4
0.0195	0.0015	-0.0008	-0.0346	15.1
0.021	0.0015	-0.0068	-0.006	15
0.0232	0.0007	-0.0143	0.0082	14.9
0.0225	0	-0.0181	0.0472	14.9
0.0195	0	-0.0181	0.0502	14.8
0.0195	0.0022	-0.0203	-0.0053	14.8
0.0157	0.0052	-0.0233	-0.0113	14.5
0.0135	0.0045	-0.0285	0.0007	14.6
0.0105	-0.0008	-0.0315	0.0067	14.4
0.009	-0.0046	-0.0323	-0.003	14.4
0.0082	-0.003	-0.0353	-0.0135	14.1
0.003	-0.0046	-0.039	-0.0091	14.1
-0.0023	-0.0053	-0.042	-0.0105	14.1
-0.0128	-0.0091	-0.0436	0.0052	13.9
-0.0203	-0.0105	-0.048	0.0127	13.8
-0.0278	0	-0.0465	-0.0225	13.6
-0.0338	0.0067	-0.0361	-0.0413	13.7
-0.0353	0.006	-0.0293	-0.003	13.5
-0.0375	0.0015	-0.0256	0.0082	13.5
-0.0398	0.0007	-0.0195	-0.0053	13.1
-0.0405	0.0007	-0.0091	0.0052	13.2
-0.0368	-0.003	0.0015	-0.0015	13.1
-0.0323	-0.003	0.0037	0.0007	13
-0.033	-0.0015	0.0022	0.0045	12.9
-0.0308	0.0007	-0.0046	0.0015	13
-0.0233	0.0022	-0.012	0.0052	12.6
-0.0195	0	-0.0143	-0.0015	12.8
-0.0195	0	-0.0105	-0.0023	12.4
-0.0203	0.0007	-0.0008	-0.006	12.5
-0.0218	0.0007	0.0037	-0.0023	12.4
-0.0195	0	0.009	-0.0008	12.2
-0.0188	-0.0008	0.0202	-0.0008	12.3
-0.0143	-0.0008	0.0307	0.0037	11.9
-0.012	0.0015	0.0367	0.0007	11.9
-0.0248	0.003	0.0367	-0.0008	11.8
-0.0293	0.0007	0.042	-0.003	11.8
-0.012	-0.0015	0.0442	-0.0008	11.6
-0.0098	-0.003	0.0322	-0.0008	11.4
-0.0263	-0.0046	0.0217	0.0097	11.6
-0.0218	-0.0008	0.0112	0.0165	11.3
-0.0203	-0.0008	0.0082	0.0045	11.2
-0.0346	-0.0015	0.0082	0.0007	11.2
-0.0518	-0.0015	0.0022	0.0007	11
-0.078	-0.003	-0.0015	-0.0015	10.9
-0.0893	-0.0015	0.0007	-0.0015	10.7
-0.0728	-0.0023	0.006	0.0007	10.7
-0.0338	-0.0008	0.012	0	10.7
0	0.0007	0.0202	-0.0008	10.5
0.0157	0.0015	0.027	-0.0023	10.7
0.0502	-0.0008	0.0225	-0.0015	10.3
0.0855	-0.0015	0.0105	0	10.4
0.0982	0.0007	0.006	-0.0008	10.3
0.108	0.0007	0.006	0.0007	10.2
0.1155	-0.0008	0.0052	0.0015	10.1
0.1162	0	0.0127	0.0022	10.1
0.1117	0.0045	0.018	0.003	10
0.1005	0.0007	0.015	-0.0008	10
0.0787	-0.0038	0.0052	0.006	9.7
0.063	-0.006	0.003	0.0292	9.9
0.057	-0.006	0.0007	0.0322	9.7
0.036	-0.0046	-0.0075	0.0202	9.8
0.0052	-0.003	-0.0158	0.0067	9.5
-0.0158	0.0015	-0.027	-0.0398	9.5
-0.0218	0.003	-0.0218	-0.075	9.4
-0.0353	0.0015	-0.0015	-0.0375	9.5
-0.0615	0.0007	0.0142	-0.0091	9.5
-0.0743	-0.0015	0.0202	-0.0091	9.5
-0.0825	-0.0008	0.0255	0.0135	9.5
-0.0915	0.0015	0.0255	0.0142	9.3
-0.1013	0.0022	0.0195	0.0045	9.3
-0.1215	0.0007	0.0082	-0.0181	9.3
-0.1455	-0.0008	-0.0105	-0.0465	9.2
-0.1381	-0.0008	0.0045	-0.0308	9.1
-0.1185	-0.0015	0.0315	-0.003	9
-0.1043	0.0007	0.027	0.0322	9
-0.0833	0.0022	0.0345	0.0562	9.1
-0.0698	0.0052	0.0367	0.0225	8.9
-0.054	0.009	0.0277	-0.0046	9.1
-0.0428	0.0082	0.0165	-0.0053	8.9
-0.042	0.003	-0.0091	0.0075	8.8
-0.0233	-0.0098	-0.024	0.0225	8.8
-0.003	-0.0105	-0.0495	0.0195	8.7
0.0345	-0.012	-0.0713	0.048	8.9
0.117	-0.0165	-0.0878	0.0037	8.6
0.153	-0.0098	-0.0945	-0.0458	8.7
0.1267	-0.012	-0.0848	0.0787	8.7
0.1327	-0.0135	-0.081	0.12	8.5
0.1282	-0.0068	-0.075	0.042	8.8
0.1177	-0.003	-0.0706	0.0315	8.5
0.1395	-0.003	-0.0638	-0.024	8.7
0.2077	-0.0008	-0.057	-0.1088	8.5
0.288	0.006	-0.0511	-0.1043	8.4
0.318	0.0112	-0.0473	-0.0458	8.7
0.3577	0.0082	-0.0398	-0.0248	8.5
0.3742	0.0022	-0.0315	-0.0788	8.6
0.3202	0.0067	-0.027	-0.108	8.5
0.1462	0.0105	-0.0308	-0.0368	8.4
-0.0218	0.009	-0.0315	0.0015	8.5
-0.0728	0.0112	-0.033	-0.0405	8.5
0.0157	0.0045	-0.0458	-0.0315	8.4
0.195	-0.0053	-0.0638	0.0015	8.4
0.2422	-0.012	-0.0885	0.0487	8.4
0.216	-0.0143	-0.1028	0.1432	8.6
0.1267	-0.0203	-0.1088	0.0825	8.2
-0.003	-0.0091	-0.1185	-0.0675	8.5
-0.1155	0.0082	-0.1193	-0.0008	8.4
-0.2123	0.0135	-0.1125	0.069	8.2
-0.2618	0.0202	-0.093	0.0795	8.4
-0.3436	0.018	-0.0473	0.1275	8.1
-0.432	0.0127	0.009	0.0765	8.4
-0.4823	-0.0023	0.0705	-0.027	8.1
-0.4673	-0.0105	0.126	-0.0361	8.4
-0.3615	-0.0195	0.1612	0.1125	8.2
-0.2153	-0.0315	0.192	0.0637	8.1
-0.0968	-0.0233	0.2107	-0.0998	8.1
-0.0353	-0.0158	0.2212	-0.084	8.1
0.0067	-0.0135	0.2407	-0.0353	8.1
0.0187	-0.0195	0.2437	0.0007	8.3
0.0052	-0.0143	0.2445	-0.048	8.1
-0.0008	0.0052	0.243	-0.1118	8.1
-0.0083	0.024	0.2437	-0.0728	8
-0.0128	0.0382	0.2482	0.0082	8
-0.0263	0.0172	0.2362	0.0772	8
-0.0405	0.0007	0.2137	0.15	8.1
-0.0458	-0.0075	0.18	0.1432	7.9
-0.0518	-0.0181	0.1605	0.0727	7.9
-0.0165	-0.0091	0.207	-0.0691	8
0.057	0.0045	0.2797	-0.2048	7.7
0.0795	0.0202	0.3157	-0.216	7.8
0.0615	0.024	0.3202	-0.1935	7.9
0.0787	0.0255	0.312	-0.0503	7.8
0.093	0.0202	0.309	0.0532	7.9
0.0997	0.0045	0.2392	0.0712	8
0.1125	0.006	0.0817	0.0712	7.7
0.1537	0.006	-0.09	0.0105	7.8
0.195	0.0037	-0.2348	0.078	7.8
0.1747	-0.0008	-0.3278	0.0532	7.9
0.1522	-0.0128	-0.423	-0.0091	7.7
0.1185	-0.0218	-0.516	-0.0203	7.8
0.0765	-0.0128	-0.5723	-0.1088	7.8
0.0532	0.0015	-0.591	-0.0758	8
0.0427	0.0097	-0.579	-0.045	7.8
0.0412	0.003	-0.5348	0.0097	7.8
0.0345	-0.0143	-0.5048	0.0937	7.8
0.0195	-0.0225	-0.5235	0.0802	7.8
0.0127	-0.0248	-0.5056	-0.0008	7.9
0.0217	-0.0113	-0.45	-0.0721	8.1
0.0097	-0.0046	-0.3765	0.0105	8
0.006	0.0082	-0.2655	0.0532	7.8
0.003	0.0307	-0.1313	0.0607	8
-0.0083	0.0367	0.027	0.0652	8.1
-0.0105	0.0277	0.1845	0.0232	7.8
-0.0181	0.0037	0.3495	0.0405	7.8
-0.006	-0.0023	0.4807	-0.021	8
-0.0075	-0.0046	0.5557	-0.081	7.7
-0.0098	-0.0083	0.6007	-0.078	8
-0.0023	-0.0143	0.5932	-0.048	7.8
-0.0143	-0.0285	0.5557	0.0037	8
-0.0293	-0.0188	0.498	-0.0091	7.8
-0.0315	-0.0023	0.4342	0.003	8
-0.0165	0.003	0.3727	0.0142	8.1
-0.0105	0.0037	0.3142	0.0067	7.8
-0.015	0.0007	0.243	0.0082	8
-0.0165	0.0037	0.1522	0.0007	8
-0.0346	0.009	0.0577	0.009	7.9
-0.0548	0.0037	-0.0518	0.0105	8
-0.0368	-0.0008	-0.159	0.0165	7.8
0.0127	-0.003	-0.2333	0.0172	8.1
-0.0046	-0.006	-0.2723	0.0165	8.1
-0.21	-0.0046	-0.294	0.0187	8.1
-0.4538	-0.0015	-0.312	0.015	8.3
-0.5865	-0.0008	-0.303	0.0187	8.1
-0.6975	-0.0015	-0.2843	0.012	8.4
-0.7155	-0.0015	-0.2625	0.012	8.3
-0.6038	0.0022	-0.2273	0.0255	8.5
-0.363	0.0007	-0.195	0.0435	8.4
-0.0585	-0.003	-0.1568	0.0367	8.4
0.1957	-0.0008	-0.1155	0.0195	8.6
0.4162	-0.0008	-0.075	-0.0091	8.6
0.54	-0.003	-0.0353	-0.066	8.5
0.597	0.0007	0.0052	-0.06	8.7
0.582	0.0007	0.0405	-0.0181	8.7
0.5295	0.003	0.0667	-0.0158	8.9
0.5107	0.0045	0.0922	-0.0038	8.6
0.495	0.0015	0.117	0.0007	9
0.4762	0.0037	0.1372	-0.0068	8.8
0.4267	-0.0015	0.156	-0.0098	8.9
0.3502	-0.0091	0.1695	-0.0075	9
0.2377	-0.003	0.1702	0.03	9
0.1245	0.0052	0.1665	0.0562	9.2
0.102	-0.0083	0.1605	0.0067	9.1
0.0787	-0.0135	0.147	-0.0893	9.4
0.0015	0.0007	0.1245	-0.0833	9.3
-0.057	0.0045	0.0982	-0.021	9.4
-0.1283	0.0007	0.0667	-0.0091	9.4
-0.1928	0.0045	0.033	0.033	9.4
-0.2693	0.0075	0.0022	0.0195	9.4
-0.3496	-0.0015	-0.0278	0.0045	9.5
-0.3968	-0.0098	-0.048	0.027	9.5
-0.4485	-0.0195	-0.0518	0.003	9.7
-0.507	-0.0278	-0.0398	0.015	9.8
-0.5453	-0.0181	-0.024	0.0165	9.9
-0.519	0.0097	-0.015	0.009	9.9
-0.4553	0.0135	-0.0158	0.0075	9.9
-0.372	0.0052	-0.0233	0.0007	10.2
-0.2836	0.003	-0.0285	0.0127	10
-0.1958	-0.003	-0.033	0.0097	10.3
-0.1028	-0.0046	-0.0368	-0.0225	10.1
-0.021	-0.0105	-0.0428	-0.042	10.4
0.0645	-0.0143	-0.0563	-0.0173	10.5
0.1395	-0.0038	-0.0691	-0.0323	10.7
0.1875	0.0202	-0.0803	-0.0263	10.8
0.2182	0.015	-0.0915	0.0127	11
0.237	-0.003	-0.0968	0.0195	10.9
0.237	-0.0053	-0.1006	0.042	11.2
0.2332	-0.0143	-0.1043	0.0315	11.1
0.2205	-0.0098	-0.1006	0.0187	11.4
0.1957	-0.0083	-0.0953	0.0052	11.2
0.1762	-0.006	-0.09	-0.0143	11.7
0.1552	0	-0.0788	-0.0165	11.5
0.1185	-0.0008	-0.0615	-0.0038	11.7
0.0697	-0.0008	-0.0503	-0.0008	11.8
0.0277	0.0052	-0.0353	-0.0203	11.8
0.0015	0.024	-0.024	0.0015	12.1
-0.0158	0.0277	-0.0218	-0.0128	12.1
-0.0293	0.006	-0.0128	-0.0563	12.3
-0.0353	-0.0053	-0.0023	-0.024	12.4
-0.0368	-0.0053	0.0165	0.0045	12.7
-0.0323	-0.0105	0.0442	0.0082	12.9
-0.027	-0.0091	0.075	0.0255	12.9
-0.0143	-0.0098	0.1005	0.006	13
0.0007	-0.0143	0.1147	0.0015	13.1
0.0232	-0.012	0.1357	0.0202	13.2
0.0435	-0.003	0.1507	0.0037	13.5
0.0592	0.0112	0.1515	0.0045	13.3
0.0727	0.0105	0.15	0.0037	13.6
0.075	0.0082	0.1477	-0.0053	13.6
0.0855	0.0082	0.1485	-0.0068	13.8
0.093	0.0075	0.1522	-0.0181	14
0.0892	0.012	0.1597	-0.0068	13.8
0.0847	0.0067	0.1567	-0.0008	14.2
0.0765	-0.0015	0.1312	0.0007	14.2
0.0592	-0.0038	0.1027	0.003	14.7
0.0367	-0.0015	0.0705	0.0015	14.6
0.012	-0.0068	0.033	0.006	14.7
0	-0.0083	-0.0008	0.0082	14.9
-0.0015	-0.0053	-0.0315	0.009	14.9
-0.0053	-0.003	-0.0713	0.0082	15.2
-0.0135	0	-0.1185	0.003	15.3
-0.021	0.0007	-0.1455	-0.0008	15.5
-0.0308	0.0015	-0.1426	-0.0008	15.6
-0.0353	0.0045	-0.1275	-0.0068	15.6
-0.0375	0.0082	-0.1215	-0.0165	16
-0.0405	0.0052	-0.1313	-0.012	15.9
-0.0375	-0.0008	-0.1373	-0.003	16.3
-0.0308	-0.0023	-0.1455	0.0015	16.3
-0.0285	-0.006	-0.1538	0.0052	16.4
-0.0256	-0.0091	-0.1628	0.0067	16.8
-0.0263	-0.0075	-0.1733	0.0067	16.7
-0.0323	-0.0083	-0.1718	0.003	16.8
-0.0405	-0.0098	-0.165	-0.0015	17
-0.0465	-0.0091	-0.1455	-0.0046	17.3
-0.0361	-0.0075	-0.1185	-0.0075	17.4
-0.0165	-0.0053	-0.093	-0.0098	17.5
0.0052	-0.0015	-0.0803	-0.0105	17.8
0.0232	0.0112	-0.0735	-0.0091	17.9
0.0345	0.0202	-0.063	-0.0038	18
0.0427	0.0105	-0.0533	0.0015	18.1
0.0487	0.003	-0.0398	0.006	18.1
0.0525	0.0045	-0.0293	0.0067	18.5
0.0495	0.0015	-0.0188	0.0082	18.5
0.0457	-0.0015	-0.0068	0.0052	18.8
0.042	-0.0038	0.0007	0.0037	18.9
0.0375	-0.0083	0.0045	0.0015	19.1
0.0375	-0.012	0.0052	-0.0023	19.3
0.036	-0.0091	0.0045	0	19.3
0.033	-0.003	0.0045	0.0015	19.4
0.0262	0	0.0067	0.0037	19.8
0.0232	0	0.0075	0.0172	19.8
0.0157	0.0007	0.012	0.0292	20.2
0.0082	0.0007	0.0067	0.0277	20.2
0.006	-0.0015	-0.0091	0.0255	20.5
0.003	-0.006	-0.0383	-0.0015	20.5
0.0015	-0.0053	-0.0765	-0.03	20.8
-0.0023	-0.003	-0.1223	-0.0323	21
-0.0053	-0.003	-0.1741	-0.0743	21.1
-0.0053	0.0007	-0.2175	-0.066	21.6
-0.0113	0.003	-0.243	-0.0098	21.6
-0.0158	0.0015	-0.2445	-0.0195	21.9
-0.0278	0.0007	-0.2235	-0.006	22.1
-0.0353	0.0007	-0.1913	-0.0046	22.4
-0.0413	0.0045	-0.1508	-0.012	22.5
-0.0436	0.0067	-0.1065	0.003	22.7
-0.0443	0.0075	-0.0653	-0.0015	22.9
-0.0473	0.003	-0.0278	0.0202	23.2
-0.0473	-0.0046	0.0067	0.0277	23.4
-0.0458	-0.0046	0.042	0.0165	23.7
-0.0443	-0.0023	0.0757	0.012	23.9
-0.0428	-0.0068	0.1147	-0.0008	24.2
-0.039	-0.0091	0.1522	-0.006	24.4
-0.0346	-0.0105	0.1852	-0.0008	24.7
-0.0346	-0.0068	0.2137	0.0127	24.9
-0.0278	-0.0068	0.2295	0.0172	25.2
-0.0165	-0.0068	0.2415	0.0187	25.6
-0.0135	-0.0046	0.2445	0.0157	25.7
-0.0128	-0.006	0.24	0.0127	25.9
-0.015	-0.003	0.2347	0.006	26.1
-0.0143	0	0.231	-0.0046	26.2
-0.0083	0.0045	0.2235	-0.0135	26.7
0.006	0.009	0.2137	-0.0233	26.8
0.0217	0.0142	0.1942	-0.0218	27.1
0.03	0.0195	0.1672	-0.0143	27.6
0.0307	0.0052	0.1387	0.0015	27.6
0.0315	-0.0053	0.1117	0.009	28
0.0345	-0.0038	0.0937	-0.0008	28.2
0.0322	-0.0023	0.0765	0	28.7
0.03	-0.0008	0.063	0.0067	28.8
0.027	-0.0008	0.0472	0.0052	29
0.0225	0.0007	0.0307	0.009	29.4
0.0142	-0.0015	0.0217	0.0045	29.5
0.0067	-0.0008	0.0097	0.0007	29.9
-0.0023	-0.0023	0.0022	0.0007	30.1
-0.0105	-0.0038	-0.0015	-0.003	30.7
-0.0173	-0.0015	-0.0015	-0.0046	30.8
-0.021	-0.0015	-0.0008	-0.0053	31.2
-0.0248	0.0007	-0.0053	-0.003	31.4
-0.0308	0.0007	-0.0091	-0.0053	31.6
-0.0353	0.0007	-0.0135	-0.0038	31.9
-0.0375	-0.0008	-0.0165	0.0127	32.2
-0.039	0.0007	-0.0233	0.015	32.4
-0.0346	0	-0.024	-0.0015	32.9
-0.0315	-0.0008	-0.0181	0.0015	33
-0.0278	-0.0015	-0.0158	0.0007	33.4
-0.024	-0.0008	-0.0128	0	33.7
-0.0233	0	-0.0091	0.0067	33.9
-0.0203	0.0015	-0.0075	0.0007	34.5
-0.0188	0.0007	-0.0038	0.0007	34.6
-0.0158	-0.0023	0.0232	0.0007	35.1
-0.0128	-0.003	0.1087	-0.0008	35.1
-0.012	-0.0015	0.24	0.0015	35.6
-0.0143	-0.0008	0.3727	0.0067	35.9
-0.033	0.0015	0.4732	0.0157	36.1
-0.0638	0.0007	0.5407	0.0142	36.5
-0.0706	0.0015	0.5677	0.018	36.5
-0.0525	0.003	0.5377	0.0255	36.9
-0.0278	0.0015	0.4537	0.0232	37.3
-0.0008	-0.0015	0.3457	0.0202	37.5
0.0187	-0.0046	0.255	-0.0368	37.8
0.0307	-0.0015	0.1695	-0.0856	38
0.036	0.0015	0.0727	-0.0375	38.5
0.0382	0.0015	-0.0195	-0.0218	38.6
0.0405	0.0037	-0.1163	-0.0098	38.8
0.0427	0.0052	-0.2033	0.0142	39
0.0427	0.0037	-0.2836	0	39.2
0.0382	0.0015	-0.3481	0.0105	39.6
0.0307	-0.0023	-0.3938	0.0045	39.9
0.0217	-0.0008	-0.429	0.0022	40
0.0097	0	-0.453	-0.0038	40.4
-0.003	-0.0015	-0.4733	-0.027	40.8
-0.0105	-0.0015	-0.4808	-0.0353	40.9
-0.0091	0.0007	-0.4823	-0.0315	41
-0.0091	0.0015	-0.4755	-0.0008	41.3
-0.0098	-0.0015	-0.459	0.0202	41.6
-0.0053	-0.0015	-0.4298	0.033	41.7
-0.0023	-0.0068	-0.3953	0.0397	42
-0.0015	-0.0128	-0.3578	0.0382	42.2
-0.0008	-0.0091	-0.3195	0.0315	42.5
0.0015	-0.0038	-0.2843	0.0315	42.8
0.0015	0.0007	-0.2565	0.033	43
-0.0015	0.0045	-0.2295	0.0405	43.5
-0.003	0.0045	-0.2093	0.0517	43.5
-0.0046	0.0007	-0.1928	0.0345	43.7
-0.0023	0.0007	-0.1808	0.0187	44
0.0015	0.0022	-0.1748	-0.0308	44.2
0.0022	0.006	-0.1711	-0.0915	44.4
0.0052	0.0082	-0.1718	-0.057	44.6
0.0052	0.0052	-0.1726	-0.0091	45
0.009	0.003	-0.1726	-0.0143	45
0.0105	0	-0.1665	-0.0046	45.4
0.012	-0.0008	-0.1553	-0.0038	45.6
0.012	-0.003	-0.1373	-0.0105	45.7
0.0045	-0.003	-0.1118	-0.0046	46.1
0.0007	-0.003	-0.0818	-0.0091	46.1
0.0007	-0.0046	-0.048	0.0007	46.5
-0.003	-0.0046	-0.0135	0.0037	46.8
-0.0075	-0.003	0.0255	0.0112	46.9
-0.012	-0.003	0.0705	0.0255	47.1
-0.0181	-0.006	0.1215	0.0232	47.4
-0.0218	-0.0068	0.1792	0.0112	47.7
-0.0233	-0.0046	0.237	0	48
-0.0248	-0.003	0.2857	-0.027	48
-0.0218	0.0015	0.33	-0.0555	48.6
-0.0165	0.0067	0.375	-0.024	48.6
-0.0105	0.0082	0.4147	0.0045	49.1
-0.003	0.0037	0.4477	0.015	49.1
0.0015	-0.0008	0.4717	0.0262	49.5
0.0075	0.0007	0.486	0.0157	49.8
0.009	0.0007	0.4875	-0.0008	49.9
0.0105	-0.0008	0.4747	-0.0233	50.4
0.0157	-0.003	0.4537	-0.0315	50.4
0.0225	-0.0046	0.4222	-0.021	50.9
0.0292	-0.0046	0.3802	0	51
0.0345	-0.0053	0.3315	0.0082	51.3
0.0382	-0.0053	0.2767	0.0142	51.4
0.039	-0.0046	0.2167	0.0112	51.5
0.0405	-0.003	0.1545	0.006	51.9
0.0405	-0.003	0.0982	0.009	52.2
0.039	-0.0008	0.042	-0.0038	52.4
0.0405	-0.0008	-0.0083	-0.0091	52.5
0.0337	0.0007	-0.042	-0.0143	52.8
0.0105	0.0007	-0.0691	-0.0128	53
-0.0143	-0.0008	-0.093	0.0015	53.1
-0.0195	-0.0015	-0.1095	0.0307	53.5
-0.0105	-0.0015	-0.1178	0.0442	53.6
0.003	0.0007	-0.1163	0.0217	53.9
0.0165	0.0007	-0.1065	0.0105	54.2
0.0232	0.0022	-0.0856	-0.0015	54.3
0.0277	0.0022	-0.0623	-0.0075	54.7
0.0382	0.0052	-0.039	-0.0053	54.6
0.048	0.0045	-0.0143	-0.012	54.9
0.0577	0.0045	0.0165	0.0007	55.3
0.0705	0.003	0.0465	0.0187	55.3
0.078	0	0.0712	0.012	55.5
0.0787	0.0007	0.093	0.003	55.6
0.0765	0.0007	0.1087	0.0045	55.8
0.072	0.0037	0.1185	-0.0015	56
0.0622	0.0015	0.1222	0.0015	56.1
0.0502	0	0.12	-0.0008	56.5
0.033	-0.0015	0.1125	-0.003	56.4
0.0187	-0.0008	0.1012	-0.0008	56.7
0.006	0.0007	0.0877	-0.0046	56.7
-0.0038	0.0007	0.0697	-0.0015	56.8
-0.0091	0.0007	0.054	-0.003	56.9
-0.0135	-0.0008	0.039	-0.003	57.1
-0.0195	0.0015	0.0277	-0.0015	57.3
-0.0278	0.0015	0.0157	-0.003	57.4
-0.0338	0.0037	-0.003	-0.0023	57.4
-0.0398	0.003	-0.024	-0.0038	57.5
-0.042	0.003	-0.054	-0.0046	57.7
-0.0383	0.0037	-0.084	-0.0038	57.9
-0.0368	0	-0.0975	-0.0015	57.8
-0.0346	0.0007	-0.1155	-0.0023	58
-0.0308	0	-0.1343	-0.0008	58.1
-0.03	0.0007	-0.1358	-0.0008	58
-0.0293	0.0007	-0.1403	-0.0008	58.5
-0.0248	-0.0015	-0.1463	0.0007	58.2
-0.0218	0.0007	-0.153	-0.0008	58.5
-0.0195	0.0015	-0.1613	0	58.5
-0.0188	0	-0.1635	-0.0008	58.5
-0.0195	-0.0008	-0.1658	-0.0008	58.9
-0.0181	-0.0008	-0.1635	-0.0015	58.8
-0.0218	-0.0015	-0.165	-0.0023	58.8
-0.0256	0	-0.162	-0.003	59
-0.0285	0	-0.156	-0.0015	59
-0.0323	-0.0008	-0.1523	-0.003	59.2
-0.033	-0.0023	-0.1493	-0.0046	59.1
-0.0346	-0.0023	-0.1433	-0.0038	59.3
-0.0346	-0.0015	-0.1365	-0.0046	59.2
-0.0338	-0.0023	-0.1328	-0.0038	59.4
-0.0315	0	-0.1245	-0.0015	59.6
-0.0293	0.0007	-0.1133	-0.0008	59.5
-0.027	0	-0.1013	-0.0008	59.6
-0.0256	-0.0015	-0.093	-0.0015	59.6
-0.024	0	-0.0856	-0.0015	59.5
-0.0203	0	-0.0803	-0.0015	59.8
-0.0143	-0.0023	-0.078	-0.0023	59.8
-0.0008	-0.0015	-0.0728	-0.0015	59.9
0.0082	-0.0015	-0.0706	-0.0008	59.9
