File Name: depie.log
Channel 4: 'Recto Femoral', 10659 values, engineering units: mV, no filters.
Channel 5: 'Biceps Femoral', 10659 values, engineering units: mV, no filters.
Channel 6: 'Vasto Medial', 10659 values, engineering units: mV, no filters.
Channel 7: 'EMG Semitendinoso', 10659 values, engineering units: mV, no filters.
Channel 8: 'Flexo-Extension', 10659 values, engineering units: deg, no filters.

-0.003	-0.003	-0.006	-0.0015	5.7
0.0037	-0.0083	-0.0091	-0.0008	5.8
0.0045	-0.012	-0.0098	0	5.9
0.0015	-0.0113	-0.0105	0.0015	5.8
0.0015	-0.0075	-0.0098	0.0045	6.1
0.003	-0.0075	-0.0105	0.006	5.8
0.0052	-0.0075	-0.0105	0.0082	6.1
0.0052	-0.0083	-0.0105	0.0082	5.9
0.0052	-0.006	-0.0098	0.006	6.3
0.0075	-0.0023	-0.0068	0.0052	6.2
0.0052	0.0007	-0.0046	0.003	6.3
0.0052	0.0075	-0.0023	0.0007	6.3
0.0067	0.0157	-0.0023	0.0022	6.4
0.0067	0.009	-0.003	0.0037	6.5
0.0052	0.0015	-0.0008	0.0015	6.4
0.0022	0.0045	0	-0.0068	6.6
0	0.0067	0.0007	-0.0158	6.7
0	0.0112	0.003	-0.0143	6.6
0	0.0112	0.0045	-0.0053	6.7
-0.0008	0.0015	0.0067	0.0022	6.7
-0.003	-0.003	0.0075	0.0127	6.7
-0.0023	-0.0053	0.0067	0.0127	7
-0.0015	-0.0091	0.0082	0.0045	6.9
-0.003	-0.0091	0.0075	-0.0053	6.9
-0.003	-0.0105	0.0075	-0.0218	7.2
-0.0038	-0.0098	0.0082	-0.0165	7.1
-0.0046	-0.0091	0.0075	-0.0015	7.1
-0.0038	-0.0158	0.0067	-0.006	7.2
-0.0046	-0.0203	0.006	-0.0053	7.2
-0.006	-0.0233	0.0052	0.0075	7.2
-0.006	-0.0165	0.0067	0.0262	7.3
-0.0008	-0.0046	0.0082	0.021	7.3
0.0007	0.003	0.0082	0.0075	7.5
-0.0008	0.0105	0.0105	0.0165	7.6
0.0007	0.009	0.0127	0.0202	7.4
-0.0008	0.0067	0.0135	0.0232	7.8
-0.0008	0.0082	0.0157	0.0165	7.7
-0.0015	0.0067	0.0165	-0.0008	7.7
-0.0038	0.009	0.0165	-0.0173	7.8
-0.003	0.0097	0.0172	-0.027	7.6
-0.0046	0.0105	0.0165	-0.0181	7.9
-0.0008	0.0045	0.0157	-0.0083	7.9
0.009	0.0015	0.0157	-0.006	7.9
0.0165	0.0075	0.0165	-0.012	8.1
0.012	0.012	0.0157	-0.0158	8.1
0.0082	0.0015	0.0142	-0.0143	8.1
0.0082	-0.0105	0.0127	-0.0173	8.2
0.006	-0.0068	0.0127	-0.0203	8.3
0.006	0.0007	0.0135	-0.03	8.4
0.003	0.0127	0.012	-0.0263	8.4
0.0007	0.015	0.0127	-0.0091	8.4
0.0015	0.0052	0.012	0.0075	8.5
-0.003	-0.0046	0.0105	0.0157	8.6
-0.0053	-0.012	0.0097	0.0127	8.5
-0.003	-0.0143	0.0082	0.0045	8.7
-0.0046	-0.0181	0.0067	-0.012	8.5
-0.0075	-0.0203	0.0045	-0.015	8.8
-0.0068	-0.012	0.0022	0	8.7
-0.0046	-0.0075	0.0007	0.0082	8.8
-0.0038	-0.012	-0.0008	0.0105	9
-0.0046	-0.003	-0.003	0.0255	9.2
-0.003	0.015	-0.0053	0.0555	9
-0.0046	0.0277	-0.0083	0.0277	9.2
-0.006	0.0292	-0.0113	-0.0353	9
-0.0053	0.015	-0.0143	-0.024	9.1
-0.0015	0.0082	-0.0135	-0.0015	9.3
-0.0015	0.0082	-0.0165	0.006	9.3
-0.0038	0.0142	-0.0203	0.024	9.4
-0.003	0.0142	-0.0218	0.0262	9.6
-0.0038	0.0015	-0.0218	0.0255	9.4
-0.0046	-0.003	-0.0218	0.0112	9.5
-0.0023	0.0007	-0.0203	0.0082	9.9
-0.0008	0.0007	-0.0173	0.0082	9.6
-0.0008	-0.0053	-0.0165	-0.0008	9.9
-0.0015	0.0045	-0.0158	-0.0091	9.7
0	0.0217	-0.0143	-0.0188	9.7
-0.0023	0.0195	-0.0128	-0.012	10.1
-0.0046	0.0082	-0.012	-0.0105	9.9
0.0007	0.009	-0.0158	-0.0068	10.1
0.0037	0.003	-0.0158	0.0015	10.1
0.003	-0.0195	-0.0165	0.009	10.3
0.0037	-0.039	-0.0165	0.0067	10.2
0.0007	-0.0758	-0.0165	-0.0075	10.3
-0.003	-0.0915	-0.0181	-0.015	10.3
-0.0046	-0.057	-0.0195	-0.0225	10.4
-0.0023	-0.0128	-0.0195	-0.0203	10.4
0.0007	0.0082	-0.0188	-0.0135	10.4
0.0022	0.0112	-0.0195	-0.003	10.7
0.0067	0.0097	-0.0181	0.006	10.7
0.0082	0.0045	-0.0165	0.0052	10.5
0.0105	0	-0.0173	0.0127	10.9
0.0112	-0.0023	-0.0165	0.0082	10.9
0.0105	-0.0023	-0.0165	-0.0046	10.9
0.012	0	-0.0158	-0.0053	11.2
0.012	0.0135	-0.0158	-0.0105	11.1
0.012	0.0195	-0.0143	0.003	11.2
0.009	0.0165	-0.0105	0.018	11.2
0.0075	0.0067	-0.0091	0.0195	11.3
0.0052	-0.0053	-0.0068	0.0202	11.4
0.0045	-0.0068	-0.003	0.0135	11.5
0.0007	-0.006	-0.0008	-0.0023	11.7
-0.0015	0.003	0.0022	-0.0181	11.7
-0.0023	-0.0015	0.0045	-0.0046	11.7
-0.0046	-0.003	0.0067	0.0187	11.6
-0.0046	0.0067	0.0082	-0.0015	12
-0.0046	0.006	0.0097	-0.0293	11.9
-0.0046	0.021	0.0105	-0.0578	12.1
-0.0046	0.0292	0.012	-0.0743	12.1
-0.003	0.0157	0.0127	-0.0353	12.2
-0.0046	0.0015	0.0127	-0.0135	12.1
-0.0053	-0.012	0.015	0.0052	12.2
-0.003	-0.0195	0.0165	0.0435	12.3
-0.0038	-0.012	0.018	0.0675	12.4
-0.0023	-0.0053	0.0172	0.048	12.4
-0.003	-0.0053	0.0202	0.0157	12.5
-0.0015	-0.0083	0.0202	0.0442	12.8
-0.0008	-0.0015	0.0195	0.0345	12.6
-0.0023	0.0127	0.0195	0.0015	12.7
0.0007	0.0165	0.018	-0.0015	12.9
0.0007	0.0195	0.0157	-0.0181	12.8
-0.003	0.027	0.0157	-0.0233	13
-0.0038	0.0292	0.0135	-0.0083	13.1
-0.0008	0.024	0.012	0.012	13
-0.0008	0.0255	0.0142	0.0292	13.3
-0.0008	0.0345	0.0127	0.0382	13.1
-0.0046	0.0202	0.0105	0.0307	13.3
-0.0053	0.003	0.009	0.0255	13.4
-0.0046	-0.0053	0.009	-0.0585	13.3
-0.0023	-0.0105	0.0082	-0.1373	13.4
-0.0008	-0.0181	0.0082	-0.0675	13.5
-0.003	-0.0278	0.009	0.0015	13.7
-0.0008	-0.0323	0.0082	0.0465	13.7
0.0015	-0.0353	0.0082	0.072	14
0.0007	-0.0361	0.006	0.054	13.7
0.0045	-0.0218	0.006	0.0135	14.1
0.0045	-0.0015	0.0067	-0.0668	13.9
0.003	0.0022	0.0037	-0.156	13.9
0.003	-0.0091	0.003	-0.1575	14.1
0.0015	-0.0203	0.0007	-0.0015	14.2
-0.0008	-0.015	0.0007	0.0967	14.4
0.0007	-0.0098	0	0.0855	14.4
-0.0015	-0.0181	-0.0008	0.0667	14.4
-0.003	-0.0091	0.0007	0.036	14.7
-0.0015	0.003	0.0007	0.027	14.7
-0.0008	0.0067	0.0015	0.0075	14.8
0.0007	0.0067	0.003	0.042	14.8
-0.0008	0.0255	0.0052	0.06	14.8
-0.0015	0.0345	0.0075	0.0217	14.8
-0.0015	0.0157	0.0067	-0.0068	14.9
-0.0008	0.0165	0.006	0.012	15
0.003	0.0112	0.0082	0.039	15
0.0037	-0.0008	0.0075	-0.0128	15.2
0.0015	-0.0128	0.0045	-0.0818	15.1
0.003	0.0052	-0.0008	-0.1553	15.3
0.0052	0.0382	-0.0008	-0.1035	15.4
0.0045	0.0217	-0.0023	-0.0428	15.4
0.0045	0.003	-0.0068	-0.0533	15.5
0.003	-0.0053	-0.0075	0.0142	15.6
0.003	-0.0128	-0.0046	0.0622	15.6
0.0015	-0.012	-0.0008	0.1177	15.8
0	-0.012	0	0.1275	15.8
0.0007	-0.0068	0	0.1102	15.9
-0.0015	-0.0091	0.0007	0.0855	16.1
-0.0008	-0.0195	-0.0008	-0.0518	15.9
-0.0008	-0.027	-0.003	-0.213	15.9
-0.0008	-0.021	-0.0046	-0.1711	16.3
0.0007	-0.0105	-0.0015	0.0082	16.1
0	-0.0105	-0.0008	0.0382	16.4
-0.0008	-0.0165	-0.0008	0.048	16.4
-0.0046	-0.0256	-0.0023	0.0367	16.4
-0.0053	-0.0383	-0.003	-0.0128	16.7
-0.0046	-0.0285	-0.0046	-0.0503	16.5
-0.006	-0.0023	-0.0053	-0.078	16.6
-0.0038	0.0075	-0.003	-0.033	16.8
-0.003	0.018	-0.003	-0.0293	16.6
-0.0046	0.0127	-0.0023	0.003	16.9
-0.0038	0.0112	-0.0015	-0.0015	17
-0.0046	0.0405	-0.0015	-0.0165	17
-0.003	0.048	0.0007	0.0045	16.9
-0.0008	0.0562	0.0022	-0.0068	17.2
-0.0015	0.0585	0.003	0.0127	17.3
0.0007	0.0292	0.003	0.0112	17.5
0.0045	0.0052	0.0007	0.0165	17.4
0.003	-0.0053	0	0.015	17.3
-0.0008	-0.0046	0.0007	0.0127	17.5
-0.0015	-0.006	0	0.009	17.5
0.0007	-0.0165	-0.0023	0.0157	17.7
0.003	-0.0181	-0.003	0.0637	17.9
0.0015	-0.0256	-0.0015	0.0742	17.9
0.003	-0.0308	-0.0015	0.0622	18
0.0015	-0.0218	0	0.042	18.1
0	-0.0233	-0.0015	0.0007	18.1
-0.0015	-0.0165	-0.003	-0.0218	18.2
-0.003	-0.0046	-0.0023	-0.0015	18.2
-0.0008	0	-0.003	0.0105	18.4
0.0015	0.0127	-0.0038	-0.0083	18.4
0.0015	0.0217	-0.0038	-0.006	18.4
0.0007	0.0255	-0.0023	0.0022	18.6
0.0015	0.0187	-0.0046	0.0247	18.7
-0.0008	-0.0068	-0.0046	0.0202	18.7
0.0007	-0.042	-0.0023	0.0045	18.7
0.003	-0.063	-0.003	-0.0053	18.9
0.0022	-0.0436	-0.0015	-0.033	18.8
0.0015	-0.0195	-0.0015	-0.0181	19
0.0007	-0.0105	-0.003	0.0165	19.1
0.0022	0.0067	-0.003	-0.0083	19.2
-0.0015	0.03	-0.0046	-0.0511	19.4
0.0007	0.0352	-0.0053	-0.0278	19.3
0.003	0.036	-0.0053	-0.0158	19.4
0.0007	0.039	-0.0023	-0.0008	19.6
0.0007	0.0255	-0.0015	0.0315	19.7
-0.0008	0.0007	-0.0008	0.0202	19.6
0.0037	-0.039	-0.0008	0.0142	19.8
0.0052	-0.0615	-0.0008	-0.0091	19.8
0.0067	-0.045	0	-0.0315	19.8
0.0075	-0.0143	0.0015	-0.0398	20.2
0.0052	0.0082	0.0015	-0.0578	19.9
0.0127	0.024	0.0045	-0.0428	20
0.0142	0.0262	0.0045	0.012	20.2
0.0127	0.0127	0.003	0.0675	20.2
0.0105	0.0052	0.0007	0.1245	20.5
0.0067	-0.003	-0.0008	0.117	20.4
0.0045	-0.0173	0.0015	0.0015	20.6
-0.0008	-0.0218	0.0007	-0.075	20.5
-0.0023	-0.0053	0	-0.0458	20.7
-0.003	0.0157	0.0007	-0.0218	20.8
-0.0023	0.0315	0.0015	-0.048	20.8
-0.0015	0.033	0.0022	-0.048	20.8
-0.0023	0.0277	0.0015	-0.054	20.9
-0.0015	0.0187	0.0022	-0.0691	21.1
-0.0015	0.0097	0	-0.0473	21
0.0007	0.0135	-0.0008	0.006	21.2
0.0037	0.0075	-0.0008	0.018	21.4
0.003	0.0052	-0.0015	0.0067	21.5
-0.0008	0.0195	-0.0015	0.0322	21.7
0	0.0255	-0.0008	0.0255	21.5
0.0007	0.0195	-0.0015	0.0285	21.7
-0.0008	0.003	-0.0015	0.0097	21.7
-0.0015	-0.021	-0.0008	0.0067	21.9
-0.0015	-0.033	0.0007	0.0352	22.1
0.0015	-0.0405	0.003	0.018	22
0.0007	-0.042	0.0037	0.0082	22
0.0007	-0.027	0.0067	0.0015	21.9
0.0007	-0.0218	0.0075	0.0105	22.2
-0.0023	-0.0128	0.0097	0.0105	22.1
-0.003	-0.0128	0.0097	0.003	22.3
-0.003	-0.021	0.0082	-0.0053	22.4
-0.0015	-0.012	0.0082	-0.0053	22.5
0.0015	0	0.0082	0.012	22.7
0.0007	0.0187	0.0075	-0.0015	22.5
0	0.0292	0.0045	-0.006	22.9
0	0.0307	0.0037	-0.003	22.9
-0.0046	0.0217	0.0015	-0.0218	22.7
-0.0046	0.0067	0.0007	-0.0375	22.9
-0.003	0.0045	0	-0.0338	23
-0.0038	-0.006	-0.0008	-0.0135	23.2
-0.003	-0.0181	0.0007	0.0142	23.1
0.0007	-0.0346	-0.0023	0.042	23.1
-0.0008	-0.0765	-0.003	0.054	23.4
0	-0.099	-0.0046	0.0457	23.6
0.0022	-0.0915	-0.0053	0.0345	23.4
0.0015	-0.066	-0.0075	0.0262	23.4
0.0022	-0.0353	-0.0083	0.003	23.6
0.0015	-0.012	-0.0083	0.012	23.4
-0.0015	0.0127	-0.0091	0.0255	23.8
0	0.051	-0.0098	-0.0023	23.8
0.0007	0.0877	-0.0091	-0.0181	23.9
-0.0023	0.1042	-0.0105	-0.0436	24.1
-0.003	0.0997	-0.0098	-0.0833	24
-0.0008	0.0922	-0.0091	-0.0938	24.1
-0.0023	0.0892	-0.0098	-0.078	24.4
-0.0046	0.084	-0.0113	-0.0645	24.2
-0.003	0.0532	-0.0113	-0.0585	24.3
-0.003	0.0247	-0.0105	-0.0315	24.6
-0.0023	0.0187	-0.0105	-0.0098	24.6
0.0007	-0.0105	-0.0105	0.021	24.6
0.003	-0.0375	-0.0068	0.0585	24.8
0.003	-0.042	-0.0015	0.0787	24.9
0.0037	-0.042	0.0045	0.108	25.2
0.0015	-0.0555	0.0052	0.12	25.3
-0.0015	-0.0713	0.003	0.1072	25.1
-0.0008	-0.06	0.0015	0.0765	25.2
0.0007	-0.0473	0.0022	0.024	25.2
0.0015	-0.0458	0	-0.0691	25.3
0.0022	-0.0278	-0.0053	-0.1298	25.4
0.0015	0.0075	-0.0038	-0.09	25.3
0.003	0.0135	-0.0053	-0.0675	25.6
0.003	-0.0008	-0.0068	-0.0833	25.6
0.003	0.0075	-0.0083	-0.0713	25.8
0	0.0307	-0.0091	-0.0465	25.8
-0.0015	0.0397	-0.0083	-0.003	25.9
-0.0023	0.0255	-0.0091	0.0217	25.9
-0.0053	0.0067	-0.0105	0.0345	26.2
-0.006	-0.003	-0.0068	0.0465	26.1
-0.0053	-0.0113	-0.003	0.039	26.3
-0.006	-0.033	-0.003	0.0345	26.5
-0.0053	-0.039	0.0007	0.0142	26.4
-0.0053	-0.0233	0.006	0	26.5
-0.0046	-0.0203	0.009	0.0075	26.6
-0.0046	-0.0165	0.012	0.0232	26.6
-0.003	-0.0188	0.0127	0.0517	26.9
-0.003	-0.0195	0.0127	0.057	26.9
-0.0053	0.0037	0.0127	0.0495	26.8
-0.0046	0.0225	0.015	0.0532	27
-0.0075	0.0262	0.0157	0.0472	27.1
-0.0098	0.015	0.0135	0.0277	27.2
-0.006	0.0097	0.0142	-0.024	27.4
-0.0053	0.0292	0.0157	-0.0856	27.3
-0.0075	0.0405	0.0135	-0.108	27.3
-0.0068	0.009	0.012	-0.0863	27.4
-0.0075	-0.0188	0.009	-0.0436	27.6
-0.0075	-0.003	0.0067	0.003	27.6
-0.006	0.0022	0.006	0.0495	27.8
-0.006	0.012	0.0052	0.0615	27.8
-0.0083	0.0202	0.0045	0.063	28
-0.006	0.0172	0.0037	0.0577	27.9
-0.003	0.0157	0.0015	-0.003	28
-0.0038	-0.0143	0.0007	-0.0488	28.2
-0.003	-0.0405	0.0007	-0.0098	28.2
-0.0008	-0.0346	0.0007	-0.0008	28.5
0.0007	-0.0075	-0.0008	-0.0098	28.3
0.0022	0.021	-0.0015	0.0375	28.6
0.003	0.0315	-0.0015	0.027	28.6
0.0037	0.012	-0.0046	-0.0315	28.7
0.0015	-0.0143	-0.0053	-0.0623	28.7
0.0022	-0.0256	-0.003	-0.0638	28.8
0.0052	-0.0195	0.0007	-0.075	29
0.0067	-0.0015	0.0022	-0.0833	28.9
0.0052	0.012	0.0007	-0.0346	29.2
0.003	0.0142	-0.0023	0.0082	29.1
0.0037	-0.0023	-0.0038	0.015	29.2
0.0045	-0.0068	-0.0046	0.006	29.6
0.0052	-0.012	-0.0075	-0.0023	29.3
0.0082	-0.033	-0.0105	0.0052	29.6
0.0067	-0.0315	-0.0083	0.0142	29.6
0.0052	-0.0015	-0.0098	0.009	29.6
0.006	0.0202	-0.0113	0.0022	29.8
0.0052	0.0225	-0.0098	0.0157	29.9
0.0045	0.0202	-0.0091	0.0157	29.9
0.006	0.0225	-0.0091	0.0067	30.1
0.0052	0.0382	-0.0098	0.0127	30.2
0.006	0.033	-0.0098	0.0165	30.2
0.009	0.0045	-0.0091	0.024	30.4
0.0082	-0.0165	-0.0091	0.051	30.4
0.009	-0.0436	-0.0113	0.0615	30.5
0.0097	-0.0405	-0.0135	0.015	30.6
0.0075	-0.0128	-0.0113	-0.0256	30.6
0.0075	0.0075	-0.0091	-0.015	30.8
0.0067	0.0345	-0.0068	0.018	30.9
0.0067	0.042	-0.0053	0.033	30.9
0.0082	0.0322	-0.0068	0.0277	31.2
0.0105	0.0165	-0.0083	0.0082	31.2
0.0082	-0.0091	-0.0098	-0.042	31.3
0.0052	-0.0181	-0.0091	-0.0053	31.4
0.0067	-0.0128	-0.0098	0.0555	31.6
0.0045	-0.003	-0.0105	0.0405	31.5
0.003	0.003	-0.0091	0.0412	31.8
0.0037	-0.0008	-0.0075	0.0345	31.9
0.0067	-0.0053	-0.0075	0.0067	31.9
0.0082	-0.0128	-0.0053	-0.0653	32.1
0.0075	-0.039	-0.0068	-0.1328	32
0.0067	-0.063	-0.0083	-0.0765	32.2
0.0052	-0.0691	-0.0053	-0.0203	32.4
0.0045	-0.0533	-0.0046	-0.027	32.3
0.0067	-0.0346	-0.003	-0.0158	32.5
0.0052	-0.0181	-0.003	-0.0181	32.5
0.0045	0.0037	0	-0.0225	32.8
0.0052	0.0007	0.003	-0.024	32.9
0.0045	0.012	0.0045	-0.0128	32.9
0.0007	0.0225	0.0052	0.0172	33.1
-0.0008	0.009	0.006	0.027	33.3
-0.0008	0.0015	0.0082	0.0262	33.3
-0.0008	-0.0128	0.0127	0.027	33.3
0	-0.0098	0.015	0.039	33.6
0.0007	0.0105	0.0135	0.0292	33.5
0	0.0307	0.012	0.012	33.6
0.0007	0.021	0.0127	0.003	33.7
0.003	0.0127	0.0112	-0.0053	33.8
0.0007	0.0345	0.009	0.006	33.9
-0.0008	0.0427	0.009	-0.0091	34
-0.0038	0.033	0.0082	-0.0248	34.2
-0.003	-0.0023	0.0067	0.0037	34.2
-0.003	-0.0158	0.0037	0.0427	34.2
-0.003	-0.0098	0.0045	0.033	34.4
-0.0008	0.0082	0.0052	-0.0248	34.5
-0.0046	0.0615	0.0052	-0.0653	34.6
-0.0046	0.0975	0.0052	-0.0683	34.6
-0.006	0.087	0.0045	-0.0495	34.9
-0.0083	0.0367	0.0052	-0.0218	34.7
-0.0083	0.0082	0.0067	-0.0091	35.1
-0.0091	0.0007	0.0082	-0.0075	35.2
-0.006	-0.0165	0.009	0.0427	35.2
-0.006	-0.0443	0.0112	0.1117	35.5
-0.0083	-0.063	0.0127	0.12	35.5
-0.0038	-0.0436	0.0142	0.0637	35.5
-0.0008	-0.0233	0.015	-0.033	35.9
-0.0015	-0.003	0.0157	-0.0968	35.6
-0.0015	-0.0046	0.0157	-0.1043	35.9
-0.0015	-0.0143	0.0142	-0.0743	36.1
-0.003	-0.0015	0.0127	-0.0248	36
-0.003	-0.0008	0.012	0.0307	36.4
-0.0038	-0.0256	0.009	0.0675	36.4
-0.003	-0.0578	0.006	0.0705	36.4
-0.0015	-0.075	0.0067	0.0427	36.4
-0.0046	-0.075	0.0045	-0.0046	36.7
-0.0053	-0.057	0.0022	0.003	36.6
-0.003	-0.0158	0.0022	0.0082	36.8
-0.0023	0.0487	0.0007	-0.0218	37
-0.0015	0.0892	-0.0008	-0.0293	37
0	0.066	-0.0008	-0.0315	37.3
-0.0023	-0.0008	0	-0.0278	37
-0.0023	-0.0293	0.0007	-0.042	37.2
-0.0008	-0.0158	0.003	-0.0353	37.4
-0.003	-0.027	0.0045	-0.0053	37.4
-0.0038	-0.0293	0.0075	0.0097	37.8
-0.0023	-0.0098	0.009	0.0277	37.7
-0.003	0.0262	0.009	0.0232	37.8
-0.0046	0.054	0.0082	0.0082	38
-0.0053	0.0667	0.006	-0.0046	38.2
-0.0046	0.057	0.0037	-0.0068	38.3
-0.0046	0.0352	0.0007	0.0045	38.4
-0.0053	0.0345	0.0007	0.0285	38.4
-0.003	0.006	-0.0008	0.066	38.6
-0.003	-0.0308	-0.003	0.078	38.7
-0.0008	-0.06	-0.003	0.0727	38.7
0.0015	-0.0706	-0.0046	0.027	39
-0.003	-0.0788	-0.006	-0.0015	38.8
-0.0046	-0.0908	-0.0091	0.018	39.1
-0.0046	-0.0368	-0.012	-0.0075	39.2
-0.003	0.0255	-0.012	-0.0495	39.2
-0.003	0.0787	-0.0098	-0.0871	39.4
-0.003	0.0975	-0.0113	-0.081	39.6
-0.0053	0.0562	-0.0143	-0.0308	39.6
-0.0053	0.0157	-0.0143	-0.0181	39.6
-0.0023	-0.0353	-0.0128	-0.0248	39.9
-0.0015	-0.0713	-0.0098	-0.03	40
-0.0008	-0.081	-0.0091	0.0195	39.9
0.0007	-0.075	-0.0091	0.0532	40.1
-0.003	-0.0413	-0.0091	0.0037	40.2
-0.0038	-0.0083	-0.0083	0.012	40.3
-0.0015	-0.0105	-0.0053	0.0367	40.5
0.0007	0.0082	-0.003	-0.012	40.5
0.0007	0.0712	-0.003	-0.0743	40.9
-0.0008	0.1027	-0.003	-0.1058	40.7
-0.0008	0.0907	-0.0015	-0.084	41
0.0007	0.0652	0	-0.0533	41.1
0.003	0.0555	0.0007	-0.0195	41.3
0.0007	0.0307	0.0007	0.018	41.3
0.0022	-0.0068	0.0007	0.0277	41.4
0.0052	-0.0181	0.0007	0.051	41.5
0.0037	-0.0233	0.0015	0.0652	41.6
0.0015	-0.0158	0.0052	0.0735	41.8
0.0007	-0.0203	0.0052	0.0652	41.7
-0.0008	-0.0308	0.006	0.0202	41.9
0.0015	-0.0158	0.009	-0.024	41.9
0.0045	0.0075	0.009	-0.042	42
0.0052	0.0082	0.0105	-0.0285	42.2
0.0052	-0.0038	0.009	-0.0091	42.2
0.0037	-0.0165	0.0082	0.0067	42.5
0.003	-0.0323	0.0067	0.0307	42.5
0.003	-0.033	0.0037	0.0405	42.5
0.0022	-0.03	0.0022	0.015	42.9
0.003	-0.0195	0.0007	0.0015	42.8
0.0037	-0.0068	-0.0015	0.0165	42.8
0.003	0.0015	-0.0046	0.0165	43.1
0.0015	0.0195	-0.0083	0.0082	43.2
0.0015	0.0352	-0.0098	-0.0008	43.3
0.003	0.0607	-0.0113	-0.0158	43.4
0.0022	0.0727	-0.0128	-0.0218	43.5
0.0007	0.054	-0.0128	-0.0091	43.3
0.003	0.0405	-0.0128	0.0052	43.8
0.003	0.0105	-0.0128	0.0307	43.8
0.003	-0.0413	-0.012	0.0705	43.9
0.0015	-0.0818	-0.0128	0.054	44.1
0	-0.0998	-0.0128	0.027	44.1
0.0015	-0.075	-0.0105	0.0045	44.2
0.0015	-0.0428	-0.0105	-0.0773	44.3
-0.0008	-0.0195	-0.0091	-0.0713	44.4
-0.0008	0.0157	-0.006	0.0187	44.8
0.0007	0.0255	-0.0053	0.0375	44.6
0.0015	0.0217	-0.0068	0.0465	44.9
0.0007	0.018	-0.0083	0.0202	44.8
0.0015	0.021	-0.0068	-0.0256	45.1
0.0015	0.0015	-0.006	-0.0173	45.1
0.0015	-0.063	-0.006	0.009	45.4
0.0045	-0.1013	-0.0053	0.0127	45.4
0.0067	-0.0593	-0.0008	-0.057	45.4
0.0052	0.0202	0.0015	-0.0975	45.6
0.0037	0.0412	0.0037	-0.0975	45.7
0.0037	0.0232	0.0052	-0.1006	45.9
0.0037	0.0352	0.0067	-0.0743	46
0.0052	0.0592	0.009	-0.0458	46
0.0045	0.0592	0.0082	0.0015	46.2
0.003	0.0307	0.0082	0.0352	46.3
0.0015	0.0345	0.006	0.0517	46.4
0.0007	0.036	0.003	0.063	46.7
-0.0008	0.0217	0.0045	0.0427	46.5
0.0015	0.0067	0.0045	0.0187	46.6
0.0052	0.0037	0.0037	0.0015	46.8
0.0067	0.0157	0.0045	-0.0091	47
0.0067	-0.0098	0.0045	-0.0203	46.9
0.0082	-0.039	0.0045	-0.0128	47.2
0.0082	-0.0488	0.0045	0.0082	47.2
0.006	-0.0293	0.0007	0.0255	47.4
0.0045	-0.0383	0.003	0.0382	47.4
0.0045	-0.0293	0.0052	0.0292	47.4
0.0015	0.0067	0.0037	0.0247	47.6
-0.0015	0.0067	0.0052	0.0105	47.6
-0.0008	0.0067	0.0052	0.0015	47.7
-0.0015	0.0007	0.003	0.015	48.1
-0.003	-0.0038	0.0045	0.0405	48
-0.003	-0.0293	0.0015	0.0727	48.2
-0.003	-0.027	-0.0015	0.0712	48.3
-0.0023	-0.0046	-0.003	0.0787	48.5
-0.003	0.0015	-0.0015	0.0915	48.4
-0.0008	-0.0285	-0.0015	0.0667	48.6
0.0015	-0.0383	0	0.0067	48.6
0.0015	0.0292	0.0007	-0.0615	48.7
-0.0015	0.0315	0.0015	-0.0915	48.8
-0.0023	-0.0038	0.0015	-0.126	48.8
-0.003	-0.012	0.0015	-0.1448	49.1
-0.0053	0.0195	0.0015	-0.1058	49.1
-0.0046	0.057	0	-0.06	49.1
-0.0075	0.0345	-0.0008	-0.0068	49.3
-0.0068	0.0322	0.0015	0.0315	49.5
-0.0053	0.0307	0.0037	0.0525	49.6
-0.0091	0.0285	0.0045	0.0637	49.7
-0.0091	0.0067	0.003	0.033	49.7
-0.0046	-0.045	0.0067	-0.0046	49.9
-0.0046	-0.0458	0.0075	-0.0443	50
-0.0038	-0.0158	0.0082	-0.084	50.1
0.0007	-0.0263	0.012	-0.0585	50.1
0.0007	-0.0293	0.0082	-0.0278	50.2
-0.0008	-0.0053	0.0015	0.0082	50.2
-0.003	-0.0218	-0.0008	0.0915	50.6
-0.003	-0.027	-0.0015	0.0652	50.5
-0.0015	0.0277	-0.0008	-0.0383	50.6
-0.0046	0.0915	-0.0008	-0.0735	50.8
-0.0046	0.0517	-0.0008	-0.0315	50.7
-0.003	-0.0068	0	0.0397	51
-0.0015	0.0045	0.0007	0.0592	51.1
-0.0008	0.0112	0.0015	0.0607	50.9
0.0015	-0.0128	0.0045	0.0495	51.3
0.003	-0.0555	0.0067	0.0367	51.2
0.0045	-0.0706	0.0082	0.0172	51.3
0.0052	-0.0518	0.0097	-0.0533	51.4
0.0045	0.009	0.0105	-0.0863	51.6
0.0037	0.0352	0.009	-0.1178	51.6
-0.0008	0.0382	0.0082	-0.1065	51.7
0	0.0405	0.006	-0.0195	51.9
0.0007	0.0157	0.0052	0.009	51.9
0.0015	0.018	0.0052	0.0232	52.1
0.0015	0.012	0.0052	0.036	52
0.0007	0.003	0.0045	0.054	52.2
0.0007	-0.0068	0.0037	0.105	52.3
-0.0015	-0.0368	0.0022	0.123	52.4
-0.0023	-0.0428	0	0.0862	52.5
0	-0.0293	-0.0008	0.0382	52.5
0	-0.0173	-0.0015	0.0082	52.7
-0.0015	0.012	-0.0015	-0.012	52.8
-0.0046	0.0532	-0.0046	-0.057	52.7
-0.0046	0.0667	-0.0068	-0.0915	52.9
-0.0053	0.0337	-0.0068	-0.0533	53.1
-0.0068	-0.0248	-0.0083	-0.0008	53.1
-0.0015	-0.0511	-0.0083	0.0172	53.1
0.0045	-0.06	-0.0068	0.0172	53.4
0.0082	-0.0713	-0.0053	-0.0256	53.4
0.0067	-0.0181	-0.0038	-0.0803	53.5
0.0052	0.0352	-0.003	-0.0915	53.6
0.003	0.0345	-0.0046	-0.0495	53.6
0.0007	0.036	-0.0053	-0.0046	53.9
-0.0008	0.042	-0.0053	-0.006	53.7
-0.003	0.0495	-0.0053	0.0345	54
0.0022	0.0217	-0.0053	0.0937	54.2
0.003	-0.042	-0.0053	0.0315	54.1
0.0037	-0.0195	-0.0046	-0.0353	54.2
0.0037	-0.0046	-0.0046	0.012	54.4
0.0007	-0.0488	-0.006	0.0255	54.5
0.0015	-0.0346	-0.0068	-0.012	54.4
0.0022	-0.0436	-0.0075	-0.006	54.5
0.0045	-0.0353	-0.0091	-0.0015	54.8
0.003	-0.024	-0.0091	-0.0008	54.7
0.0007	-0.0181	-0.0091	0.0232	54.9
-0.0008	0.0127	-0.0068	0.0652	54.8
0	0.0082	-0.006	0.0652	55
0.0015	0.045	-0.0068	0.0195	55.1
0.0015	0.0727	-0.0053	-0.0135	55.3
0.0015	0.0397	-0.0053	-0.0405	55.4
0.0007	-0.0068	-0.0046	-0.0263	55.2
0.003	-0.021	-0.0015	0.0165	55.7
0.0045	-0.0038	0.0007	-0.0188	55.7
0.003	0.0277	0.003	-0.0593	55.7
0.003	0.033	0.003	-0.021	55.9
-0.0008	-0.0046	0.0052	0.0075	55.8
-0.0008	-0.0308	0.006	0.0315	56
0.0015	-0.0608	0.0075	0.0345	56.1
0.003	-0.0525	0.0082	0.027	56.2
0.0015	-0.0158	0.006	0.0112	56.2
-0.0015	0.027	0.003	-0.0368	56.4
-0.0038	0.0435	0	-0.0458	56.5
-0.0023	0.024	-0.0008	-0.0495	56.5
-0.003	0.0345	-0.003	-0.048	56.8
-0.003	0.0225	-0.003	-0.0181	56.6
-0.0015	-0.015	-0.0046	0.021	56.8
-0.0008	-0.048	-0.0053	0.0502	56.9
0	-0.024	-0.0046	0.0795	57
-0.0038	-0.0023	-0.0075	0.1282	57.2
-0.0046	-0.0413	-0.0068	0.153	57.3
-0.0038	-0.0443	-0.0053	0.1447	57.4
0	-0.0233	-0.0046	0.0772	57.4
0.003	0.0157	-0.0015	-0.0158	57.5
0.0045	0.0255	0.0007	-0.0953	57.4
0.0052	-0.0015	0.0045	-0.1043	57.6
0.0045	-0.0218	0.0067	-0.0856	57.7
0.0067	-0.0053	0.0082	-0.1523	57.7
0.0052	0.0217	0.0082	-0.111	58
0.0052	0.012	0.009	-0.0638	57.9
0.0052	0.0615	0.0105	-0.0923	58.2
0.0015	0.0727	0.0112	-0.0233	58.2
0.0007	0.0232	0.0105	0.0412	58.2
-0.0015	0.0315	0.0067	0.1042	58.5
-0.0008	-0.0143	0.0015	0.123	58.5
0.0007	-0.0653	-0.003	0.0877	58.7
0.0007	-0.0706	-0.0046	0.0555	58.8
0.0007	-0.0465	0	-0.0465	58.7
0.0105	0.0307	0.0052	-0.1515	58.9
0.012	0.0315	0.0045	-0.129	59
0.006	-0.003	0.0045	-0.0503	59.1
0.0052	0.009	0.0015	-0.0555	59.2
0.0037	-0.0023	-0.0008	-0.057	59.4
0.003	0.0127	0	-0.03	59.3
0.0015	0.0517	-0.0008	-0.0225	59.5
-0.003	0.0592	0.0015	0	59.6
-0.0023	0.0637	0.003	0.0277	59.7
-0.003	0.0615	0.003	0.0562	59.9
-0.006	0.048	0.0015	0.1305	59.9
-0.0105	-0.0046	-0.0015	0.207	60.1
-0.0068	-0.0638	0.0015	0.1815	60
0.0015	-0.105	0.0052	0.0397	60.1
0.0022	-0.1028	0.003	-0.153	60.3
-0.0015	-0.0825	0.0015	-0.1043	60.5
-0.0015	-0.1028	0	0.0637	60.6
-0.0023	-0.078	-0.0053	0.048	60.6
-0.0015	-0.0203	-0.0068	0.027	60.6
-0.003	0.054	-0.0083	-0.0593	60.7
-0.006	0.093	-0.0075	-0.1463	60.9
-0.003	0.0262	-0.0053	-0.054	60.8
0	0.0015	-0.003	-0.0473	61
0.0022	0.0667	0.0007	-0.1523	61.2
0.0015	0.0675	0.0015	-0.1335	61.1
0.0022	0.0007	0.0022	-0.027	61.5
0.0015	-0.0098	0.0045	0.021	61.5
0	0.0105	0.0045	0.018	61.6
-0.0015	0.0082	0.0052	0.0472	61.8
-0.0046	-0.0143	0.006	0.0495	61.8
-0.0046	-0.0181	0.0045	0.063	61.9
-0.006	0.0045	0.0052	0.1327	62.1
-0.0075	-0.0075	0.003	0.1665	62
-0.006	-0.0315	0.0022	0.1477	62.2
-0.003	-0.0338	0.0022	0.0592	62.2
-0.0015	0.0195	-0.0008	-0.0083	62.3
-0.0008	0.0427	0	-0.0128	62.4
-0.0023	-0.054	-0.0008	-0.0368	62.7
-0.0008	-0.0653	0.0015	-0.093	62.6
0.0007	-0.0008	0.0007	-0.15	62.9
-0.0008	0.0292	0.0007	-0.0773	62.9
0.0007	0.0217	-0.0015	0.0442	63
-0.0015	0.0067	-0.0015	0.0637	63.2
-0.0075	0.0352	-0.003	0.0705	63.1
-0.0083	0.0067	-0.0053	0.0472	63.2
-0.0046	-0.0181	-0.0046	-0.0165	63.4
-0.0008	0.0052	-0.0046	-0.0346	63.4
0	0.0337	-0.0023	-0.075	63.7
-0.003	0.0322	-0.0023	-0.1208	63.8
-0.0046	-0.0023	-0.0038	-0.0788	63.9
-0.003	-0.0195	0.0007	-0.015	63.9
-0.0015	-0.0165	0.0052	0.0315	64.3
0.0007	-0.0203	0.003	0.0547	64.2
0.0015	-0.0683	0.0007	0.0945	64.4
0.0007	-0.078	-0.003	0.117	64.4
0.0037	-0.0383	-0.0075	0.0682	64.5
0.006	0.009	-0.0105	0.0045	64.6
0.0052	0.03	-0.015	-0.045	64.7
0.0037	0.018	-0.0105	-0.0256	64.7
0.0045	0.0165	-0.0083	0.0195	65.1
0.003	0.0202	-0.0091	0.0322	64.8
0.0007	0.0135	-0.0083	0.018	65.1
-0.0008	0.0037	-0.0075	-0.0593	65.1
-0.0023	0.0255	-0.0068	-0.1193	65.3
-0.0008	0.045	-0.0046	-0.1215	65.4
-0.0008	0.0742	-0.0023	-0.1178	65.4
0.003	0.066	-0.0046	-0.0473	65.6
0.0022	0.0232	-0.0068	0.0232	65.6
0	0.0225	-0.0068	0.0352	65.9
0.0045	-0.0383	-0.003	0.057	65.8
0.0052	-0.0871	0.0007	0.063	66.1
0.0075	-0.0706	0.0022	0.027	66.1
0.0075	-0.0548	0.0022	0.036	66.2
0.009	-0.057	0.0022	0.072	66.5
0.0097	-0.0428	0.0045	0.0495	66.4
0.0052	0.0232	0.0082	-0.0038	66.7
0.0037	0.0547	0.0082	-0.0518	66.6
0.003	0.0607	0.0082	-0.0368	66.7
0.003	0.0472	0.009	0.003	67.2
0.003	0.0405	0.009	0.0082	67
0.0007	0.0442	0.0105	-0.0083	67.3
0.0022	0.027	0.0112	-0.0098	67.3
0.003	0.0142	0.0112	0.0315	67.4
0.0037	-0.0278	0.0105	0.0397	67.5
0.0052	-0.0428	0.0105	0.0262	67.7
0.0037	-0.0323	0.0082	0.024	67.8
-0.0008	-0.0533	0.0067	0.0322	67.9
0.003	-0.066	0.0067	0.0495	68
0.0045	-0.0098	0.0045	0.0292	68
0.003	0.0487	0.0045	-0.0181	68.3
-0.0008	0.0412	0.0022	-0.0555	68.3
-0.0015	0.0187	0.0007	-0.048	68.5
0	-0.012	-0.0008	-0.0195	68.8
-0.003	-0.0518	0.0007	-0.0135	68.6
-0.003	-0.075	0.0045	-0.024	68.9
-0.0015	-0.0256	0.0067	-0.042	69
-0.003	0.0375	0.0075	-0.054	69.1
-0.0046	0.063	0.009	-0.0863	69.3
-0.0053	0.0502	0.009	-0.0833	69.4
-0.006	0.0195	0.009	-0.0083	69.5
-0.0053	0.0082	0.0052	0.0375	69.6
-0.0038	-0.0458	-0.006	0.1012	69.8
-0.0038	-0.0863	-0.012	0.1935	69.7
-0.0038	-0.054	-0.012	0.195	70
-0.0015	0.0127	-0.0128	0.105	70
-0.0038	0.0952	-0.0105	-0.0346	70.2
-0.0053	0.1537	-0.0105	-0.1433	70.3
-0.0053	0.123	-0.0135	-0.099	70.2
-0.006	0.0052	-0.0165	0.0075	70.6
-0.003	-0.0871	-0.0158	0.0345	70.6
-0.0015	-0.1643	-0.012	0.0442	70.6
0.0022	-0.1913	-0.0046	-0.024	71
0.0045	-0.0675	0.0015	-0.1635	70.8
0.0015	0.0232	0.0045	-0.1605	71
0	0.0307	0.0052	-0.0773	71.3
-0.0015	0.042	0.0082	-0.0698	71.4
-0.0015	0.0367	0.0105	-0.0465	71.4
-0.0008	0.0262	0.0135	-0.0158	71.6
0.0007	0.0315	0.0165	-0.0188	71.7
-0.0008	0.0495	0.0142	-0.0015	71.9
-0.0053	0.0382	0.0097	0.0142	72
-0.0046	0.0172	0.0067	0.03	72
-0.0015	0.0105	0	0.0802	72.5
-0.0015	-0.0046	-0.0053	0.1275	72.3
-0.0015	-0.024	-0.0068	0.0855	72.3
0.0015	-0.0195	-0.0068	0.0345	72.5
0.0037	0.0007	-0.0053	0.036	72.6
0.0045	-0.0218	-0.0053	0.0187	72.7
0.0007	-0.024	-0.0068	0.0082	72.8
-0.0053	-0.0053	-0.0091	0.0232	72.9
-0.0038	-0.0405	-0.0083	0.0592	73.1
-0.0008	-0.054	-0.0053	0.039	73.2
0.0015	-0.0075	-0.0008	-0.0585	73.3
0.0007	0.0225	0.0022	-0.0728	73.4
-0.0023	0.0037	0.003	0.027	73.8
0.0007	-0.0046	0.0067	0.105	73.6
-0.0008	0.03	0.0067	0.162	73.9
-0.0008	0.0457	0.0052	0.2025	74
0.0022	0.0142	0.0052	0.1282	73.9
0.0082	0.0195	0.0045	-0.0015	74.1
0.009	0.0712	0.0015	-0.2115	74.2
0.0045	0.0712	-0.0053	-0.297	74.4
0.003	0.0127	-0.0053	-0.1028	74.6
0.0022	-0.033	-0.0038	-0.0945	74.4
0.0037	-0.0458	-0.0038	-0.1478	74.7
0.0022	-0.0098	-0.0046	-0.0983	74.7
0	0.012	-0.0068	-0.1103	74.8
0.0007	-0.0555	-0.0068	-0.0608	74.8
-0.0008	-0.0578	-0.0046	-0.039	75.1
-0.0015	0.0277	-0.0023	-0.0353	75.1
-0.0015	0.0615	-0.0038	-0.0158	75.3
-0.0046	0.0532	-0.0046	0.0292	75.5
-0.0046	0.0142	-0.0053	0.1335	75.6
-0.003	-0.0533	-0.0053	0.195	75.7
-0.0008	-0.1043	-0.003	0.1507	75.8
0.0015	-0.1328	0	0.0855	76
0.009	-0.1778	0.0007	0.0975	76
0.0127	-0.1365	0	0.0352	76
0.0082	-0.0053	-0.0008	-0.0525	76.3
0.003	0.027	-0.0015	-0.0495	76.1
0.0015	0.0555	-0.0023	-0.03	76.5
-0.0015	0.0802	0	-0.0428	76.4
-0.0015	0.0615	0	-0.0503	76.8
0.0015	0.0607	-0.0008	-0.0233	76.8
0	0.0577	0	-0.0188	76.8
0.0007	0.0495	0.003	-0.003	77
0.0045	0.0307	0.0045	0.0172	77.1
0.0007	0.0195	0.003	0.0555	77.3
0	0.0052	0.0022	0.0637	77.3
0.0045	-0.0105	0.003	0.0487	77.4
0.0067	-0.0105	0.003	0.048	77.6
0.0082	0.0112	0.003	-0.0158	77.5
0.0067	0.0015	0.0045	-0.0015	78
0.0067	-0.0105	0.0082	0.0412	77.9
0.0075	0.0247	0.0082	-0.0195	77.8
0.0045	0.03	0.0052	-0.1035	78.1
0.0052	0.042	0.0045	-0.1418	78
0.0022	0.0787	0.0052	-0.1125	78.3
0.0007	0.0705	0.0082	-0.0758	78.4
0.003	0.0382	0.0082	0.0195	78.6
0.0007	0.0007	0.0075	0.078	78.6
0.0022	-0.0511	0.0075	0.069	78.8
0.0067	-0.0893	0.0067	0.1087	78.8
0.0045	-0.078	0.0052	0.042	79
0.006	-0.0405	0.0052	-0.0143	79.1
0.0067	0.012	0.0045	0.018	79.2
0.0022	0.0375	0.0052	-0.0128	79.2
-0.0008	0.0405	0.003	-0.066	79.3
-0.0038	0.0457	0.0007	-0.0818	79.5
-0.0068	0.0067	0.0007	-0.0181	79.6
-0.0083	-0.003	0.0007	0.0052	79.5
-0.012	-0.0195	0.0007	-0.0091	79.9
-0.0128	-0.0495	0	0.0427	79.9
-0.0105	-0.0203	-0.0008	0.1087	80
-0.0091	-0.0788	-0.0015	0.1275	80.1
-0.0046	-0.132	0.0007	0.1035	80.3
0.0022	-0.057	0.0007	0.0337	80.3
0.0007	0.0135	0.0015	-0.1215	80.5
-0.0015	0.0787	-0.0008	-0.1778	80.5
-0.0038	0.0945	-0.0015	-0.1673	80.5
-0.0046	0.0945	-0.0038	-0.159	80.9
-0.006	0.0615	-0.0068	-0.0278	80.8
-0.0068	-0.0405	-0.006	0.096	80.9
-0.0068	-0.1013	-0.0068	0.1215	81.2
-0.0053	-0.1148	-0.003	0.1177	81
-0.0008	-0.0638	-0.0015	0.1012	81.4
0	-0.0353	-0.0015	0.0562	81.4
-0.0015	-0.0068	-0.003	-0.0195	81.4
-0.0038	0.06	-0.003	-0.0795	81.7
-0.003	0.0832	-0.003	-0.0728	81.7
-0.003	0.1012	-0.003	-0.06	81.8
-0.0038	0.084	-0.0046	-0.0525	81.7
-0.003	0.0615	-0.0068	-0.0075	82
-0.003	0.0127	-0.0068	0.0742	82
-0.0015	-0.0675	-0.0068	0.1462	82.3
0.0022	-0.108	-0.0053	0.129	82.2
0.0045	-0.0758	-0.003	0.0315	82.4
0.0045	0.009	-0.0015	-0.1328	82.5
0.003	0.0442	-0.0008	-0.1523	82.5
0	0.072	-0.0008	-0.0338	82.8
0.0022	0.015	-0.0008	-0.0075	82.7
0.0052	-0.0653	-0.0008	0.0397	82.8
0.0052	-0.0608	-0.003	0.0742	82.9
0.0067	-0.0585	-0.0015	0.0787	82.8
0.0045	-0.057	0	0.0825	83
-0.0008	-0.033	-0.0008	0.036	82.9
0.0015	0.0142	0.0007	-0.0218	83.1
0.0022	0.0315	0.0015	-0.0765	83.2
-0.0008	0.0495	-0.0008	-0.0653	83.2
-0.0008	0.0787	-0.0008	-0.078	83.2
-0.0015	0.069	0.0015	-0.0818	83.4
-0.0046	0.0367	0.0015	-0.0315	83.4
-0.006	0.0127	0.0007	0.0007	83.6
-0.0068	-0.0113	0.0015	0.0442	83.7
-0.003	-0.0158	0.0015	0.0517	83.5
0.0007	-0.0256	-0.0008	0.0615	83.9
0.0022	-0.066	-0.0008	0.0667	83.9
0.003	-0.0623	0.0007	0.0127	84
0	-0.0181	0.003	-0.0495	84.1
0.0007	0.0247	0.003	-0.0713	84.3
0.0007	0.0367	0.0037	-0.0465	84.2
-0.0015	0.0405	0.0015	0.0015	84.5
-0.0008	0.0157	0.0007	0.0067	84.5
-0.0015	0.0607	0.003	-0.057	84.6
0	0.117	0	-0.0803	84.6
-0.003	0.0525	-0.003	-0.027	84.9
-0.0098	-0.015	-0.0053	0.1087	84.9
-0.0053	-0.1411	-0.0053	0.2295	85
0.0037	-0.165	0	0.1605	85
0.0105	-0.0638	0.0022	-0.0383	85.1
0.009	-0.0203	0	-0.1605	85.1
0.0037	0.0232	-0.0038	-0.1478	85.2
0.0022	0.045	-0.006	-0.06	85.5
-0.0008	0.0015	-0.0068	0.0652	85.5
-0.003	-0.0645	-0.006	0.105	85.6
0.0015	-0.0975	-0.0046	0.0532	85.9
0.0022	-0.0383	-0.003	-0.0443	85.7
0.0007	0.042	-0.0038	-0.0923	85.9
0	0.0705	-0.0038	-0.0503	85.9
-0.0015	0.0682	-0.0046	-0.0353	86
-0.0015	0.0187	-0.0038	0.0067	86.2
-0.0008	-0.0383	-0.0038	0.048	86.3
-0.0008	-0.0511	-0.003	0.0382	86.1
0.0015	0	0	0.018	86.5
0.0015	0.0367	-0.0015	0.0067	86.4
-0.0008	0.0487	0.0007	-0.0278	86.4
-0.0015	0.0607	0.003	-0.1095	86.5
-0.0015	0.054	0.003	-0.1433	86.7
-0.003	0.0165	0.0045	-0.0975	86.8
-0.0008	-0.0615	0.003	-0.0008	87
0.0015	-0.0495	0.0022	0.087	86.9
0.0015	-0.012	0	0.114	87.2
0.0045	-0.0068	-0.0008	0.0862	87.2
0.0037	0.0247	0.0015	0.0945	87.2
0.0007	0.033	-0.0008	0.1162	87.3
-0.0008	0.0105	0.0007	0.06	87.3
0	-0.0195	0.0007	0.0157	87.6
-0.0008	0.0045	0.0015	-0.0428	87.5
-0.0015	0.0397	0.003	-0.111	87.6
-0.0008	0.0547	0.0007	-0.0263	87.8
-0.0008	0.0412	-0.003	0.0622	87.7
0.0015	-0.0503	-0.003	0.0015	87.8
0.0037	-0.0623	0.0015	-0.039	87.9
0.0045	-0.027	-0.0008	-0.0548	88
0.003	-0.0195	-0.0046	-0.0893	88
0.003	0.0142	-0.0046	-0.0105	88.2
0.0037	0.0172	-0.003	0.0352	88.2
0.0067	-0.0046	-0.0046	0.0375	88.2
0.0097	-0.0015	-0.003	0.0532	88.6
0.0082	-0.0135	-0.003	0.0307	88.4
0.0037	-0.0743	-0.0046	0.0817	88.6
0.003	-0.0691	-0.0038	0.045	88.6
0.003	-0.0293	-0.003	-0.0353	88.8
0.003	0.0007	-0.0015	-0.0143	88.6
0.0045	0.0195	-0.0015	-0.0015	88.8
0.003	0.0675	0.0015	-0.006	88.8
0.0007	0.1372	0.003	-0.0765	89
-0.0015	0.171	0.003	-0.1373	89.1
-0.003	0.0975	0.0007	-0.0975	89
-0.0008	-0.0346	-0.0008	-0.0323	89.2
0.0015	-0.0638	0.0007	0.0255	89.2
0.0015	-0.123	0.0007	0.0555	89.4
0.0015	-0.0885	0.003	0.054	89.5
-0.0038	-0.003	0.0015	0.0862	89.3
-0.0075	-0.033	0.0015	0.0517	89.5
-0.0046	-0.0578	0.003	-0.0218	89.7
-0.003	-0.1065	0.003	0.0877	89.7
-0.0015	-0.054	0.0082	0.0435	89.8
-0.0015	0.1125	0.0075	-0.177	89.8
-0.0053	0.1515	0.0045	-0.1973	90
-0.0091	0.0682	0.003	-0.1703	89.9
-0.0091	-0.0158	0.0022	-0.0668	90
-0.0008	-0.0938	0.0052	0.0915	90.1
0.0037	-0.126	0.0037	0.177	90.4
0.0022	-0.039	0.0052	0.1627	90.3
0.0052	0.0195	0.0045	0.0862	90.4
0.003	-0.0068	0.0052	0.078	90.4
0.0015	-0.0008	0.0052	0.0127	90.3
0.0007	0.0202	0.0045	-0.0315	90.5
0.0007	0.0255	0.0045	-0.0706	90.4
0.0007	0.012	0.0037	-0.0968	90.6
-0.0008	0.0315	0.0045	-0.048	90.7
-0.0038	0.0255	0.0052	-0.0458	90.8
-0.003	0.0345	0.0067	-0.0165	90.8
-0.0015	0.0855	0.0067	-0.0346	90.9
-0.0038	0.1327	0.0075	-0.0495	90.9
-0.0023	0.1327	0.0075	-0.0218	90.9
0.0007	0.0157	0.0075	0.0322	91.2
0.003	-0.066	0.0045	0.09	91
0.0015	-0.1238	0.0007	0.0232	91.2
0.0037	-0.1373	0.0015	-0.0083	91.3
0.0067	-0.0915	0.0015	-0.0218	91.1
0.0052	-0.0518	0.0007	-0.0218	91.6
0.0045	0.0397	0.0015	0.0345	91.5
0.0052	0.0142	-0.0008	0.1102	91.7
0.0052	-0.0713	-0.0015	0.1912	91.7
0.0045	-0.0743	-0.0008	0.1455	91.7
0.0015	-0.0083	-0.0023	0.0457	91.7
0.0007	0.048	-0.0053	-0.0548	91.7
-0.0015	0.0442	-0.0053	-0.099	91.8
-0.0023	0.057	-0.0038	-0.0691	91.8
-0.003	0.0082	-0.003	-0.0578	92
-0.003	-0.0233	-0.0046	-0.066	91.7
-0.0023	0.0097	-0.0046	-0.045	92.1
-0.0038	-0.012	-0.0046	0.0442	92.2
-0.0023	-0.0383	-0.0015	0.1065	92.1
0.0015	-0.0233	-0.0023	0.1005	92.3
0.003	0.0187	-0.0023	0.0015	92.2
0.0015	0.0577	0.0007	-0.0698	92.4
-0.0015	0.054	0	-0.0308	92.3
-0.0015	0.054	0.0037	-0.039	92.3
-0.0008	0.027	0.0015	0.0015	92.4
-0.0015	-0.0368	0.0007	0.045	92.6
-0.0008	-0.0278	0.003	-0.027	92.6
-0.0023	0.0105	0.0045	-0.078	92.8
-0.0038	0.018	0.003	-0.0675	92.8
-0.0068	0.048	0.0022	-0.039	92.7
-0.0091	0.0367	0.0045	-0.0428	92.9
-0.0083	0.0067	0.0015	-0.0353	92.9
-0.0053	0.0037	0	0.0127	92.8
-0.0023	0.015	-0.0015	0.0127	93.1
-0.0023	0.027	-0.0023	-0.0091	93
-0.0015	-0.0968	-0.003	0.0765	93.2
0.003	-0.1545	-0.0015	0.0577	93.4
0.0067	-0.0698	0.0022	0.0277	93.2
0.0045	-0.039	0.0022	0.1095	93.3
0.0015	-0.0195	0.0022	0.054	93.3
-0.0015	0.024	-0.0015	0.0352	93.3
-0.0038	0.042	-0.0053	-0.0548	93.5
-0.0008	0.0292	-0.0046	-0.1208	93.5
0.0015	0.0135	-0.003	-0.0008	93.7
0.0022	0.0337	-0.003	-0.0413	93.6
-0.0023	-0.0038	-0.0046	-0.1155	93.6
-0.0038	-0.0465	-0.0038	-0.09	93.6
-0.003	-0.012	-0.0038	-0.0503	93.8
-0.0023	0.0517	-0.0008	0.0172	93.8
-0.0015	0.111	0	0.009	93.8
-0.003	0.0817	0.0007	-0.039	93.9
-0.0015	0.045	0.0052	0.0075	94
0.0007	0.036	0.0067	0.0405	94
0.0045	-0.0165	0.0045	-0.0165	94
0.003	-0.024	-0.0091	-0.0765	93.9
-0.0015	-0.0015	-0.0218	-0.0608	94.1
-0.0015	-0.0675	-0.0233	0.0457	94.1
0.003	-0.0495	-0.0256	0.1387	94.3
0.0037	-0.0983	-0.024	0.1395	94.3
0.003	-0.21	-0.0181	0.1492	94.2
0.0075	-0.1163	-0.0098	0.1432	94.4
0.0082	0.0052	-0.0053	0.0015	94.4
0.0067	0.066	-0.0008	-0.0863	94.4
0.0052	0.0427	0.0015	-0.123	94.5
0.003	0.0442	0.0022	-0.1313	94.6
0.003	0.0735	0.0037	-0.0353	94.6
0.0007	0.0712	0.0082	0.0015	94.7
0.0015	0.1012	0.0165	-0.042	94.7
0.0007	0.0802	0.0195	-0.0458	94.6
0.0007	-0.0368	0.018	0.0195	94.9
0.0037	-0.1238	0.012	0.0675	94.7
0.003	-0.0945	0.006	0.0652	94.9
0.0045	-0.099	0.003	0.03	94.9
0.0067	-0.078	-0.0053	-0.0068	94.8
0.003	0.048	-0.0091	-0.012	95
0.0022	0.1012	-0.0105	-0.0195	94.9
0.0015	0.1395	-0.0098	0.009	94.9
-0.0015	0.138	-0.0053	0.033	95.1
-0.0008	0.015	-0.0053	0.0217	95.2
0.0015	-0.0668	-0.0038	0.0255	95.1
0.0007	-0.0615	-0.0023	-0.0008	95.3
0.0007	-0.0353	0	0.0195	95.2
0.0007	-0.033	0.0037	0.009	95.3
0.0015	-0.0375	0.003	0.0052	95.4
0.003	-0.0038	0.0045	0.057	95.3
0.003	0.054	0.0082	0.0022	95.5
0.0015	0.0675	0.0082	-0.0173	95.5
-0.0015	0.0382	0.0067	-0.054	95.3
-0.0008	0.006	0.006	-0.1006	95.6
-0.0023	-0.057	0.0022	0.0007	95.5
-0.003	-0.0863	0.0015	0.0532	95.8
0.0007	-0.0428	0.0037	-0.0083	95.8
-0.0008	0.0082	0.0037	-0.0218	95.6
-0.003	0.0412	0.0007	-0.0443	95.8
-0.0068	0.0382	-0.0008	-0.0615	95.8
-0.0046	0.018	0.003	-0.0173	95.8
-0.003	0.0517	0.0015	-0.0315	95.8
-0.0046	0.0105	0.0022	-0.0375	96
-0.0015	-0.0683	0.0052	-0.0293	95.8
0	-0.0293	0.0075	0.0315	96
0.0007	0.0307	0.009	0.0352	96.2
0.0045	0.0075	0.0067	-0.0256	95.9
0.0045	-0.0691	0.0037	0.069	96.3
0.006	-0.042	0.0067	0.0742	96
0.0052	0.0022	0.009	0.051	96.3
0.0022	0.0292	0.0097	0.0412	96.3
-0.0015	0.0667	0.009	-0.1006	96.2
-0.0038	0.0877	0.0052	-0.0825	96.4
-0.0053	0.1027	0.003	-0.003	96.3
-0.0053	0.0345	0.0037	0.0382	96.4
0.0045	-0.0383	0.0067	0.099	96.5
0.0075	-0.0653	0.0067	0.117	96.4
0.0052	-0.0593	0.0082	0.0795	96.3
0.0045	-0.027	0.0075	-0.0555	96.6
0.003	-0.0398	0.006	-0.078	96.5
0.003	-0.0361	0.0082	-0.0428	96.5
-0.0008	-0.0188	0.0045	-0.078	96.7
-0.0015	-0.0315	0.0007	-0.039	96.5
-0.0015	-0.027	-0.0008	0.0127	96.9
-0.0046	0.0052	-0.0008	0.0367	96.7
-0.0053	0.0637	0.0015	0.0487	96.7
-0.0053	0.0645	0.0015	0.0315	96.9
-0.0008	0.0202	0.003	-0.0128	96.7
-0.0023	-0.0495	0.0037	-0.0128	96.9
-0.003	-0.0428	0.0052	0.0315	96.9
-0.0038	-0.057	0.0075	0.0427	96.9
-0.0053	-0.1021	0.0105	0.078	97
-0.0038	-0.0233	0.0165	0.0907	96.9
0	-0.0428	0.0127	0.0427	97
-0.0015	0.0127	-0.003	-0.054	96.9
-0.003	0.0457	-0.0128	-0.096	97.2
-0.0015	0.0075	-0.0181	-0.0383	97
-0.0015	0.0555	-0.0285	-0.0473	97.2
0.0007	0.009	-0.0308	-0.0165	97.2
0.0015	0.0135	-0.024	-0.0068	97.2
0.0015	0.039	-0.0218	-0.0638	97.2
0.0007	0.0667	-0.0195	-0.1208	97.2
-0.0046	0.108	-0.0203	-0.21	97.2
-0.006	0.0637	-0.0203	-0.1305	97.5
-0.0075	-0.024	-0.0181	0.0502	97.5
-0.0068	-0.1095	-0.0113	0.1177	97.5
-0.0008	-0.1313	0.0015	0.0795	97.5
0.0052	-0.0405	0.0105	0.0345	97.6
0.003	0.0375	0.0135	0.0015	97.6
0.0052	0.0615	0.0127	-0.0263	97.7
0.006	0.108	0.009	-0.0346	97.6
0.0022	0.1312	0.0015	-0.0465	97.6
-0.0008	0.0982	-0.0075	-0.0428	97.7
-0.0008	0.0007	-0.0113	0.012	97.6
0.0037	-0.063	-0.0091	0.0877	97.8
0.0037	-0.0818	-0.0105	0.1192	97.8
0.006	-0.111	-0.0105	0.1545	97.8
0.0045	-0.1508	-0.012	0.108	98
0.0015	-0.12	-0.012	-0.0495	98
0.0022	-0.0188	-0.0098	-0.0803	98
0	-0.006	-0.0046	-0.0165	98.2
0.0022	-0.0165	0.0045	0.0427	98
0.003	-0.0105	0.0097	0.0997	98.1
-0.0053	0.0127	0.0105	0.0502	98.1
-0.0068	0.0315	0.012	-0.0593	98.1
-0.0008	0.0007	0.015	-0.0675	98.1
-0.0008	0.0255	0.0142	0.003	98.3
0.0007	0.0375	0.0135	0.0315	98.3
0.0007	0.0562	0.0105	0.0052	98.4
-0.003	0.0862	0.0045	-0.0645	98.3
-0.0015	0.0472	-0.0015	-0.0743	98.2
-0.003	0.057	-0.0075	-0.0653	98.5
-0.0053	0.0517	-0.0113	-0.0923	98.3
-0.0046	0.069	-0.0113	-0.0503	98.4
-0.0053	0.0607	-0.0091	-0.0248	98.6
-0.0068	-0.0263	-0.0053	0.033	98.5
-0.003	-0.1388	0	0.0637	98.7
0.0037	-0.1898	0.0037	0.0555	98.6
0.006	-0.0218	0.0067	0.0547	98.7
0.0052	0.0517	0.0075	-0.0128	98.6
0.003	0.042	0.0082	-0.0068	98.8
0.0007	0.03	0.0105	0.0127	98.8
0.0007	-0.0256	0.0105	0.0082	99
0.003	0.0127	0.006	0.0165	98.9
0.0007	0.0615	0	-0.033	98.7
-0.006	0.087	-0.0068	-0.075	99
-0.0046	0.0277	-0.0083	-0.0668	98.9
0.0015	-0.0368	-0.0068	-0.0128	99
0.0067	-0.1155	-0.0075	0.0742	99.2
0.0082	-0.1335	-0.0105	0.0937	98.9
0.0067	-0.063	-0.0128	0.0525	99.2
0.0052	-0.0511	-0.0128	0.0502	99
0.0045	-0.0008	-0.012	-0.0225	99.1
0.0045	0.078	-0.0068	-0.0938	99.2
0.0022	0.1522	-0.003	-0.0713	99.3
-0.0023	0.2295	-0.0015	-0.096	99.3
-0.0015	0.1972	-0.0046	-0.0503	99.3
0.0045	0.0075	-0.0053	0.0675	99.4
0.0082	-0.1583	-0.0046	0.1425	99.3
0.0067	-0.249	-0.0053	0.1852	99.7
0.0052	-0.234	-0.0068	0.156	99.3
0.0045	-0.1373	-0.0053	0.033	99.5
0.006	-0.057	-0.0046	-0.1238	99.6
0.0045	-0.0443	-0.0008	-0.1275	99.6
0.0045	-0.0053	0.003	-0.03	99.8
0.0067	0.048	0.006	0.0142	99.5
0.0082	0.045	0.0082	0.0862	100
0.009	0.0892	0.009	0.0787	99.8
0.0075	0.066	0.012	0.0142	99.7
0.006	0.0382	0.0127	0.003	100
0.003	0.045	0.0097	-0.033	99.8
0.0015	0.0495	0.0082	-0.054	99.9
0.0007	0.0067	0.0067	-0.0818	99.9
-0.0008	-0.0091	0.0067	-0.09	100.1
-0.0015	0.0195	0.0052	-0.0503	99.8
-0.0038	-0.0105	0.0007	-0.0308	100.2
-0.0053	-0.0143	-0.0008	0.069	100.3
-0.0046	0.0007	0.0007	0.1417	100.2
-0.0023	0.0577	0.0015	0.0195	100.2
-0.003	0.057	0.0015	-0.0578	100.1
-0.0038	0.042	0	-0.0675	100.3
-0.006	0.1005	0.0007	-0.0871	100.3
-0.0068	0.1057	0	-0.0818	100.3
-0.006	0.093	-0.0023	-0.0878	100.5
-0.006	-0.0015	-0.003	-0.0405	100.5
-0.003	-0.1696	-0.0068	0.0022	100.4
-0.0015	-0.1741	-0.006	0.0727	100.4
0	-0.0691	-0.0023	0.114	100.6
0.0045	0	0	0.0427	100.5
0.0015	0.0292	0.003	-0.027	100.6
-0.003	0.024	0.0045	-0.0706	100.9
-0.0053	0.009	0.003	-0.0458	100.6
-0.0053	-0.0503	0.0052	-0.0008	100.9
-0.0023	-0.0795	0.0075	0.0585	100.8
-0.0053	-0.123	0.0097	0.075	100.8
-0.0068	-0.0511	0.0165	-0.0195	100.9
-0.0053	0.009	0.0202	-0.0495	100.9
-0.0008	-0.057	0.0225	0.018	100.9
0.0015	-0.0075	0.0195	0.1132	101
-0.003	-0.0083	0.0157	0.1612	101
-0.0008	0.0502	0.0172	0.087	101.2
-0.0008	0.0517	0.0165	-0.021	101.1
-0.0023	-0.0008	0.018	-0.0353	101
-0.0008	0.009	0.0165	-0.054	101.2
-0.0015	0.0142	0.0127	-0.078	101.2
-0.003	0.0532	0.0105	-0.0165	101.2
-0.0038	0.0255	0.009	0.0135	101.5
-0.0046	0.0157	0.0067	-0.003	101.3
-0.0038	0.0292	0.006	-0.0405	101.4
-0.0008	0.066	0.0067	-0.075	101.4
-0.0023	0.0825	0.0007	-0.0293	101.5
-0.0068	0.0532	-0.0023	0.0202	101.5
-0.003	-0.024	-0.0015	0.0045	101.5
0.0022	-0.063	-0.0038	0.0135	101.6
0.0007	0.0412	-0.0068	0.0172	101.7
-0.003	0.1215	-0.015	-0.1103	101.5
-0.003	0.0975	-0.0256	-0.114	101.6
-0.0046	-0.0158	-0.0278	0.0495	101.7
0.0022	-0.1538	-0.0218	0.084	101.7
0.0105	-0.213	-0.0181	0.1155	101.8
0.0052	-0.1426	-0.0128	0.057	101.8
-0.0008	-0.066	-0.012	-0.063	101.8
-0.0038	-0.0346	-0.012	-0.0181	101.9
-0.0068	0.0277	-0.0105	-0.0158	101.8
-0.006	0.0727	-0.0135	-0.0428	102
-0.0091	0.093	-0.0181	0.0007	102.1
-0.0068	0.06	-0.0195	0.0277	102.1
-0.003	-0.0315	-0.0218	-0.0038	102.1
-0.0008	-0.0308	-0.0233	0.039	102.3
0.003	0.0652	-0.0181	0.03	102.1
-0.0008	0.0855	-0.0165	-0.1148	102.2
-0.0023	-0.0053	-0.0195	-0.0518	102.5
0	-0.1178	-0.0181	0.0855	102.3
0.0022	-0.1155	-0.0098	0.1132	102.6
0.006	-0.0375	0	0.1132	102.5
0.0067	-0.0023	0	0.096	102.5
0.0045	0.054	0.0007	0.0105	102.4
0.0007	0.0652	0.0045	-0.0983	102.6
-0.0046	-0.0053	0.0037	-0.12	102.5
0.0007	0.0045	0.0052	-0.0863	102.6
0.0067	0.054	0.0007	0.0015	102.7
0.0052	0.0802	0.0015	-0.003	102.6
0.0052	0.111	0.0045	-0.0675	102.8
0.003	0.0937	0.0007	-0.0893	103
0.0022	-0.0091	-0.0015	-0.0743	102.6
0.0037	-0.057	-0.0015	-0.0413	103
0.0045	-0.0465	0.0007	0.018	102.8
0.0082	-0.0615	0.0015	0.105	103
0.009	-0.0706	0	0.06	103
0.0105	-0.09	-0.0015	0.1042	103
0.012	-0.0405	-0.0053	0.1612	103
0.0097	0.027	-0.0053	0.0757	103.2
0.0075	0.0277	-0.0075	-0.0706	103.2
0.0045	0.012	-0.0053	-0.192	103.1
0.006	0.0217	0.0007	-0.126	103.4
0.0097	0.0217	0.009	0.0217	103.4
0.0082	0.0292	0.012	0.0982	103.4
0.0045	-0.0068	0.0135	0.0067	103.6
0.0052	-0.1021	0.0165	0.0502	103.4
0.0045	-0.105	0.0187	0.129	103.5
0.003	-0.0615	0.0255	0.0757	103.5
0.0045	0.0217	0.0315	0.1057	103.7
0.0015	0.075	0.0292	-0.0165	103.5
0	0.087	0.0277	-0.1373	103.5
-0.0015	0.1027	0.0255	-0.1665	103.7
-0.0053	0.0667	0.0187	-0.147	103.9
-0.0068	0.0217	0.0112	-0.0615	103.8
-0.0046	-0.0623	0.0045	-0.0098	103.8
-0.0023	-0.0503	-0.0015	0.0427	103.9
-0.0038	-0.0728	-0.0038	-0.0046	103.9
-0.0015	-0.0495	-0.0053	-0.0225	104
0	0.123	-0.0046	0.0067	104
0.0015	0.1545	-0.0038	-0.0158	103.9
0.0007	0.21	-0.0046	-0.054	104.2
0	0.1087	-0.0023	0.0255	104.1
0.0045	-0.0593	-0.0008	0.1372	104.3
0.0045	-0.078	0.0037	0.0607	104.4
0.0045	-0.1103	0.0045	0.0225	104.3
-0.0008	-0.0945	0.0007	0.0442	104.4
-0.003	-0.1373	0	0.0855	104.6
-0.003	-0.1275	0.0007	0.0105	104.4
-0.0053	-0.1058	0	-0.0555	104.4
-0.0053	-0.1193	0.0015	-0.0083	104.7
-0.0038	-0.0338	0.0037	-0.0083	104.7
0	0.0015	0.0022	0.042	104.6
0.0045	0.0157	0.0022	-0.0113	104.7
0.003	0.1155	0.0015	-0.0203	104.8
0	0.177	0.0007	-0.0548	104.8
-0.0053	0.1447	-0.0008	-0.1193	104.7
-0.006	-0.0083	0.0007	-0.027	104.8
-0.0015	-0.198	0	0.0187	104.9
0.0037	-0.1223	-0.0038	0.045	104.8
0.0082	0.003	0	0.0112	105
0.0052	0.0037	0	0.003	105.1
0.0022	0.0075	-0.003	0.039	105
-0.0008	-0.0398	-0.0068	0.0442	105.2
-0.003	0.0007	-0.0091	0.0127	105.1
-0.003	0.0577	-0.0053	-0.075	105.3
-0.003	0.069	-0.0008	-0.081	105.3
-0.0015	0.072	0.0007	0.009	105.4
-0.0015	0.003	-0.003	0.0817	105.5
0.0007	-0.0548	-0.0015	0.0172	105.4
0.0037	-0.0458	-0.0008	-0.0075	105.4
0.0037	-0.0346	-0.0068	0.0412	105.5
0.0067	-0.012	-0.0053	0.0165	105.6
0.003	0.0495	-0.0023	-0.0128	105.6
-0.0008	0.054	-0.0015	-0.0503	105.8
-0.003	0.0705	-0.003	-0.0878	105.7
-0.0091	0.0502	-0.0068	-0.0878	105.6
-0.0091	-0.0285	-0.0075	-0.0346	105.9
-0.0075	-0.0615	-0.006	0.0787	105.9
-0.006	-0.0315	-0.0046	0.1665	106.1
-0.0083	0.0472	-0.0046	0.1185	106
-0.0113	0.06	-0.0053	-0.0473	105.8
-0.0158	0.042	-0.0068	-0.1396	105.9
-0.0165	0.009	-0.0075	-0.0758	106
-0.0165	-0.0046	-0.0046	-0.0495	106.2
-0.0181	0.024	-0.003	-0.0181	106.2
-0.0158	-0.0075	-0.003	0.063	106.4
-0.0113	-0.0293	-0.0015	0.0847	106.4
-0.0068	-0.0338	-0.0015	0.1117	106.5
-0.0023	-0.0443	-0.0053	0.048	106.4
0.0007	-0.027	-0.0053	-0.0128	106.4
-0.0023	0.0375	0.0007	-0.0323	106.6
-0.006	0.0135	0.003	-0.0368	106.5
-0.0038	-0.0743	0.0045	0.0345	106.6
-0.0023	-0.057	-0.0038	0.0487	106.7
0.0015	-0.0458	-0.0135	0.0255	106.6
0.0045	-0.0278	-0.0165	0.0112	106.7
0.0052	-0.0015	-0.0218	-0.0315	106.8
0.0052	0.0412	-0.021	-0.0818	106.8
0.003	0.0435	-0.0158	-0.054	106.8
0.0007	0.0442	-0.012	-0.0256	106.9
-0.0015	0.0382	-0.0091	-0.0091	107.1
0.0067	-0.015	-0.0053	0.0067	107.1
0.0112	-0.0165	0	-0.0181	107.2
0.0105	-0.0046	0.0067	-0.0653	107
0.0105	0.0367	0.0142	-0.1028	107.4
0.0052	0.0225	0.018	-0.0046	107.4
0.0067	0.0262	0.0262	0.0427	107.2
0.0082	0.0285	0.03	0.054	107.5
0.009	0.0127	0.0292	0.0787	107.4
0.0105	0.0615	0.0247	0.0022	107.6
0.0082	0.0607	0.0142	-0.0608	107.6
0.0052	-0.0008	0.0022	-0.0608	107.5
0.0045	-0.0361	-0.0068	0.009	107.5
0.0052	-0.0465	-0.0075	0.0285	107.6
0.0067	-0.1208	-0.0068	0.0292	107.8
0.0067	-0.0743	-0.0038	-0.024	107.9
0.0037	-0.0046	0.0007	-0.0638	107.8
0.003	-0.057	0.0037	0.0412	107.8
0.006	-0.0638	0.009	0.0532	108.1
0.009	0.0225	0.0135	-0.0203	108
0.0097	0.0832	0.0142	-0.0518	108
0.0052	0.0877	0.0157	-0.0458	108.1
0.0037	0.1102	0.0127	-0.0473	108.2
-0.0038	0.0735	0.0075	-0.0181	108.3
-0.003	0.027	0.009	-0.0135	108.3
0.0022	-0.0181	0.0045	0.0127	108.3
-0.0008	-0.0728	-0.0015	0.0615	108.3
0.0022	-0.1223	-0.003	-0.0278	108.4
0.0022	-0.1238	-0.003	0.033	108.4
0.0007	-0.0885	-0.0053	0.1522	108.6
-0.0015	-0.0383	-0.0046	0.117	108.7
-0.0015	0.0225	-0.003	0.0622	108.6
0	-0.0173	-0.0023	0.0165	108.7
0.0015	0.0397	-0.0053	0.0082	108.9
0.0015	0.0832	-0.0046	0.003	108.7
-0.003	0.099	-0.0015	0.0045	108.9
-0.0053	0.114	-0.0008	-0.027	108.9
-0.006	0.0427	-0.0046	-0.054	108.9
-0.0091	0.0487	-0.0203	-0.108	108.8
-0.0091	0.0345	-0.027	-0.1635	109
-0.0091	-0.0158	-0.027	-0.0765	109
-0.0075	-0.1103	-0.0285	-0.0008	109
0.0007	-0.1628	-0.0218	0.0405	109
0.0067	-0.0923	-0.0158	0.1342	109.2
0.0045	-0.0278	-0.0105	0.1477	109.1
0.0015	-0.0105	-0.0083	0.0742	109.2
-0.0015	-0.0008	-0.0053	0.0202	109.3
-0.0053	0.012	-0.0023	-0.0263	109.3
-0.0053	0.0015	-0.0008	-0.0293	109.4
0	0.0127	0.0022	0.0007	109.5
0.0037	0.0142	0.0097	0.0697	109.5
0.0052	-0.006	0.0187	0.063	109.6
0.0037	0.0502	0.0225	-0.057	109.5
0.0015	0.0877	0.015	-0.114	109.5
0.0037	0.1087	0.003	-0.1381	109.5
0.0015	0.1162	-0.003	-0.0848	109.9
-0.0015	0.003	-0.003	-0.0195	109.7
-0.0015	-0.0975	-0.0046	0.0277	109.8
-0.003	-0.1358	-0.0053	0.0975	110.1
-0.0008	-0.1335	-0.0038	0.114	110
0.0007	-0.0548	0.0015	0.1102	110.1
-0.0008	0.0165	0.0082	0.0367	110.1
0.0022	0.0195	0.012	-0.042	110.1
0.003	0.0277	0.0157	-0.0615	110.1
0.0022	-0.0068	0.018	-0.0765	110.1
0.0045	0.0052	0.018	-0.0765	110.2
0.0007	0.0442	0.0187	-0.024	110.3
-0.0015	0.0255	0.0187	-0.0015	110.3
-0.0008	0.0592	0.018	-0.0233	110.3
0	0.0645	0.0172	-0.0375	110.4
0.0007	0.0727	0.015	-0.0743	110.4
-0.0023	0.0607	0.012	-0.09	110.4
-0.003	0	0.0045	-0.1118	110.5
-0.0015	-0.0443	-0.0053	-0.0668	110.5
-0.003	-0.0555	-0.0091	0.027	110.7
0.0015	-0.0495	-0.012	0.1155	110.7
0.0052	-0.0405	-0.012	0.1402	110.7
0.0022	-0.0308	-0.0083	0.0712	110.9
0.0015	-0.0143	-0.006	0.0937	110.8
-0.003	0.012	-0.0046	0.0675	110.8
-0.0038	-0.0128	-0.0038	0.0412	110.9
0.0007	0.0067	-0.003	0.069	111
0.0015	-0.0158	-0.0015	0.0082	111
0.0045	-0.0465	-0.0038	-0.0308	111
0.0045	0.0075	-0.0083	-0.021	111
0.0022	0.0157	-0.012	-0.0256	111.1
0.0015	0.033	-0.0135	-0.0765	111.3
-0.0015	0.0007	-0.0098	-0.0803	111
0.0015	-0.0083	-0.0068	-0.075	111.3
0.003	0.0135	-0.003	-0.0098	111.4
0.003	-0.0135	0.0045	0.0517	111.5
0.0045	-0.0008	0.0052	0.0442	111.5
0.003	0.018	0.0015	0.0487	111.4
0.003	0.0615	-0.0046	-0.0233	111.5
0.003	0.0855	-0.0053	-0.0188	111.6
-0.0008	0.1005	-0.003	-0.0128	111.5
-0.003	0.0772	-0.0015	-0.0465	111.6
-0.0075	-0.0323	-0.0015	0.0007	111.7
-0.0068	-0.1028	-0.0008	0.063	111.7
-0.0023	-0.1575	0.0037	0.1125	111.7
-0.0015	-0.1433	0.0007	0.0817	111.8
-0.003	-0.0638	0.0015	0.033	111.8
0	-0.0143	0.0067	-0.021	111.7
0	0.039	0.0052	-0.0893	111.8
-0.0053	0.0322	0.0045	-0.1373	111.7
-0.0068	-0.0075	0.0007	-0.1305	112
-0.0083	-0.0503	-0.0038	-0.0691	112
-0.0091	-0.0675	-0.0038	0.0217	112
-0.0053	-0.057	-0.0015	0.0712	112.1
-0.0046	-0.0068	-0.0023	0.003	111.9
-0.0053	0.0817	0.0007	0.0607	112.1
-0.003	0.0532	0.0045	0.1522	112.1
0.0052	0.0382	0.0067	0.1125	112.3
0.0112	0.0405	0.0082	0.0547	112.2
0.0097	0.0255	-0.0046	-0.027	112.2
0.0067	0.0405	-0.0181	-0.0375	112.1
0.003	0.009	-0.0165	0.0015	112.2
0.0022	-0.0218	-0.0098	0.012	112.5
-0.0008	-0.027	-0.006	0.0045	112.4
0.003	-0.0015	0.0007	-0.0256	112.3
-0.0015	0.0652	0.0067	-0.1538	112.4
-0.0068	0.1635	0.0112	-0.225	112.3
-0.0083	0.1635	0.012	-0.1673	112.6
-0.0105	0.0367	0.0105	-0.0765	112.5
-0.0038	-0.1268	0.009	0.0615	112.6
0.0015	-0.1635	0.0037	0.1402	112.9
0.0022	-0.0518	-0.003	0.1095	112.6
0.0007	0.0277	-0.003	-0.0165	112.7
-0.0038	0.096	-0.0015	-0.0578	112.8
-0.0068	0.0675	0	-0.0218	112.8
-0.003	-0.0023	0.0007	0.0412	112.8
0.0007	-0.0765	0	0.1402	112.8
0.0022	-0.1208	0	0.1177	112.9
0.0052	-0.0323	-0.0008	0.093	112.9
0.0045	-0.0533	0.0015	0.1005	113
0.0082	-0.0158	0.0067	0.051	112.9
0.0075	0.0427	0.009	0.0037	113
0.0045	0.0052	0.0127	-0.0015	113.1
0.0022	0.0217	0.0157	-0.0098	112.9
-0.0015	0.0142	0.015	-0.0975	113.1
0.0015	0.0502	0.015	-0.1778	113
-0.0008	0.0007	0.0075	-0.15	113.3
0.0007	-0.0825	-0.0046	-0.1065	113
0.0052	-0.0923	-0.0075	-0.06	113.1
0.0067	-0.057	-0.0091	0.0142	113.1
0.0105	-0.0053	-0.0068	0.042	113.1
0.009	0.0172	-0.0046	0.0892	113.2
0.003	0.0562	-0.0023	0.0502	113.2
0.0007	0.0427	0.003	0.0202	113.5
0.0015	0.0607	0.0007	0.093	113.3
0.0022	0.0622	-0.0023	0.0787	113.4
0.0015	-0.0323	-0.0038	0.0832	113.6
0.0007	-0.0593	-0.003	0.0345	113.4
0.0015	-0.0443	0.0007	-0.0046	113.5
0.003	-0.0285	0.0015	-0.03	113.4
0.0007	0.0127	0.0037	-0.1148	113.4
0.0015	0.0382	0	-0.063	113.6
0.003	0.03	-0.003	-0.027	113.5
0.0022	0.012	-0.0068	-0.0533	113.5
-0.0008	-0.0053	-0.0195	-0.0698	113.5
-0.0038	-0.003	-0.0233	-0.0788	113.7
-0.0083	0.063	-0.0278	-0.057	113.7
-0.0105	0.0465	-0.0308	-0.0068	113.8
-0.0053	-0.0315	-0.0248	0.0465	113.6
-0.0023	-0.0713	-0.0195	0.0315	113.7
0.003	-0.1148	-0.0181	-0.0233	113.8
0.003	-0.0128	-0.0128	-0.0675	113.8
-0.0053	0.084	-0.0008	-0.0203	114.1
-0.0091	0.0382	0.0075	0.0007	113.8
-0.0075	-0.003	0.0127	0.0082	113.9
0	-0.0278	0.018	0.1042	114.1
0.009	-0.0165	0.0247	0.1072	114.1
0.012	0.0112	0.033	0.0892	113.9
0.0082	0.0637	0.0352	0.0345	114.2
0.0037	0.1162	0.0315	-0.0278	114
0	0.0765	0.027	-0.0383	114
0.0022	0.0232	0.0217	-0.0675	114.2
0.003	-0.0563	0.0105	0.0217	114.3
0.0037	-0.1545	-0.0068	0.0855	114.1
0.0052	-0.2026	-0.0173	0.0127	114.3
0.006	-0.1125	-0.0181	0.0307	114.3
0.006	0.0082	-0.0173	0.0367	114.4
0.0015	-0.0046	-0.015	0.0052	114.3
-0.0046	0.0037	-0.0083	0.027	114.3
-0.0015	0.0127	0.0007	-0.0443	114.4
-0.0038	0.0465	0.003	-0.0293	114.4
-0.003	0.0615	0.0082	-0.0128	114.4
-0.0015	0.0472	0.0112	-0.0053	114.6
-0.006	0.0435	0.0067	0.0712	114.5
-0.006	-0.0091	0.0075	-0.0233	114.4
-0.0046	-0.0315	0.0022	-0.0803	114.7
-0.0015	-0.048	-0.0046	-0.0008	114.5
0.0007	-0.0593	-0.006	0.0375	114.6
-0.0015	-0.0593	-0.0068	0.0052	114.6
-0.0015	0.0022	-0.0068	-0.0015	114.5
-0.0015	0.0532	-0.0098	-0.0428	114.6
0.0015	0.0487	-0.0068	-0.0638	114.7
0.003	0.0292	-0.0023	-0.0315	114.7
0.0037	0.003	-0.0008	0.0097	114.9
0.0007	0.0367	-0.0008	0.0457	114.8
0.0007	0.069	0.0007	0.042	114.7
0.0007	0.1125	0.0007	0.0877	115
-0.003	0.138	0.0007	0.0045	114.8
-0.0038	0.1042	0.0007	-0.0878	114.9
0	0.0105	-0.003	-0.0181	115.1
0.0082	-0.09	0.0007	0.0765	114.9
0.0112	-0.1148	0.0007	0.111	115.1
0.0082	-0.117	-0.0015	0.0165	115
0.0067	-0.0848	-0.003	-0.0645	115
0.003	-0.0773	-0.0091	-0.0623	114.9
0.003	-0.0413	-0.0105	0.0067	115.1
0.003	0.012	-0.0113	0.0292	115
0.0015	0.0427	-0.0105	-0.042	115.2
-0.0015	0.0802	-0.0075	-0.0983	115.2
-0.0046	0.0682	-0.0053	-0.1613	115.1
-0.003	0.012	-0.0015	-0.1215	115.2
-0.0046	-0.0195	0	-0.0353	115.2
-0.0038	0.0255	0.0067	-0.0346	115.2
-0.003	0.0427	0.0105	0.0015	115.4
-0.0053	0.039	0.0105	0.0067	115.2
-0.006	-0.0225	0.009	0.0262	115.4
-0.006	-0.0653	0.0007	0.0502	115.5
-0.0091	-0.0233	-0.003	0.0442	115.4
-0.0068	-0.0525	-0.0015	0.075	115.4
-0.0038	-0.015	0.0015	0.0247	115.5
-0.0053	0.0495	0.0045	-0.0195	115.5
-0.003	-0.0015	0.0052	-0.0098	115.4
-0.0008	-0.078	0.0045	0.048	115.7
-0.0015	-0.0893	0.0007	0.0937	115.3
-0.0015	-0.027	-0.0083	0.0262	115.5
-0.0023	0.0322	-0.0098	0.0067	115.6
-0.0015	0.0495	-0.0053	0.0165	115.5
0.0015	0.0015	0.0015	0.0075	115.6
0.006	-0.0285	0.0067	0.0577	115.7
0.0052	-0.0165	0.0157	0.0405	115.6
0.0045	-0.0113	0.0255	-0.0338	115.8
0.0007	0.024	0.0285	-0.066	115.8
-0.003	0.0525	0.03	-0.0533	115.7
0.0015	0.075	0.0247	-0.0563	115.8
0.0045	0.1357	0.0165	-0.1013	115.8
0.0045	0.1537	0.003	-0.1148	115.9
0.003	0.0862	-0.0143	-0.0225	115.7
0.0045	-0.024	-0.0233	0.1132	115.8
0.0112	-0.1283	-0.0278	0.1215	115.8
0.0157	-0.1426	-0.0315	0.1552	116.1
0.0105	-0.0743	-0.0278	0.1155	115.9
0.006	-0.0225	-0.024	-0.027	116.1
-0.0038	-0.054	-0.0158	0.0165	116
-0.0053	-0.0458	-0.0008	-0.0075	115.9
-0.0053	-0.0368	0.0105	-0.0083	116.1
-0.0053	-0.0113	0.0202	0.0217	116.1
-0.0015	0.084	0.0195	-0.048	116.1
-0.0053	0.123	0.0142	-0.0165	116.4
-0.0046	0.087	0.0112	-0.0218	116.2
-0.003	0.0157	0.009	-0.0015	116.4
-0.0046	-0.0105	0.003	0.0142	116.1
-0.0046	-0.0721	-0.0008	-0.0293	116.2
-0.0053	-0.1215	-0.0008	-0.048	116.4
-0.0068	-0.0458	-0.0008	-0.105	116.4
-0.003	0.0765	0.0045	-0.1013	116.2
-0.0046	0.0727	0.0075	-0.0405	116.4
-0.0091	0.0052	0.0052	0.0015	116.4
-0.0068	-0.024	0.0015	-0.0218	116.3
-0.0083	-0.0593	-0.0068	0.048	116.4
-0.012	-0.0128	-0.0173	0.1117	116.4
-0.0038	-0.0068	-0.0195	-0.0735	116.3
0.0052	-0.0428	-0.0158	-0.0803	116.6
0.012	-0.0256	-0.0091	0.0682	116.5
0.012	-0.0375	0.0045	0.093	116.5
0.0112	-0.0533	0.015	0.0577	116.6
0.0127	-0.042	0.0217	0.0757	116.4
0.0127	-0.0405	0.0292	0.1732	116.7
0.0112	0.0202	0.0345	0.0742	116.7
0.012	0.036	0.0315	-0.0105	116.5
0.0067	-0.0091	0.0217	-0.06	116.5
0.0022	0.012	0.012	-0.1298	116.7
-0.0008	0.0127	0.006	0.0465	116.7
-0.0038	0.063	-0.0008	0.0675	116.9
-0.006	0.09	-0.0046	-0.078	116.7
-0.0053	0.0615	-0.0098	-0.0998	116.5
-0.006	0.024	-0.024	-0.09	116.6
-0.0046	-0.0503	-0.0353	-0.1328	116.7
0	-0.0465	-0.0428	-0.0346	116.9
-0.0008	-0.0488	-0.0383	0.1335	116.9
-0.0008	-0.0158	-0.0383	0.0885	116.7
-0.0038	0.0292	-0.0383	0.075	117
-0.0046	-0.0075	-0.027	0.0007	116.8
-0.0008	0.0075	-0.0233	-0.18	116.8
-0.003	0.0202	-0.0128	-0.2273	117
-0.0038	0.0637	0.0015	-0.1253	117
-0.003	0.0832	0.0067	-0.027	117
-0.0038	0.0127	0.0015	-0.0495	117
-0.0015	-0.0728	-0.0008	0.0157	117
-0.0008	-0.0878	-0.003	0.0825	116.9
0	-0.0473	-0.0083	0.0172	116.9
0.0015	0.0015	-0.0068	-0.1253	117
0.0045	0.0532	-0.0091	-0.1125	116.9
0.003	0.033	-0.003	0.1162	117.2
0.003	0.0367	0.0007	0.1575	117
0.0037	0.0262	0.0037	0.1177	117.2
0.003	-0.0023	0.0127	0.0592	117.2
0.006	-0.0158	0.009	0	117.1
0.0067	-0.0188	-0.0008	0.1365	117.1
0.0067	0.0037	-0.0053	0.1597	117.1
0.0045	-0.0046	-0.0046	0.0825	117.2
0.0067	0.006	0	0.0765	117.3
0.012	-0.0083	0.0045	0.1177	117.2
0.009	-0.027	0.012	0.033	117.2
0.0067	-0.0046	0.012	-0.0878	117.2
0.0037	0.0232	0.009	-0.099	117.4
0.0015	0.0255	0.012	-0.135	117.2
0.0007	0.0007	0.0105	0.0217	117.4
0.003	0.0127	0.0105	0.0435	117.1
0.0015	0.0195	0.0015	-0.0578	117.2
-0.0046	-0.0083	-0.0091	-0.027	117.3
-0.003	0.003	-0.0098	-0.0368	117.2
-0.0038	0.0427	-0.0015	-0.024	117.4
-0.0038	0.0727	0.0067	-0.084	117.4
-0.0046	0.0675	0.0075	-0.0915	117.3
-0.0075	0.024	0.012	-0.0511	117.4
-0.006	-0.0668	0.0157	-0.0173	117.4
-0.003	-0.1335	0.0172	0.0052	117.4
0.0015	-0.0938	0.0165	-0.024	117.4
0.0007	-0.0533	0.0105	-0.0428	117.3
-0.0015	0.012	0.006	-0.0721	117.4
-0.0015	0.087	0.0052	-0.003	117.5
-0.0053	0.0502	0.0052	0.0345	117.4
-0.0075	-0.027	0.0022	0.0727	117.4
-0.0098	-0.0833	-0.0023	0.1252	117.6
-0.0091	-0.0803	-0.0046	0.0675	117.6
-0.0068	-0.0375	-0.0046	0.0517	117.5
-0.0038	0.0067	-0.003	0.0705	117.5
-0.0038	0.021	0.0015	0.0397	117.5
-0.0083	0.0255	0.0045	-0.0038	117.6
-0.012	0.03	0.009	0.0105	117.7
-0.0083	0	0.009	-0.0113	117.6
-0.0023	0.0202	0.0022	-0.0518	117.5
0.0007	0.045	-0.0046	-0.0968	117.5
-0.0015	0.0675	-0.0165	-0.1013	117.4
-0.0046	0.1222	-0.0256	-0.0593	117.4
-0.0046	0.1102	-0.024	-0.0443	117.5
-0.0023	-0.0346	-0.0278	0.0712	117.4
0.003	-0.1815	-0.0218	0.1282	117.5
0.0097	-0.1613	-0.012	0.1425	117.6
0.0105	-0.1178	-0.0053	0.0877	117.5
0.0127	-0.0825	0.0015	-0.0285	117.7
0.0105	-0.0248	0.0105	-0.0263	117.6
0.0067	-0.0188	0.0187	-0.0638	117.5
0.0075	0.0007	0.0255	-0.0533	117.7
0.0067	0.0052	0.0277	-0.0263	117.5
0.0045	0.0247	0.0262	-0.027	117.7
0.0075	0.0382	0.0232	-0.0398	117.5
0.0082	0.0367	0.012	-0.0803	117.6
0.0082	0.06	0.003	-0.0615	117.6
0.0045	0.0877	0.0022	-0.0233	117.7
0	0.1395	-0.0083	0.033	117.6
-0.0008	0.0832	-0.012	0.0352	117.7
0.0015	-0.012	-0.0068	0.0952	117.7
0.0007	-0.078	-0.0098	0.1327	117.4
0.0007	-0.1073	-0.0143	0.0225	117.7
-0.0015	-0.0495	-0.0225	0.0142	117.6
-0.0046	-0.0068	-0.021	0.0105	117.6
-0.0038	-0.0293	-0.012	0.012	117.7
0.0015	-0.063	-0.0008	0.021	117.6
0.0045	-0.0293	0.006	-0.0083	117.8
0.0022	-0.0113	0.0082	0.0082	117.7
-0.0008	0.0195	0.0052	-0.0503	117.6
-0.0046	0.1035	0	-0.0608	117.8
-0.0053	0.1515	0.0015	-0.0203	117.8
-0.0053	0.1357	0.0007	-0.0008	117.7
-0.0046	0.0832	-0.0008	0.0255	117.8
-0.003	0.0457	-0.0038	-0.0181	117.9
-0.0023	-0.0218	-0.0075	-0.027	117.6
0.003	-0.0443	-0.0075	-0.003	117.8
0.0037	-0.1065	-0.0105	0.015	117.7
0.003	-0.1335	-0.0083	0.0097	117.7
0.0045	-0.0743	-0.0015	-0.015	117.9
0.003	-0.099	0.0007	-0.0098	117.8
0.003	-0.075	0.0052	-0.0278	117.7
0.0015	-0.0338	0.0082	-0.0353	118.1
0.0007	0.0727	0.0015	-0.045	117.8
-0.0023	0.1477	0.003	-0.0878	117.8
0.003	0.0937	0.0082	-0.054	117.7
0.0067	0.0367	0.0052	0.0037	117.9
0.0037	-0.0285	0.003	0.0405	117.9
0.0082	-0.0405	0.0052	0.1132	117.8
0.0105	-0.042	0.0007	0.1057	117.8
0.0082	-0.0075	-0.0083	0.027	117.7
0.003	-0.0398	-0.0105	-0.0443	117.7
-0.003	-0.0653	-0.0098	-0.0308	117.6
-0.0053	0.0045	-0.0053	-0.0091	117.8
-0.0068	0.0472	0.0015	-0.033	117.6
-0.0068	0.0412	0.0082	0.0217	117.8
-0.003	-0.0218	0.015	0.063	117.8
-0.003	-0.0278	0.0195	0.063	117.8
-0.0023	-0.012	0.0217	0.0592	117.7
0.003	-0.0165	0.0217	0.042	117.7
0.0007	-0.0203	0.0225	-0.0046	117.7
0	0.0037	0.024	-0.0615	117.8
0.0015	0.033	0.0195	-0.156	117.5
0.0007	0.042	0.0105	-0.1703	117.7
0.0045	0.0082	-0.0008	0.003	117.8
0.0037	-0.0113	-0.0113	0.0285	117.7
0.0007	-0.0218	-0.0188	0.0262	117.5
-0.0008	-0.027	-0.0173	0.0352	117.6
-0.003	0.048	-0.0068	-0.0203	117.5
-0.003	0.0457	-0.0008	-0.0053	117.7
-0.0023	0.0367	0.0075	-0.0863	117.7
-0.0046	0.033	0.0105	-0.1478	117.5
-0.0068	0.0367	0.0082	-0.132	117.6
-0.0105	0.0652	0.0067	-0.1118	117.8
-0.006	-0.048	0.0052	0.0045	117.5
-0.0015	-0.0706	0.0022	0.1635	117.8
0.003	0.0225	-0.0046	0.18	117.6
0.0052	0.0255	-0.0098	0.0937	117.6
0.0007	0.033	-0.0128	0.0352	117.5
0.003	0.048	-0.0158	-0.0091	117.7
0.0037	0.0052	-0.0195	0.0172	117.6
0.0037	-0.0503	-0.0181	0.0307	117.5
0.003	-0.1118	-0.0158	-0.012	117.4
0.0015	-0.1485	-0.0113	-0.0518	117.7
0.0015	-0.0555	-0.0046	0.0075	117.6
0.0022	0.027	-0.0083	0.081	117.5
0.003	0.0397	-0.0068	0.0105	117.5
0.0037	0.0465	-0.003	0.018	117.7
0.0052	-0.0173	0.0007	0.0915	117.5
0.003	-0.0368	0.0045	0.0352	117.7
0	-0.0308	-0.0015	-0.0023	117.4
-0.0038	-0.0503	-0.0038	0.018	117.5
-0.0053	-0.024	-0.0015	0.0007	117.6
-0.0053	0.0112	0.0015	-0.0158	117.5
-0.006	0.0315	0.0052	-0.0315	117.7
-0.0023	0.0405	0.0067	-0.0195	117.5
-0.0023	0.024	0.009	-0.0053	117.5
-0.0023	-0.0263	0.009	-0.0218	117.4
-0.0008	-0.0113	0.003	-0.0323	117.4
-0.0008	0.0255	0	-0.0233	117.3
-0.0008	0.039	0.0007	-0.0113	117.4
0.0045	0.0247	0.003	0.0067	117.5
0.0075	-0.024	0.0037	0.0517	117.4
0.0045	-0.0053	0.003	0.0367	117.5
0.0037	0.0217	0.0052	-0.0053	117.4
0.003	0.045	0.0067	-0.0518	117.4
0.0007	0.0255	0.0067	-0.099	117.4
0.0007	0.003	0.0052	-0.0878	117.2
0.0015	0.0052	0.0052	-0.0188	117.2
0.0037	-0.0128	0.0067	0.12	117.4
0.006	-0.0195	0.0082	0.183	117.4
0.009	-0.0195	0.0015	0.069	117.4
0.0075	-0.0098	-0.0023	-0.024	117.4
0.0067	-0.0315	0.0015	0.0045	117.3
0.0022	-0.0158	0	0.0075	117.2
-0.0038	-0.0203	-0.0053	-0.0225	117.2
-0.0091	-0.0165	-0.012	-0.0188	117.2
-0.0135	0.036	-0.0181	-0.0181	117.2
-0.0128	0.0532	-0.0233	-0.024	117.1
-0.0105	0.057	-0.0263	-0.0413	117.2
-0.0098	0.006	-0.0233	-0.0218	117.3
-0.0023	-0.0398	-0.0203	-0.0173	117
0.003	0.0052	-0.012	-0.06	117.3
0.003	0.0607	-0.003	0.003	117.2
0.0007	0.0502	-0.0015	0.039	117.2
-0.0053	-0.0091	-0.0015	0.0607	117.3
-0.0046	-0.084	-0.0015	0.0967	117.1
-0.0015	-0.0593	0.0075	-0.0893	117
-0.0053	0.0135	0.0082	-0.1688	117
-0.0053	0.0517	0.012	-0.0436	117.2
0.0015	0.003	0.021	-0.0338	117
0.0052	-0.0706	0.0232	-0.024	117.3
0.003	-0.045	0.0232	0.027	117
0.0037	-0.0825	0.0142	0.0862	117.2
0.003	-0.0758	-0.0046	0.1432	117.2
-0.0008	-0.0405	-0.0158	0.0705	117
-0.0015	-0.0413	-0.0158	-0.03	117.1
-0.003	0.0067	-0.015	-0.1028	116.8
-0.003	0.0165	-0.0128	-0.0765	117
-0.0046	0.024	-0.0083	0.012	117
-0.0053	0.0645	-0.003	0.0232	117
-0.0053	0.15	0.0067	0.0307	117
-0.003	0.0967	0.0172	-0.0091	117.2
-0.0015	-0.0315	0.0225	-0.0008	117
-0.0015	-0.0608	0.0202	-0.0083	116.9
-0.0023	-0.048	0.015	-0.0503	117
-0.0023	0.0105	0.0157	-0.0046	117.1
-0.003	0.0157	0.0127	-0.0098	117
-0.0046	0.0067	0.006	0.0277	117.1
-0.0015	0.027	0.0052	0.0232	116.8
-0.0015	0.057	-0.0008	-0.0338	117.2
-0.0038	0.099	-0.006	-0.0593	116.8
0	0.1087	-0.0113	-0.1088	116.8
0.0052	0.024	-0.0128	-0.0518	116.9
0.009	-0.054	-0.012	0.0592	116.9
0.009	-0.0593	-0.012	0.0735	116.9
0.0082	-0.0173	-0.0158	0.0427	116.8
0.0067	0.1027	-0.0165	0.051	116.7
0.0067	0.1312	-0.0068	0.0127	116.9
0.009	0.09	0	-0.0293	116.9
0.009	0.0232	0.009	-0.0593	116.7
0.0045	-0.0653	0.021	-0.0075	117
0.0067	-0.0788	0.0277	0.1215	117
0.009	-0.1778	0.0375	0.1387	116.7
0.0097	-0.2273	0.039	0.0622	116.8
0.0142	-0.2213	0.0345	0.0007	116.7
0.0112	-0.18	0.0277	0.0315	116.9
0.0082	-0.0308	0.0217	0.0562	116.7
0.0082	0.0255	0.0217	0.1012	116.7
0.0052	0.0892	0.0172	0.1065	116.7
0.0052	0.06	0.0127	0.0277	116.6
0.006	-0.0008	0.0112	-0.0765	116.5
-0.0008	0.0517	0.0052	-0.192	116.6
-0.0046	0.0765	-0.003	-0.1313	116.7
-0.0091	0.0742	-0.0091	-0.0668	116.4
-0.0143	0.0712	-0.0143	-0.0998	116.6
-0.0173	0.0577	-0.021	-0.1396	116.6
-0.0173	0.0382	-0.027	-0.1808	116.5
-0.0113	-0.0105	-0.0256	-0.042	116.7
-0.0046	-0.0361	-0.0181	0.1627	116.6
-0.0015	-0.0053	-0.0135	0.0915	116.6
-0.0023	-0.0233	-0.0143	-0.0383	116.7
-0.0023	-0.0368	-0.0173	0.0142	116.5
-0.0015	-0.024	-0.0225	-0.045	116.7
-0.0008	0.0232	-0.0256	-0.0856	116.6
0.006	-0.0023	-0.021	0.063	116.4
0.012	-0.048	-0.012	0.12	116.7
0.0127	-0.0225	-0.0053	0.1207	116.7
0.0097	-0.0053	-0.0008	0.0547	116.5
0.0082	0.042	0.0022	-0.0143	116.6
0.006	0.024	-0.0008	-0.0195	116.3
0.006	0.0225	-0.0053	0.0142	116.4
0.0045	-0.012	-0.0105	0.1477	116.5
0.0015	-0.0405	-0.0158	0.111	116.6
-0.0008	0.0195	-0.0158	0.0157	116.5
-0.0098	0.0187	-0.0158	-0.0743	116.5
-0.0143	-0.0046	-0.0165	-0.2093	116.4
-0.0091	-0.0668	-0.0128	-0.135	116.4
-0.0046	-0.0218	-0.006	-0.0893	116.5
-0.003	0.0232	0.0052	-0.0443	116.4
-0.0015	-0.0315	0.012	0.048	116.5
-0.003	0.0255	0.012	-0.0098	116.5
-0.0053	0.0802	0.012	-0.0023	116.4
-0.0008	0.099	0.009	-0.0098	116.6
0.0015	0.0712	0.0037	0.0202	116.4
-0.0015	0.0607	-0.0053	0.0045	116.5
-0.0046	0.0817	-0.0158	-0.12	116.4
-0.0083	-0.0158	-0.0233	-0.063	116.4
-0.0075	-0.1365	-0.0285	0.0292	116.4
-0.003	-0.1373	-0.0233	0.0975	116.4
0.0037	-0.0975	-0.0188	0.1185	116.4
0.0067	-0.042	-0.012	0.1635	116.6
0.006	0.0435	-0.0008	0.159	116.4
0.0075	0.0465	0.0052	0.1237	116.4
0.0052	0.0577	0.0105	0.1687	116.6
0	0.0112	0.0127	0.0615	116.4
0	-0.0706	0.0105	-0.0083	116.4
-0.0015	-0.048	0.0067	-0.0375	116.5
-0.0015	-0.027	0.0045	-0.1313	116.2
0.0007	-0.0098	0	-0.15	116.5
-0.0015	0.003	-0.0023	-0.0975	116.4
-0.003	0.0255	0.0007	-0.003	116.5
-0.003	0.0427	0.0067	0.03	116.6
-0.0015	0.051	0.0045	0.033	116.4
0.0007	0.0217	-0.003	0.015	116.4
0.0022	0.0105	-0.0158	-0.1043	116.4
0.0052	0.0712	-0.0256	-0.1418	116.4
0.0052	0.054	-0.0188	-0.078	116.2
0	0.0142	-0.0143	-0.0398	116.5
-0.0015	-0.0518	-0.0105	0.0157	116.4
-0.0008	-0.1103	-0.003	-0.0105	116.3
-0.0046	-0.0585	0.0075	-0.0818	116.4
-0.0053	-0.0008	0.0187	-0.114	116.3
-0.0068	0.057	0.024	-0.1335	116.4
-0.0105	0.024	0.0292	-0.0353	116.6
-0.012	-0.0398	0.0277	0.1395	116.4
-0.012	-0.0135	0.0202	0.1815	116.5
-0.0068	0.015	0.0105	0.033	116.4
-0.0015	0.021	-0.0015	-0.048	116.2
-0.0015	-0.0293	-0.0068	-0.0173	116.5
-0.0015	-0.0353	-0.0105	0.0592	116.5
0.0015	-0.0165	-0.012	0.1162	116.3
0.003	0.0007	-0.0083	0.0862	116.5
0.003	0.0112	-0.0008	0.156	116.5
0.0067	-0.0368	0.0082	0.2032	116.4
0.0097	-0.048	0.0097	0.027	116.5
0.0127	-0.042	0.012	-0.1148	116.2
0.0135	-0.0113	0.0067	-0.2273	116.4
0.0052	0.0082	0.0052	-0.1373	116.6
0.003	0.0285	0.009	0.1155	116.5
0.0007	0.0615	0.0082	0.1365	116.6
-0.0015	0.0367	0.0052	0.2182	116.6
0.0045	0.0195	0.0067	0.111	116.5
0.003	-0.0181	0.0007	-0.1441	116.5
0.0052	-0.0383	-0.0068	-0.1935	116.3
0.0045	-0.0135	-0.0046	-0.1688	116.6
-0.0008	-0.0008	-0.003	-0.1853	116.5
0.0007	0.0022	-0.0053	-0.123	116.6
0.0045	-0.0068	-0.0038	-0.0143	116.5
0.0045	0.0015	-0.0008	-0.0578	116.5
0.0007	0.0225	0.0015	0.0727	116.5
-0.0015	0.0367	0.0045	0.039	116.6
-0.0038	0.0645	0.009	-0.1485	116.7
-0.0075	0.1027	0.0165	-0.186	116.5
-0.0068	0.0922	0.009	-0.0721	116.6
-0.003	0.0502	-0.0008	0.1447	116.7
-0.0008	-0.0308	0.003	0.192	116.5
0.003	-0.1238	0.009	0.1882	116.8
0.0052	-0.0915	0.0105	0.0877	116.5
0.0082	-0.0143	0.0157	0.0892	116.5
0.0097	0.0442	0.0142	0.0945	116.6
0.0045	0.042	0.0142	0.042	116.5
-0.0015	-0.0008	0.0195	0.0412	116.5
-0.0038	-0.0473	0.0195	0.0307	116.7
-0.006	-0.0691	0.0217	0.1335	116.6
-0.0046	-0.039	0.018	-0.0293	116.6
0.0007	-0.0368	0.0045	-0.1388	116.6
-0.0008	0.0382	-0.0008	-0.0683	116.4
-0.0068	0.042	0.0037	-0.1155	116.6
-0.0046	0.0187	0.0127	-0.1013	116.7
-0.0046	0.0045	0.0187	-0.093	116.5
-0.0038	-0.054	0.0157	0.0615	116.8
0.0022	-0.0346	0.009	0.225	116.6
0.003	-0.0638	-0.0038	0.2167	116.6
0.0037	-0.0413	-0.0113	0.0127	116.6
0.0045	0.048	-0.0083	-0.2325	116.4
0.0037	0.06	-0.0038	-0.0863	116.7
0	-0.012	0.0052	0.0015	116.5
0	-0.063	0.0007	-0.0585	116.7
-0.0008	-0.0083	-0.0068	-0.0165	116.6
-0.0008	0.0885	-0.0083	-0.0953	116.5
0.0007	0.1245	-0.0098	-0.1808	116.5
-0.0046	0.0892	-0.0128	-0.1463	116.7
-0.0038	-0.0068	-0.015	-0.0053	116.5
0	-0.0871	-0.0165	0.0517	116.5
0.0007	-0.0653	-0.0195	0.0817	116.7
0.009	-0.0398	-0.0181	0.084	116.5
0.0105	-0.0218	-0.0195	0.021	116.6
0.0082	-0.0098	-0.0143	0.021	116.7
0.003	0.009	-0.0113	-0.0218	116.5
-0.0008	0.018	-0.0083	0	116.7
-0.0008	0.015	-0.0068	-0.0128	116.6
0.0007	0.0015	-0.0068	0.009	116.5
0.0067	-0.0405	-0.0038	0.0937	116.8
0.009	-0.0285	-0.0023	0.0292	116.7
0.0082	-0.003	-0.0015	-0.0105	116.7
0.006	0.0532	-0.0053	-0.0436	116.6
0.006	0.0967	-0.0053	-0.054	116.6
0.003	0.057	-0.0046	-0.0285	116.7
-0.0008	-0.024	-0.0023	-0.0053	116.9
-0.0008	-0.1006	-0.0023	0.0442	116.6
-0.0038	-0.0773	-0.0068	0.0465	116.7
-0.0068	-0.0413	-0.0105	0.0577	116.6
-0.006	-0.0233	-0.015	0.0705	116.6
-0.0038	0.0135	-0.0135	0.09	116.8
-0.0015	0.0105	-0.0105	0.0442	116.6
-0.0038	-0.0158	-0.0068	-0.0105	116.7
-0.0068	0.0157	-0.0083	-0.0278	116.6
-0.0075	0.0577	-0.0098	-0.0533	116.5
-0.006	0.0502	-0.0053	0.012	116.7
-0.0053	0.0375	0	0.0847	116.7
-0.0046	-0.0188	0.0082	0.0667	116.7
0	-0.0548	0.0097	-0.0368	116.8
-0.0008	-0.0015	0.0097	-0.0863	116.8
0	0.0502	0.0105	-0.0436	116.6
0	0.0615	0.0127	-0.0233	116.7
-0.0008	0.0172	0.0105	-0.033	116.7
0.0007	-0.024	0.0037	-0.0443	116.6
-0.0015	-0.0098	-0.0008	-0.0818	116.9
-0.0008	-0.033	-0.0068	-0.0653	116.6
0.0022	-0.0436	-0.0091	-0.0008	116.6
0.0007	-0.0091	-0.0038	0.0105	116.7
0.0007	-0.0248	-0.0008	0.0592	116.7
0.0045	-0.054	0.0105	0.069	116.8
0.0015	-0.0218	0.0225	-0.0091	116.7
-0.0046	0.021	0.024	0.0007	116.7
-0.0053	0.0345	0.0232	0.078	116.7
-0.0046	0.0232	0.018	0.105	116.7
-0.0015	0.018	0.0135	0.0495	116.7
0.0015	0.0405	0.0067	-0.0915	116.7
-0.0008	0.0502	-0.0008	-0.225	116.8
-0.0015	0.1087	-0.003	-0.1508	116.7
-0.0046	0.066	-0.003	0.051	116.9
-0.0015	-0.0878	-0.0008	0.24	116.7
0.0015	-0.126	0.0015	0.2737	117
0.0015	-0.0721	0.0052	0.0375	116.7
0.0007	0.0195	0.0007	-0.0968	116.7
-0.0008	0.0495	-0.0008	-0.012	116.8
-0.0015	-0.0293	0.0007	0.0457	117
-0.0023	-0.0983	-0.0015	0.0487	116.7
0.0007	-0.0525	-0.0015	0.0825	117
0.0015	0.0127	0	0.042	116.7
0.0015	-0.0105	0.0037	-0.0968	116.7
-0.003	-0.039	0.003	-0.168	116.7
-0.0053	0.0202	0.0015	-0.1411	117
-0.0015	0.1237	0.0007	-0.0248	116.9
-0.0015	0.0682	-0.0128	0.0412	116.9
-0.0008	-0.0863	-0.0233	0.0712	116.9
0.003	-0.1028	-0.0143	0.0787	116.7
0.0052	-0.0548	-0.0135	-0.0233	116.8
0.0037	-0.0285	-0.0181	-0.1013	116.7
-0.0008	-0.0023	-0.012	-0.1485	116.7
-0.003	0.012	-0.0046	-0.1028	116.9
-0.0053	-0.003	0.0075	0.0022	116.8
-0.0038	0.0045	0.0157	0.0382	117
0	0.0442	0.0195	0.054	116.9
0.0045	0.0675	0.0187	0.0345	116.8
0.009	0.0735	0.015	0.0697	117
0.0082	0.048	0.0082	0.0975	116.7
0.0052	0.0247	0.0037	-0.0278	116.7
0.0082	0.018	0.0075	-0.1328	116.7
0.0135	-0.0128	0.009	-0.0691	116.9
0.0142	0	0.0075	-0.0443	116.8
0.0082	0.0375	-0.0008	-0.0675	117
0.0045	0.027	-0.0091	-0.0893	116.8
0.003	-0.0203	-0.0113	-0.0225	116.8
-0.0015	-0.0458	-0.0098	0.09	116.9
-0.0008	-0.015	-0.003	0.0517	116.9
0.0037	0.0082	-0.0046	0.114	117
0.006	-0.0038	-0.0075	0.1215	116.9
0.0082	-0.0195	-0.0068	0.0307	116.7
0.0045	-0.003	-0.0068	-0.0315	116.9
-0.003	-0.0053	-0.0075	-0.0346	116.8
-0.0091	-0.0128	-0.0128	0.0097	116.9
-0.0091	-0.0278	-0.0098	-0.0375	116.7
-0.0083	-0.0465	-0.006	-0.0181	116.9
-0.0075	0.012	-0.0038	0.012	117
-0.003	0.0405	0.0007	-0.0218	116.8
-0.0053	-0.0046	0.003	-0.0353	116.8
-0.0068	0.0472	0.0045	-0.0218	116.9
-0.0053	0.108	0.0082	-0.0383	116.8
0.0007	0.0675	0.0105	-0.0346	116.8
0.0045	0.0487	0.012	-0.0128	117
0.0037	0.009	0.0142	-0.0113	116.9
0.0037	0.003	0.0082	-0.0293	116.9
0.0015	0.0187	0.003	-0.057	117
-0.0008	-0.0375	0.003	-0.0091	116.8
0	-0.1155	0.0007	0.0652	117
0	-0.1553	-0.006	0.1665	116.8
-0.0015	-0.0825	-0.0113	0.099	116.8
-0.0008	-0.042	-0.0075	-0.0691	116.9
-0.0046	-0.0181	-0.0023	-0.0668	116.8
-0.0053	-0.0046	0.0067	-0.0053	116.9
-0.0008	-0.0195	0.0097	0.1237	116.8
-0.0008	0.0015	0.0067	0.12	117
0.0007	-0.0143	0.0045	-0.0091	116.7
0.0015	0.0255	-0.0015	-0.0203	116.9
0.0007	0.057	-0.0046	-0.0143	116.8
-0.0008	0.03	-0.003	-0.0165	117
0.0022	-0.0015	-0.003	0.0195	117
0.0052	-0.0405	-0.0083	0.0615	116.6
0.0045	0.003	-0.0083	0.0412	116.9
0.003	0.048	-0.003	-0.0158	116.8
-0.0008	0.033	-0.0038	-0.0458	116.9
-0.0008	0.0232	-0.0053	-0.027	116.8
-0.0008	0.009	-0.0083	0.0157	116.7
-0.003	0.0052	-0.0113	0.0052	116.7
-0.0046	0.0232	-0.0083	-0.0068	116.7
-0.0015	0.027	-0.0075	-0.0098	116.8
0.003	-0.0068	-0.0113	-0.0046	116.9
0.0022	-0.09	-0.012	0.0675	116.8
0.0037	-0.1073	-0.0075	0.0892	116.9
0.0052	0.0022	0	0.0142	116.8
0.003	0.0757	-0.0008	-0.0488	116.8
0	0.057	0.0007	-0.0518	116.7
-0.0015	0.0082	0.0045	-0.0923	116.8
-0.0008	0.0022	0.0045	-0.1253	116.8
-0.0008	0.003	0.0045	-0.054	116.8
0	0.0007	0.0045	0	116.7
-0.0008	0.0142	0.003	0.009	116.7
-0.0008	0.0067	-0.0015	0.0105	116.7
0	-0.0203	-0.0023	-0.0015	116.9
0.0015	-0.0165	0.0015	-0.0091	116.6
0.003	-0.003	0.009	-0.0008	116.9
-0.0008	-0.039	0.0127	0.0105	116.7
-0.003	-0.0346	0.0127	0.0285	116.7
-0.0015	-0.0436	0.0097	0.0067	116.7
-0.0015	-0.0143	0.009	-0.0653	116.8
-0.003	0.06	0.0052	-0.1013	116.7
-0.0053	0.039	-0.0023	-0.0743	116.9
-0.0053	-0.003	0.0015	0.003	116.7
-0.003	-0.0068	-0.0008	0.0615	116.8
0.0022	0.0247	-0.0046	0.0517	116.9
0.0052	0.0517	-0.0053	0.0315	116.7
0.0037	0.0382	-0.0046	0.0367	116.7
0.0045	-0.0083	-0.003	0.033	116.8
0.0045	-0.0181	-0.0053	0.0375	116.6
0.0037	-0.0015	-0.003	0	116.8
0.0045	0.0007	-0.0008	-0.042	116.7
0.0037	-0.0135	-0.0008	0.039	116.7
0.0052	-0.0068	0	0.0615	116.7
0.0052	0.0337	0.0022	-0.0308	116.7
0.0045	0.0405	0.003	-0.003	116.6
0.0045	0.0097	0.0045	0.0705	116.8
0.003	-0.0436	0.0022	0.0202	116.7
0.0045	-0.03	0.0007	-0.0293	116.7
0.003	-0.0128	-0.003	-0.0008	116.7
0.0007	-0.0773	-0.0091	0.0877	116.7
0.0037	-0.0863	-0.0075	0.057	116.6
0.0015	-0.0555	-0.0068	-0.0518	116.8
-0.0038	-0.0353	-0.0015	-0.108	116.5
-0.0046	-0.0158	0.0052	-0.0983	116.7
-0.003	0.0052	0.0142	0.0045	116.7
-0.003	0.0465	0.0195	-0.045	116.6
-0.0008	0.0607	0.0105	-0.075	116.7
-0.0015	0.0427	0.0045	-0.0173	116.6
-0.006	0.0577	0	-0.039	116.7
-0.0038	0.0502	-0.0068	-0.0075	116.5
-0.0046	0.0105	-0.0091	0.0457	116.7
-0.003	-0.0091	-0.003	0.0705	116.6
0.0007	-0.0128	0.0067	0.021	116.6
0.0007	0.0142	0.0142	0.0195	116.6
0.0007	0.012	0.018	0.0855	116.6
0.0007	0.033	0.0172	0.0165	116.7
-0.003	0.048	0.0165	-0.0368	116.4
-0.0053	-0.0091	0.0217	-0.003	116.7
-0.0053	-0.0413	0.024	0.0082	116.5
-0.0023	-0.054	0.0247	0.021	116.5
0	-0.0346	0.0262	0.0127	116.7
-0.0015	-0.021	0.0195	-0.0075	116.5
-0.003	-0.0256	0.0112	-0.0203	116.5
0	-0.0165	0.0075	-0.027	116.4
0.0045	0.0187	0.009	-0.0218	116.5
0.0045	0.0457	0.0097	-0.0293	116.5
0.0015	0.0255	0.0097	-0.0285	116.4
0.0022	-0.0068	0.006	-0.0256	116.6
0.0015	-0.0338	0.0007	0.018	116.4
0.0052	0.0052	-0.0053	-0.0075	116.5
0.0082	0.0157	-0.0083	-0.0615	116.2
0.0052	-0.0436	-0.0083	0.0502	116.5
0.006	-0.0638	-0.0105	0.084	116.5
0.006	-0.0158	-0.0165	0.0307	116.3
0.0067	0.042	-0.0195	-0.015	116.5
0.0052	0.048	-0.0233	-0.114	116.3
0	0.0495	-0.0285	-0.0856	116.5
-0.0038	0.0165	-0.0278	0.0405	116.3
-0.0023	0.006	-0.0278	0.0255	116.3
-0.0038	0.0382	-0.0315	0.0082	116.3
-0.0075	0.0007	-0.0315	0.0367	116.2
-0.0091	-0.0405	-0.0293	-0.0338	116.3
-0.0113	-0.0653	-0.024	0.0135	116.2
-0.0083	-0.0585	-0.0218	0.0427	116.3
-0.0038	-0.0256	-0.0135	0.003	116.1
0.003	0.0157	-0.0091	0.0352	116.3
0.0037	0.0607	-0.0083	0.0585	116.3
0.0022	0.0442	-0.0068	0.0855	116.1
0.003	0.0345	-0.0083	0.036	116.2
0.0045	0.0165	-0.0075	-0.0105	116.1
0.0052	-0.0075	-0.0083	-0.0218	116.2
0.0007	-0.0008	-0.0083	-0.0818	116.1
0.0007	-0.0053	-0.0053	-0.0503	116.3
-0.0015	-0.063	-0.0053	0.0705	116.2
-0.0046	-0.0698	-0.0023	0.0465	116.2
-0.0046	-0.0181	0.0045	0.0112	116.1
-0.0091	-0.0233	0.0037	-0.0143	116.2
-0.0068	-0.0053	0.0007	-0.0706	116
-0.0046	-0.0068	-0.0008	-0.0795	116.2
-0.0038	-0.0091	0.0045	-0.1103	116.2
0	0.0165	0.0097	-0.0585	116.3
0	0.0322	0.0105	0.0022	116
0.0037	0.0427	0.012	0.0105	116.3
0.0052	0.0247	0.0142	0.0247	116
0.0037	0.027	0.0202	0.0255	116.1
0.0037	0.0765	0.0255	0.0067	116.2
-0.0008	0.1237	0.0217	-0.0158	116
-0.003	0.0787	0.0112	0.0075	116.2
0.0007	-0.0256	0.0007	0.012	116.1
0.0015	-0.063	-0.006	0.0345	115.8
0.0015	-0.0465	-0.0068	0.0795	116.1
0.009	-0.078	-0.0046	0.1897	116
0.012	-0.096	-0.0075	0.1725	115.9
0.0105	-0.078	-0.0023	-0.063	115.9
0.0075	-0.027	0.0067	-0.081	116.1
-0.0008	0.0322	0.009	-0.0188	116
-0.0023	0.0097	0.0067	-0.0083	116.1
-0.003	0.0247	0.0075	0.0007	115.8
-0.0053	0.0352	0.006	-0.0181	116.1
-0.0015	0.009	0.0015	0.006	116
-0.003	0.0202	-0.0015	-0.006	116
-0.006	0.0082	-0.0046	0.0037	115.8
-0.0053	-0.0218	-0.0038	-0.0091	115.9
-0.0038	-0.048	0	-0.0548	115.6
-0.0008	-0.0443	0.0022	-0.111	116.1
0.0022	-0.0278	-0.0008	-0.1013	115.9
0.0075	0.006	0.0022	-0.0383	115.8
0.0052	0.0022	0.0045	-0.0578	115.7
0.0015	-0.0158	0.006	-0.048	115.9
0.0037	0.0217	0.0052	-0.0668	115.7
0.003	0.0577	-0.0008	-0.0758	115.8
0.0007	0.0675	-0.0046	-0.0256	115.6
-0.0053	0.0555	-0.0128	0.045	115.7
-0.0091	0.0082	-0.0143	0.087	115.7
-0.003	-0.078	-0.0091	0.039	115.7
0.0045	-0.0728	-0.006	0.09	115.6
0.0045	-0.0728	-0.0046	0.1372	115.7
0	-0.0668	-0.0015	0.0967	115.6
0.0015	-0.033	0.0015	0.0465	115.7
0.0045	-0.0428	0.0067	0.006	115.6
0.0007	-0.0046	0.0105	0.015	115.6
-0.0008	0.0165	0.0105	0.0097	115.7
-0.0008	0.048	0.0067	0.0127	115.5
-0.0015	0.0562	0.0045	-0.0203	115.7
-0.0053	0.054	0.0067	-0.0503	115.6
-0.0038	0.0555	0.0067	-0.0615	115.5
-0.0046	0.06	0.0082	-0.1193	115.5
-0.003	0.0697	0.009	-0.1388	115.6
-0.0053	0.036	0.006	-0.0803	115.5
-0.006	0.0195	-0.0015	0.0435	115.5
-0.003	0.0157	-0.0173	0.0952	115.5
-0.0046	-0.021	-0.0248	0.027	115.5
-0.003	-0.0938	-0.0256	0.012	115.6
-0.003	-0.0765	-0.0195	0.0525	115.5
-0.0015	-0.0315	-0.0091	0.0412	115.4
0.0015	-0.0218	-0.0015	0.006	115.5
0.0022	-0.0188	0.0105	-0.0083	115.3
0.003	-0.0405	0.015	-0.0008	115.6
0.0037	-0.0128	0.018	0.0045	115.5
0.003	0.0097	0.015	-0.015	115.5
0.0052	0.0255	0.0127	-0.0218	115.5
0.0052	0.0405	0.0142	-0.0053	115.4
0.0045	0.0457	0.0097	0.0315	115.5
0.0022	0.0457	0.0045	0.0645	115.5
-0.0008	0.0217	-0.0038	0.0637	115.5
0.0015	0.0127	-0.0083	0.042	115.2
-0.0008	0.0225	-0.0105	-0.0338	115.4
-0.0008	-0.0173	-0.012	-0.042	115.4
0.0015	-0.0623	-0.0053	0.0045	115.3
-0.0008	0.0082	0.0007	-0.0721	115.4
-0.0053	0.0352	0.0045	-0.0346	115.4
-0.0053	0.0105	0.0067	0.0382	115.4
-0.0053	0.0345	0.0105	0.027	115.4
-0.003	0.0187	0.0165	0.0465	115.4
-0.0008	0.0105	0.0135	-0.0143	115.3
0.0015	-0.0218	0.0082	-0.024	115.3
0.003	-0.0893	-0.0008	0.0322	115.3
-0.0015	-0.1125	-0.012	0.0787	115.2
-0.003	-0.0668	-0.0143	-0.0083	115.2
-0.003	0.012	-0.0105	-0.1058	115.2
-0.0053	0.0285	-0.0053	-0.0203	115.2
-0.0023	0.042	0.0015	-0.0525	115.2
-0.0015	0.06	0.0045	-0.0743	115.1
0.0007	0.033	0.0105	-0.045	115.3
0.0037	0.03	0.0105	-0.0713	115.1
0.0045	0.0502	0.0045	-0.0668	115.3
0.0067	0.012	-0.0023	-0.0383	115.2
0.006	-0.0278	-0.0046	0.0615	115.3
0.0067	-0.0256	-0.0015	0.1597	115.4
0.0097	-0.0758	-0.0015	0.144	115.4
0.012	-0.0825	-0.0053	-0.0263	115
0.0127	-0.0458	-0.0083	-0.0788	115.1
0.009	-0.027	-0.0038	0.0382	115.4
0.0052	-0.0158	0.0015	0.0637	115.2
0.0052	-0.0143	-0.0008	0.0165	115.2
-0.0008	0.0307	-0.0008	-0.0293	115.2
-0.003	0.066	0.0022	-0.0975	114.9
-0.0038	0.0997	0.0045	-0.0743	115.2
-0.006	0.0712	0.0045	-0.003	115.2
-0.0075	0.003	0.0045	0.0105	115
0	-0.0405	0.0045	0.003	115.1
0.0082	-0.0885	0.006	-0.0158	115
0.0105	-0.0495	0.0082	0.0397	115
0.0127	-0.0091	0.0052	0.063	115.1
0.0052	0.0202	0.0052	0.012	115
-0.0008	0.039	0.0082	0.0202	115.1
0.0007	0.0097	0.0075	0.0157	115
-0.0023	0.0285	0.006	-0.0218	115
-0.0008	0.0435	0.0022	-0.0015	115
0.0015	0.054	0.0022	0.0382	115
-0.0008	0.0577	0.003	0.0255	115
0.0015	-0.003	0.003	0.048	115
0.003	-0.0668	0.0045	0.0607	114.9
0.003	-0.0308	0.0082	-0.0135	114.9
0.0022	0.0277	0.0082	-0.0256	115.1
0.0007	0.009	0.0045	-0.0195	115
-0.0008	-0.0233	0.0015	-0.0218	115
0.0007	-0.0675	-0.0008	-0.0046	115
-0.0015	-0.0706	-0.003	-0.0338	114.7
-0.0053	-0.0195	-0.0083	-0.0593	115
-0.006	0.018	-0.0113	-0.1013	114.8
-0.0053	0.0277	-0.0143	-0.1088	114.8
-0.0083	0.0247	-0.0135	-0.03	114.9
-0.0068	0.0105	-0.0083	0.0292	114.6
-0.0068	-0.0135	-0.0068	0.0975	114.8
-0.0046	-0.0203	-0.0068	0.1312	114.9
-0.0008	-0.0015	-0.003	0.0352	114.8
0.0022	-0.0083	-0.0008	0.003	114.8
0.0037	-0.0278	0.0007	0.0315	114.8
0.0015	0.003	0.003	0.0082	114.8
0.0007	0.015	0.003	0.009	114.8
-0.003	0.0135	-0.0008	-0.033	115
-0.0046	-0.0053	-0.0046	-0.0443	114.7
-0.0015	-0.0068	-0.0053	-0.0218	114.7
-0.003	0.0165	-0.0068	0.0045	114.8
-0.0023	0.0142	-0.0075	0.0892	114.7
-0.0008	0.0225	-0.006	0.0547	115
-0.0023	0.0157	-0.0053	-0.0436	114.7
-0.0038	-0.0068	-0.0068	-0.1058	114.7
-0.0038	-0.0383	-0.012	-0.1021	114.8
-0.0008	-0.015	-0.021	-0.0188	114.8
0.0007	0.0165	-0.021	0.033	114.7
-0.0023	0.0052	-0.0173	0.0157	114.6
-0.003	-0.0173	-0.0128	-0.0473	114.8
-0.003	-0.0495	-0.0075	-0.0278	114.7
-0.003	-0.012	-0.0008	0.0427	114.9
-0.0023	0.0075	0.0067	0.0607	114.7
0	0.0007	0.012	0.0577	114.8
0.003	0.033	0.0172	0.0217	114.9
0.0007	0.03	0.0142	0.0127	114.6
0.0015	0.063	0.012	0.0277	114.9
0.0015	0.1207	0.0067	0.0037	114.7
-0.0015	0.1027	0.0015	-0.0405	114.7
-0.0023	0.0825	0.0007	-0.042	114.7
-0.003	0.057	-0.0046	-0.0353	114.8
-0.0083	-0.015	-0.012	-0.06	114.7
-0.0075	-0.1215	-0.0173	-0.0128	114.7
-0.0068	-0.1763	-0.0135	0.021	114.7
-0.0053	-0.0983	-0.0053	-0.0308	114.7
0.003	-0.0668	-0.0008	-0.0413	114.8
0.0045	-0.0765	0.003	-0.0188	114.7
0.0052	-0.057	0.0075	0.012	114.7
0.0105	-0.0608	0.012	0.069	114.8
0.0082	0.027	0.012	0.0277	114.7
0.0067	0.0607	0.0075	-0.0293	114.8
0.003	0.0202	0.0045	0.018	114.7
0.0015	0.006	-0.0038	0.033	114.7
0	-0.0323	-0.0091	0.0195	114.7
0.0022	-0.0308	-0.0105	-0.0128	114.6
0.0037	-0.021	-0.0083	-0.0248	114.7
0.0075	-0.0091	-0.0023	0.0277	114.8
0.009	0.0105	0.003	0.048	114.7
0.009	0.0442	0.0052	0.048	114.7
0.012	0.0495	0.0067	0.039	114.7
0.012	0.0232	0.003	0.0105	114.6
0.0105	0.0105	-0.0046	0.006	114.6
0.0082	0.0345	-0.0068	0.0037	114.6
0.0045	0.0465	-0.0098	-0.0518	114.7
0.0015	0.03	-0.0083	-0.0818	114.9
-0.0015	0.0277	-0.0015	-0.0555	114.6
-0.0008	0.0157	0.0052	-0.0165	114.7
0.003	-0.0308	0.0157	0.0675	114.7
0.0052	-0.0638	0.018	0.1102	114.7
0.0052	-0.0315	0.018	0.0682	114.6
0.0052	-0.0383	0.0127	0.0187	114.7
0.0045	0.0045	0.009	-0.054	114.5
0.003	0.0607	0.009	-0.0458	114.7
0.0007	0.0217	0.0075	0.0217	114.7
0.0015	0.0097	0.006	0.0262	114.7
0.0007	0.0307	0.003	0.0285	114.7
-0.003	0.0607	-0.0083	-0.0698	114.6
-0.0068	0.075	-0.0181	-0.231	114.4
-0.0083	0.0607	-0.0173	-0.1823	114.6
-0.0068	0.0082	-0.0068	-0.0593	114.5
-0.0015	-0.0518	0.0082	-0.024	114.5
0.003	-0.0728	0.0187	0.0645	114.7
0.0022	-0.0608	0.0247	0.078	114.6
0.0015	-0.048	0.0217	0.0112	114.5
0.0045	-0.0473	0.0187	0.0255	114.7
0.0052	-0.0398	0.0232	0.0195	114.4
0.0045	-0.0256	0.0202	0.0232	114.6
0.0022	-0.0053	0.0157	0.057	114.7
0	0.0015	0.0112	0.0382	114.6
0.0007	-0.0203	0.0075	0.0292	114.6
0.0007	-0.0128	0.0082	0.0247	114.4
0	0.0315	0.0082	-0.0015	114.6
-0.0008	0.0487	0.0105	0.0382	114.5
-0.0046	0.0592	0.0052	0.0495	114.5
-0.0091	0.0712	0.0007	-0.0203	114.5
-0.0105	0.0652	-0.0015	-0.0143	114.4
-0.0105	0.03	-0.0068	0.0232	114.4
-0.0083	-0.0075	-0.0053	0.078	114.4
-0.0068	-0.0518	-0.006	0.0742	114.5
-0.0046	-0.0608	-0.0083	-0.0128	114.3
-0.003	-0.0353	-0.0053	-0.0233	114.5
-0.0068	-0.0436	-0.0038	-0.0518	114.5
-0.012	-0.0525	-0.0046	-0.0405	114.4
-0.0105	-0.0443	-0.0053	0.0202	114.5
-0.0083	-0.0053	-0.0068	0.072	114.4
-0.0068	-0.0015	-0.0068	0.0712	114.6
-0.0038	0.0015	-0.0053	-0.0353	114.2
-0.0008	0.0187	-0.006	-0.0308	114.4
0.0007	0.0232	-0.0053	-0.0428	114.5
0	0.0427	-0.006	-0.0765	114.3
-0.0008	0.0495	-0.0091	-0.0788	114.4
-0.0023	0.0495	-0.0075	-0.123	114.3
-0.0023	0.0277	-0.0098	-0.0893	114.4
-0.0008	0.003	-0.0113	-0.033	114.4
0.0007	-0.0383	-0.012	0.0427	114.3
0.0015	-0.0608	-0.012	0.084	114.4
0.0045	-0.0346	-0.0113	0.1297	114.3
0.0052	-0.0368	-0.0083	0.1687	114.4
0.0052	-0.06	-0.0053	0.0585	114.3
0.0007	-0.0585	-0.0068	-0.027	114.2
-0.0038	-0.0375	-0.012	-0.0893	114.3
-0.0015	0.0127	-0.0128	-0.1335	114.3
-0.0046	0.009	-0.0165	-0.0473	114.4
-0.0053	-0.024	-0.0181	-0.027	114.3
-0.0046	0.0307	-0.0158	-0.0368	114.4
-0.0068	0.033	-0.012	0	114.3
-0.0038	0.024	-0.0015	-0.0293	114.5
0	0.0525	0.0022	-0.003	114.4
0.0037	0.0397	-0.0015	0.0352	114.2
0.003	0.0412	-0.0046	0.0127	114.4
0.0015	0.0315	-0.006	-0.003	114.1
0.0007	0.0367	-0.0053	-0.0105	114.4
-0.0015	0.0915	-0.0046	-0.0143	114.3
0.0015	0.1582	-0.0038	-0.015	114.3
0.0015	0.1515	-0.003	-0.0383	114.4
-0.0008	0.048	-0.0008	-0.0668	114.3
0.0045	-0.0375	-0.0008	-0.0361	114.3
0.009	-0.063	-0.0046	0.0967	114.6
0.0097	-0.1043	-0.0046	0.1777	114.3
0.009	-0.1455	-0.003	0.0675	114.4
0.006	-0.1515	-0.0053	0.036	114.4
0.0037	-0.1238	-0.0015	0.0907	114.7
0.0022	-0.1088	0.0015	0.0345	114.2
0.0015	-0.0803	0.003	-0.0346	114.4
-0.0015	-0.024	0.0097	-0.0938	114.2
-0.0046	-0.003	0.0135	-0.0691	114.4
-0.0046	0.0105	0.0165	-0.0105	114.4
-0.003	0.0247	0.0195	-0.0165	114.3
0.003	0.048	0.018	-0.006	114.5
0.0067	0.0442	0.0157	-0.0068	114.4
0.0037	0.0315	0.0112	-0.0113	114.3
0.0045	0.0292	0.003	-0.0105	114.4
0.0015	0.0555	-0.0023	-0.0315	114.3
-0.0015	0.0787	-0.0053	-0.0368	114.3
-0.003	0.042	-0.0083	-0.039	114.4
-0.003	0.0052	-0.0053	-0.042	114.5
-0.0053	-0.0503	-0.0008	-0.0488	114.3
-0.0053	-0.1013	0.0045	-0.0368	114.3
-0.0015	-0.1103	0.009	0.099	114.6
-0.0008	-0.0713	0.012	0.2085	114.4
0	-0.033	0.012	0.123	114.4
0.0007	-0.0143	0.0105	0.0187	114.3
0.0015	0.0052	0.009	-0.0593	114.4
0.0022	0.0382	0.009	-0.0683	114.4
-0.0008	0.0832	0.0067	-0.0675	114.3
0.0015	0.0802	0.003	-0.0856	114.4
0.0075	0.078	0	0.0082	114.4
0.0082	0.0975	-0.0008	-0.0015	114.4
0.0052	0.12	-0.0046	-0.0098	114.4
0.0015	0.1207	-0.0053	-0.0143	114.2
0.0007	0.054	-0.0083	-0.0721	114.4
0.003	-0.0525	-0.0098	0.0007	114.3
0.0015	-0.1245	-0.006	0.0067	114.4
0	-0.1215	0.0015	0.0337	114.4
-0.003	-0.0683	0.0082	0.0817	114.4
-0.0046	-0.0323	0.015	0.0352	114.4
-0.003	-0.0218	0.0195	0.0705	114.4
-0.0038	0.0165	0.018	0.0615	114.5
-0.0023	0.006	0.0127	0.0015	114.3
-0.0008	-0.0428	0.0082	0.0427	114.3
0.0015	-0.03	0.0105	0.033	114.4
0.003	0.009	0.0142	-0.006	114.3
0.0007	0.0045	0.0097	-0.0053	114.5
0.0007	-0.0203	0.006	-0.0248	114.4
0.0007	0.0015	0.0067	-0.057	114.5
0.0015	0.03	0.0052	-0.0548	114.4
0.0022	0.027	0.0015	0.0105	114.3
0.0045	0.0165	-0.0038	-0.0046	114.4
0.0022	0.039	-0.0075	-0.0315	114.3
0.0007	0.06	-0.0165	0.0202	114.4
-0.0008	0.054	-0.0233	0.042	114.3
-0.0015	0.0307	-0.0203	0.0495	114.5
-0.0015	0.009	-0.0181	0.0382	114.4
-0.003	-0.0256	-0.015	-0.0008	114.2
-0.0008	-0.063	-0.012	-0.0346	114.3
-0.003	-0.042	-0.0098	-0.0173	114.3
-0.0023	-0.0578	-0.012	-0.027	114.4
-0.0015	-0.0533	-0.006	-0.024	114.5
0.0015	-0.0008	0.0075	0.0075	114.4
0.0052	-0.027	0.0142	-0.0188	114.5
0.0015	-0.0203	0.018	-0.0053	114.3
-0.0008	-0.0038	0.024	-0.033	114.5
-0.0046	-0.0188	0.0225	-0.042	114.3
-0.0068	-0.0075	0.018	-0.0218	114.3
-0.0083	0.0255	0.0157	-0.039	114.5
-0.0053	0.0345	0.012	-0.0346	114.4
-0.003	0.0187	0.006	-0.0825	114.3
-0.0015	0.0157	0.0015	-0.099	114.4
0.0015	0.018	-0.0046	-0.0728	114.4
-0.0008	-0.006	-0.0098	0.0382	114.3
0.0045	-0.1006	-0.012	0.2842	114.7
0.0007	-0.0863	-0.0158	0.339	114.4
-0.0023	0.0037	-0.0128	0.132	114.2
-0.0008	0.0712	-0.0128	-0.0428	114.3
-0.003	0.0802	-0.0181	-0.1763	114.2
0.0022	0.0232	-0.0203	-0.207	114.4
0.006	0.0157	-0.0248	-0.0473	114.4
0.0052	-0.006	-0.0278	-0.0128	114.3
0.0045	0.024	-0.0323	-0.0383	114.6
0.0022	0.0255	-0.0293	0.003	114.2
0.0022	-0.0008	-0.0256	-0.0128	114.2
0.0022	-0.0158	-0.0218	-0.0008	114.2
0.0022	-0.027	-0.0143	0.003	114.3
0.003	0.0352	-0.006	-0.0008	114.3
0.0022	0.0532	0.0015	-0.015	114.4
0.0022	0.0352	0.0052	-0.0533	114.3
0.0037	-0.0518	0.009	-0.0443	114.3
0.0097	-0.114	0.0135	0.0502	114.5
0.0157	-0.0923	0.0142	0.102	114.2
0.012	-0.0428	0.0157	0.0697	114.4
0.0067	0.006	0.015	0.0622	114.4
0.0052	0.0037	0.0135	-0.0623	114.3
0	0.018	0.0082	-0.1088	114.4
-0.0015	0.0457	0.0045	-0.0353	114.2
0	0.0667	0.0067	0.0225	114.2
-0.0008	0.0337	0.0082	0.1162	114.3
-0.003	0.006	0.0015	0.0937	114.2
-0.0023	0.0285	-0.0038	-0.0105	114.1
-0.0015	-0.0083	-0.0068	-0.0578	114.3
-0.003	-0.0353	-0.0053	-0.0158	114.3
-0.0023	0.0112	-0.0023	-0.021	114.2
-0.0008	0.0727	0.0015	0.0172	114.3
0	0.0922	0.003	0.0502	114.2
-0.0008	0.1065	0.006	-0.0135	114.2
0.0007	0.0825	0.009	-0.0091	114.3
-0.0008	0.0082	0.0067	-0.0143	114
-0.0015	-0.06	0.0067	0.015	114.3
0	-0.1553	0.009	0.018	114.3
-0.0015	-0.168	0.009	0	114.1
-0.0023	-0.0803	0.0097	-0.0195	114.3
-0.0015	-0.027	0.0135	-0.0645	114.2
-0.0008	-0.0218	0.0165	-0.0218	114.2
-0.0008	-0.0233	0.0187	0.024	114.1
-0.003	-0.0256	0.018	0	114.1
-0.0046	0	0.015	-0.0375	114.2
-0.0046	0.0052	0.012	0.0082	114.3
-0.0046	0.0195	0.0082	0.0015	114.3
-0.0046	0.027	0.0045	0.0322	114.2
-0.003	0.0165	-0.0008	0.0585	114.4
-0.0053	0.045	-0.0053	-0.0503	114.1
-0.0091	0.0337	-0.0135	-0.0495	114.4
-0.0083	0.0255	-0.015	-0.0503	114.1
-0.0046	-0.0015	-0.0128	0.0495	114.1
-0.0015	0.0067	-0.012	0.1335	114.2
0.0015	0.0345	-0.0091	0.0315	114.1
0.0037	0.0015	-0.012	0.0015	114.1
-0.0008	0.006	-0.0091	-0.039	114.1
-0.0023	0.0097	-0.0023	-0.0623	114.1
0	0.0105	0.0015	-0.012	114.1
0	0.0225	0.0067	0.0052	114.1
0.0022	0.027	0.0082	0.0052	114.1
0.003	-0.0015	0.0015	0.0202	114.1
0.0015	-0.0578	-0.0075	0.0607	114.1
0.0052	-0.0706	-0.0098	0.0915	114
0.0082	-0.0585	-0.0091	0.06	114
0.0052	-0.012	-0.0075	-0.054	114.1
0.0015	0.0555	-0.003	-0.1613	114
0.0015	0.0367	-0.0015	-0.1006	114.2
-0.0023	-0.0038	0.0045	-0.0053	114.1
0	-0.0068	0.0082	0.003	114.1
0.0015	0.0045	0.012	0.0307	114.1
0	0.0255	0.0127	-0.0038	114
0.0007	0.036	0.009	-0.0346	114
0.003	0.0307	0.0075	-0.0248	114.1
0.0045	-0.015	0.003	-0.0308	114.1
0.003	-0.0428	0.0015	0.0112	114
0	-0.0353	-0.0015	0.0352	114.1
0.0007	-0.0248	-0.0053	0.06	113.9
-0.0008	-0.0181	-0.0046	0.0592	113.9
-0.0015	-0.033	-0.0053	0.0247	114.1
-0.003	-0.0285	-0.0038	-0.0053	113.8
-0.006	-0.0098	-0.0046	-0.0383	114
-0.0091	-0.0218	-0.0083	-0.0248	113.8
-0.0105	-0.0383	-0.0083	-0.0181	114
-0.0083	-0.0158	-0.0075	0.0052	114
-0.0098	0.042	-0.0083	0.0637	113.9
-0.0068	0.0727	-0.0091	-0.0083	113.9
-0.003	0.0592	-0.0053	-0.0863	114.1
-0.0046	0.0105	-0.0068	-0.0706	113.8
-0.003	-0.0128	-0.0053	-0.048	114
-0.003	0.009	-0.0023	0.0172	114.1
0	0.027	-0.0023	0.033	114.1
0.003	-0.0195	0	0.0435	114.1
0.0097	-0.0945	0.003	0.024	114.2
0.0157	-0.0803	0.0052	-0.0503	113.8
0.0157	-0.0278	0.0075	-0.0023	114.1
0.0165	0.0337	0.0067	0.0645	113.9
0.018	0.0187	0.0037	0.054	113.8
0.0157	0.0045	-0.0008	0.033	114.1
0.009	0.039	0.0007	0.0277	114
0.0075	0.0277	0.0015	-0.0105	113.9
0.0015	0.0337	-0.0008	-0.0503	114.1
-0.003	0.0202	-0.0008	-0.042	113.8
-0.0008	0.0142	0.0037	-0.0105	113.9
-0.0008	-0.0023	0.0007	0.0037	114.2
0.0007	0.0045	-0.0023	-0.0053	114
-0.0015	0.009	-0.0008	-0.003	113.9
0.0007	-0.0113	-0.0008	0.0007	113.9
0.0022	-0.0008	0.0045	0.021	114
0.0007	-0.003	0.009	0.0405	114
0.0007	0.0277	0.009	0.018	114
0.0007	0.0562	0.0082	-0.0428	114.1
0.0022	0.0412	0.0045	-0.027	114
0.0037	-0.0105	0.0067	0.0652	114
0.006	-0.0593	0.0075	0.0517	113.9
0.0045	-0.0548	0.0067	0.0262	114
0	-0.0203	0.0052	0.0285	113.8
0.0007	-0.0143	0.0052	-0.0105	113.9
-0.0046	-0.027	0.0015	-0.0075	113.8
-0.0053	-0.0083	-0.0038	-0.03	113.8
-0.003	0.0397	-0.0091	-0.0765	113.9
-0.0015	0.0825	-0.0128	-0.0825	113.8
-0.0015	0.0682	-0.012	-0.0788	113.8
-0.003	0.0157	-0.0113	-0.0068	113.8
-0.0046	-0.0428	-0.0091	0.0787	113.8
-0.003	-0.0608	-0.0038	0.027	113.8
-0.0008	-0.024	0.0007	-0.0548	113.8
-0.0008	0.0292	0.0007	-0.048	113.8
-0.003	0.0427	-0.0046	-0.0383	113.8
-0.0068	-0.0015	-0.012	0.0082	113.9
-0.0046	-0.0743	-0.0218	0.0765	113.7
-0.0038	-0.0706	-0.0263	0.0832	113.8
-0.0038	-0.033	-0.024	0.0352	113.8
-0.0015	-0.0323	-0.0158	-0.0248	113.7
-0.0053	0.0097	-0.0083	-0.057	113.9
-0.0098	0.0232	0.0007	-0.078	113.8
-0.0068	-0.0068	0.0127	-0.0165	113.7
-0.0015	-0.0533	0.0202	0.0922	114
0.0007	-0.063	0.027	0.1095	113.8
0.0022	-0.0225	0.0345	0.0592	113.7
0.0045	-0.0015	0.0345	0.0277	113.8
0.0015	0.033	0.0292	0.0457	113.9
-0.0015	0.069	0.024	0.0435	113.7
-0.0023	0.057	0.0172	0.009	113.8
-0.0038	0.0502	0.0105	-0.0668	113.8
-0.0008	0.0615	0.0015	-0.1118	113.8
-0.0015	0.0532	-0.003	-0.027	113.7
0	0.06	-0.003	0.0037	113.6
0.0022	0.0502	-0.0075	-0.0256	113.8
-0.0015	0.0195	-0.015	-0.0503	113.7
-0.0008	-0.0398	-0.0195	-0.0743	113.6
0.0045	-0.0668	-0.0188	0.0532	113.8
0.0045	-0.003	-0.0218	0.1012	113.7
0	0.0007	-0.03	-0.0353	113.6
0.0007	-0.0405	-0.0315	-0.0256	113.7
0.006	-0.0383	-0.021	0.03	113.7
0.0067	-0.045	-0.0091	0.0135	113.8
0.0067	-0.0608	0	0.0637	113.7
0.0045	-0.0511	0.0067	0.0367	113.6
0.0015	-0.0263	0.009	-0.0203	113.7
0.0022	0.0067	0.0105	-0.0083	113.8
0.0022	0.024	0.0105	-0.0308	113.6
0.003	0	0.009	-0.0195	113.7
0	-0.0083	0.0052	-0.0091	113.7
-0.0023	0.0195	0.0052	-0.0361	113.6
-0.0008	0.0397	0.0045	-0.0495	113.6
-0.0046	0.0495	0.0007	-0.0675	113.7
-0.006	0.0352	-0.0008	-0.0735	113.4
-0.006	0.0097	-0.0068	-0.0511	113.6
-0.006	-0.0068	-0.0105	0.0285	113.5
-0.0015	-0.0105	-0.0075	0.0952	113.8
0.0045	-0.012	-0.003	0.0697	113.7
0.009	-0.024	-0.0075	0.027	113.6
0.0052	-0.03	-0.0105	-0.0023	113.7
0.0022	-0.0293	-0.0038	0.0097	113.8
0.0007	-0.0263	-0.0008	0.0352	113.5
-0.0008	-0.0091	0.006	0.012	113.8
0.0007	0.0255	0.012	0.0232	113.7
0.0022	0.0502	0.015	0.0075	113.5
0.0007	0.0525	0.018	-0.0225	113.6
-0.0015	0.045	0.0195	-0.0091	113.6
-0.003	0.0307	0.0202	-0.0218	113.5
-0.0038	0.009	0.015	-0.0038	113.6
-0.0023	0.0082	0.009	-0.0068	113.5
0.0007	-0.0158	0.0052	-0.0675	113.6
-0.003	-0.0533	0.0015	-0.0915	113.6
-0.0015	-0.0278	0.0007	-0.048	113.5
-0.0023	0.0022	-0.0015	0.0292	113.5
-0.0008	-0.012	-0.0023	0.0742	113.4
0.0015	-0.0091	-0.0015	0.069	113.5
0.0007	-0.0181	-0.003	0.0225	113.5
-0.0015	-0.0495	-0.0008	-0.0046	113.5
-0.003	-0.0436	0.003	-0.0263	113.5
-0.0046	-0.027	0.0045	-0.0735	113.4
-0.003	-0.045	0.0052	-0.0128	113.5
0.0007	-0.0878	0.0067	0.0907	113.3
0.0015	-0.042	0.0052	0.0705	113.4
0.0015	0.0232	0.003	-0.0293	113.4
0.0015	0.0495	0.0015	-0.0885	113.4
0.0045	0.072	0.0015	-0.0548	113.5
0.0045	0.084	0.0015	-0.0691	113.4
-0.0008	0.0892	-0.003	-0.0691	113.5
-0.0008	0.024	-0.006	-0.0165	113.3
0.0045	-0.0278	-0.0105	0.0157	113.4
0.0045	-0.0091	-0.0091	0.09	113.4
0.0015	-0.0075	-0.006	0.084	113.5
0.0007	-0.0135	-0.0068	0.069	113.4
0	-0.0068	-0.0053	0.0592	113.4
0.003	-0.003	-0.003	0.0195	113.4
0.0045	-0.0113	-0.0008	0.0397	113.1
0.0045	-0.0158	0.003	0.0345	113.4
0.006	0.0255	0.0045	0.0292	113.5
0.0052	0.048	0.0052	0.012	113.3
0.0037	0.069	0.0075	-0.0315	113.6
-0.0015	0.0547	-0.0015	-0.0555	113.2
-0.0023	-0.024	-0.015	-0.0638	113.3
-0.003	-0.0593	-0.0173	-0.039	113.4
-0.0083	-0.0413	-0.0165	-0.0195	113.2
-0.0075	-0.0195	-0.0135	0.003	113.3
-0.0023	-0.0091	-0.0053	0.0067	113.2
-0.0038	-0.027	0.003	-0.0278	113.4
-0.0038	-0.0645	0.012	-0.0158	113.3
-0.0015	-0.0368	0.0157	-0.0113	113.4
0.0015	0.012	0.0195	-0.042	113.2
0.003	0.0105	0.0195	-0.0443	113.4
0.0022	0.0142	0.0165	-0.0218	113.4
0.003	0.0255	0.012	0.039	113.2
0	0.0105	0.0082	0.0532	113.4
-0.0015	0.0037	0.0052	-0.003	113.3
-0.0008	0.018	0.0022	0.024	113.3
0.0007	0.0255	-0.0038	0.0652	113.4
0.0037	0.0157	-0.0083	0.0622	113.2
0.0067	-0.0091	-0.0113	0.0645	113.1
0.0052	-0.0158	-0.0135	-0.0135	113.3
0.0015	0.0007	-0.0105	-0.1103	113.2
0.0015	0.033	-0.0091	-0.0915	113
-0.003	0.0577	-0.0105	-0.0181	113.2
-0.0075	0.0592	-0.0113	-0.0038	113.2
-0.0083	0.0217	-0.0091	0.0217	113.2
-0.0053	-0.045	-0.0053	0.105	113.2
0.0015	-0.0825	-0.0046	0.1537	113
0.0075	-0.105	-0.0053	0.1005	113.2
0.0082	-0.0675	-0.0083	-0.0578	112.9
0.0022	-0.0256	-0.0143	-0.2123	112.9
0.0007	-0.0015	-0.0158	-0.1523	113
0.0007	0.036	-0.0128	-0.0758	113.1
0.0007	0.0465	-0.0105	-0.0923	113
0.0037	0.0315	-0.0053	-0.003	113.2
0.0045	0.0015	-0.0008	0.0502	112.9
0.0052	-0.003	0.0022	0.0562	113.2
0.0052	-0.0368	0.0067	0.0165	113
0.0067	-0.0503	0.0067	0.0337	113.1
0.0075	-0.0248	0.0097	0.084	113.1
0.0052	-0.0398	0.0127	0.0315	113
0.006	-0.0143	0.015	0.0082	112.9
0.0067	0.009	0.0172	-0.0181	113
0.0052	0.0015	0.0157	0.0082	113
0.0045	-0.0053	0.0112	0.0375	112.9
0.0015	0.0007	0.0052	0.0337	113
-0.0023	0.0195	0.0015	0.0405	112.9
-0.0053	0.0472	0.0007	0.0525	113
-0.0046	0.0772	0.0045	0.0675	113.1
-0.0015	0.0517	0.006	-0.0256	112.9
-0.0015	0.039	0.0045	-0.0743	113
-0.0008	0.03	0.003	-0.0691	113.1
0	-0.0165	0.0015	-0.0533	112.7
0.003	-0.054	-0.0008	0.0127	113
0.003	-0.0353	-0.0015	-0.003	112.8
0.0007	0.0225	-0.003	-0.0218	112.7
-0.0046	0.042	-0.0068	-0.039	112.9
-0.0053	0.0202	-0.0068	-0.024	112.9
-0.0046	-0.03	-0.0038	0.0532	112.8
0	-0.0368	-0.0023	0.0652	112.9
-0.0008	-0.0278	0.0007	0.0427	112.7
-0.003	-0.0173	0	0.0352	112.7
-0.0015	-0.0098	0.0037	0.0217	113
-0.0038	0.012	0.009	-0.0008	112.7
-0.0038	0.054	0.0127	-0.0315	112.8
-0.0046	0.0277	0.009	-0.0495	112.9
-0.0038	-0.0181	0.0022	-0.0585	112.6
-0.0053	-0.0488	-0.0053	-0.0383	112.7
-0.003	-0.0668	-0.0143	0.0067	112.7
0	-0.0443	-0.0225	0.0135	112.8
-0.0008	0.0067	-0.0218	0.0097	112.8
-0.0008	-0.0083	-0.0143	0.0127	112.7
-0.003	-0.0233	-0.0091	-0.0068	112.7
-0.0046	0.0007	-0.0008	-0.0128	112.6
-0.003	-0.0038	0.0082	-0.0098	112.9
-0.0023	-0.0038	0.0127	-0.012	112.5
0.0015	-0.003	0.0165	-0.0015	112.7
0.0015	0.0067	0.0165	-0.0046	112.6
0.0007	0.0195	0.0157	-0.0203	112.7
0.0045	0.0765	0.0157	-0.027	112.6
0.0045	0.129	0.0142	-0.015	112.6
0.0022	0.099	0.0105	0.0157	112.6
0.0015	0.0217	0.0067	0.0465	112.7
0	-0.0353	0.0015	0.0592	112.6
-0.0008	-0.0053	0.0015	0.0397	112.7
-0.0015	0.0127	0.0007	0.0015	112.6
-0.0008	-0.003	-0.0008	-0.0181	112.5
-0.006	-0.0615	-0.0008	-0.0263	112.5
-0.0083	-0.1335	0	-0.0315	112.6
-0.0068	-0.0533	0.0007	-0.0278	112.6
-0.0068	0.021	-0.0008	-0.003	112.6
-0.0075	0.012	-0.0015	-0.0015	112.6
-0.0068	0.039	-0.0038	-0.0465	112.3
-0.0053	0.033	-0.0053	-0.054	112.7
-0.0083	0.0157	-0.0053	-0.0218	112.5
-0.0098	0.0015	-0.006	-0.0203	112.6
-0.006	-0.0083	-0.0046	-0.0105	112.6
-0.0023	-0.0233	-0.0053	0.0352	112.7
-0.0008	-0.0413	-0.0053	0.102	112.7
0.0015	-0.0218	-0.0068	0.1372	112.5
0.0052	-0.006	-0.006	0.057	112.4
0.0052	-0.0128	-0.0075	-0.0608	112.6
0.0037	0.0142	-0.012	-0.1125	112.5
0.003	0.081	-0.0128	-0.0691	112.5
0.0007	0.0675	-0.0105	-0.0098	112.4
0.0007	0.0142	-0.0068	0.012	112.5
0.003	-0.045	-0.006	0.0157	112.4
0.0037	-0.0908	-0.0053	-0.0361	112.5
0.0037	-0.0728	-0.0053	-0.0181	112.6
0.003	-0.027	-0.0075	0.0277	112.4
0.0052	0.0045	-0.0105	0.0465	112.5
0.0052	0.0082	-0.0113	0.0952	112.5
0.0045	0.0082	-0.0091	0.0157	112.4
0.0052	-0.0008	-0.0091	-0.027	112.5
0.003	0.0045	-0.0068	-0.0128	112.4
0.0015	0.0202	-0.0008	-0.0615	112.5
0.003	0.0165	0.003	0.0142	112.5
0.0045	-0.0098	0.006	0.072	112.5
0.0052	-0.03	0.0052	0.0262	112.5
0.0045	-0.0293	0.0082	-0.0413	112.5
0.0045	-0.0218	0.009	-0.0706	112.4
0.0067	-0.0046	0.0052	-0.0503	112.5
0.006	0.009	0.0037	-0.0383	112.4
0.0045	0.021	0.0022	-0.0068	112.5
0.003	0.0097	0.0007	0.0315	112.5
0.003	-0.0083	0	0.069	112.6
0.0052	0.0105	0.0015	0.0892	112.5
0.0067	0.021	0.0015	0.0855	112.6
0.0067	0.0262	0.0045	0.0787	112.5
0.0067	0.0615	0.0052	0.0172	112.4
0.006	0.0592	0.0067	-0.0871	112.4
0.0082	0.0112	0.0052	-0.0495	112.4
0.009	-0.0518	0.0015	0.0697	112.6
0.0037	-0.0765	0.0007	0.0532	112.4
-0.003	-0.0143	0.0015	0.0045	112.4
-0.003	0.0157	0.0007	-0.0578	112.5
-0.0023	0.0367	0.0015	-0.1043	112.5
-0.0053	0.027	0.0082	-0.0608	112.5
-0.0083	-0.0248	0.0135	-0.0623	112.4
-0.006	-0.0195	0.0157	-0.012	112.4
-0.0023	-0.0195	0.0142	0.0532	112.2
0.0007	0.0007	0.0127	0.0052	112.4
-0.0015	0.009	0.0112	-0.048	112.4
-0.0038	0.0127	0.0067	-0.0615	112.3
-0.0015	0.0127	0	-0.0443	112.4
-0.0023	0.0105	-0.0023	-0.0068	112.1
-0.0008	0.0495	-0.0015	0.0517	112.3
0.0007	0.039	0.0037	0.0832	112.4
-0.0008	0.0007	0.003	0.0697	112.2
0.0007	-0.0038	0.003	0.012	112.4
0.0015	0.0007	0.0067	-0.0203	112.3
0.003	-0.0075	0.0052	-0.0346	112.2
0.0045	-0.0285	0.0045	-0.0675	112.2
0.0052	-0.0495	0.0037	-0.039	112.3
0.003	-0.0413	0.0045	0.0082	112.1
0.0015	-0.0225	-0.0008	0.0172	112.3
-0.0008	-0.0428	-0.003	0.0052	112.4
-0.0015	-0.0278	-0.0023	0.0045	112.2
-0.003	-0.0053	-0.0053	0.012	112.3
-0.0015	-0.0428	-0.0068	0.0127	112
-0.0015	-0.027	-0.0083	0.0007	112.1
-0.003	0.009	-0.0075	-0.021	112.3
-0.0038	0.0292	-0.0068	-0.0353	112
-0.0046	0.0345	-0.0068	-0.0323	112.1
-0.0038	0.0165	-0.003	0.006	112.2
-0.0038	0.0187	-0.0015	0.024	112
-0.0068	0.0345	-0.0038	0.0465	112.1
-0.0091	0.0292	-0.0046	0.0742	112.1
-0.006	-0.024	-0.0015	0.0607	112.1
-0.0023	-0.0218	-0.0008	0.0277	112.1
-0.0015	0.0037	-0.0053	-0.003	112.1
-0.0083	-0.0023	-0.0091	-0.024	112
-0.0098	-0.0023	-0.0083	-0.0495	112.2
-0.0091	-0.0181	-0.0046	-0.0346	112.1
-0.0128	-0.0113	-0.0015	0.006	112.1
-0.0091	0.0007	-0.0008	0.0307	112.1
-0.0053	0.0307	-0.0015	0.036	112.1
-0.0046	0.0637	-0.0023	0.0225	112
-0.0023	0.0502	-0.003	-0.0143	112.2
0.0007	0.0105	0	-0.057	112
0.003	-0.045	-0.003	-0.0405	112
0.0045	-0.03	-0.0053	0.0015	112.2
0.0052	-0.0181	-0.0015	0.003	112.1
0.006	-0.0353	0	0.0022	112.1
0.0045	-0.0128	-0.0008	0.0082	112
0.003	-0.006	-0.0053	-0.0015	112
0.0015	0.0105	-0.0068	-0.0278	112.1
0.0007	0.0082	-0.0128	-0.0105	112
0.0015	-0.0083	-0.0158	0.0435	112.1
-0.0008	-0.0128	-0.012	0.0352	112
0.0007	-0.012	-0.0105	0.0225	111.9
-0.0008	0	-0.0068	0.0142	112.1
0.0007	0.0217	-0.0038	-0.0368	112.1
0.0015	0.0637	-0.003	-0.066	111.9
-0.0008	0.0652	-0.0008	-0.0383	112.1
-0.0015	0.0187	0.003	-0.0203	111.9
0.0007	-0.045	0.0052	-0.0465	111.8
0.0045	-0.0608	0.0082	-0.039	112.1
0.006	-0.0578	0.009	-0.015	111.9
0.0037	-0.0465	0.0052	0.0307	111.9
0.0022	0.003	0.0015	0.0922	112
0	0.027	0.0015	0.0817	112.1
-0.0008	0.048	0.0022	-0.0143	111.9
-0.0015	0.0457	0.0067	-0.0615	112
0.0015	0.0225	0.0082	0.0082	111.9
0.0022	-0.0075	0.0007	0.0345	112
0.0007	-0.027	-0.0023	0.0127	112
0.0022	0.0127	0.0007	-0.045	111.7
0.0007	0.0045	0.0007	-0.0495	112
0.0007	0.0052	0	0.0217	112
0.0007	0.024	0.003	0.0675	112
0.0007	-0.0248	0.0097	0.1095	112
0.003	-0.0443	0.0127	0.0532	111.8
0.003	-0.0098	0.0165	-0.0503	111.9
0.0015	0.012	0.018	-0.039	111.8
0.003	-0.0188	0.0157	0.0127	111.8
0.0045	-0.0361	0.0195	-0.0135	111.8
0.0007	-0.0256	0.0195	0.0112	111.9
-0.0015	0.0052	0.0202	0.0292	111.9
-0.0023	0.0412	0.0142	-0.0113	111.9
-0.0068	0.0255	0.0067	-0.0083	111.9
-0.0068	0.0202	0.003	-0.0308	111.8
-0.003	0.0285	0.0007	-0.027	111.8
-0.0038	0.0345	-0.0015	-0.0181	111.8
-0.003	-0.0068	-0.003	-0.0075	111.8
-0.0023	-0.105	-0.003	0.006	111.8
-0.0023	-0.0878	-0.003	-0.0248	111.7
0.0007	-0.0218	-0.0015	-0.0293	111.7
0.0015	0.0045	-0.0008	-0.003	111.8
-0.0015	0.0262	-0.0008	0.0105	111.8
-0.0015	0.0127	-0.0038	0.0157	111.9
0	0.0105	-0.006	-0.0015	111.6
-0.0015	0.0052	-0.0068	-0.0465	111.7
0	-0.006	-0.0075	-0.0503	111.7
0.0022	0.003	-0.006	-0.0173	111.8
0.0015	0.0127	-0.006	-0.0233	111.4
0.0045	0.0292	-0.0083	-0.0165	111.7
0.0052	0.0532	-0.0105	0.0187	111.7
0.006	0.0607	-0.0091	0.0307	111.6
0.0067	0.0195	-0.0083	0.0727	111.6
0.0067	-0.0181	-0.0091	0.087	111.6
0.0067	-0.0008	-0.0098	-0.0105	111.6
0.0045	0.0277	-0.0075	-0.078	111.7
0.006	0.0442	-0.0053	-0.0195	111.6
0.0052	0.027	-0.0038	0.021	111.7
0.0075	-0.033	-0.0015	0.0112	111.6
0.0112	-0.0645	0.0007	-0.0113	111.7
0.0097	-0.0458	0.003	-0.0593	111.8
0.012	-0.0638	-0.0008	-0.0263	111.6
0.012	-0.0518	-0.003	-0.024	111.7
0.0105	0.0142	-0.0015	-0.0315	111.7
0.009	0.0052	-0.003	0.0262	111.5
0.009	-0.0015	-0.0008	0.0555	111.7
0.0105	-0.024	0	0.0885	111.6
0.0082	-0.033	-0.0008	0.0195	111.3
0.0045	-0.0038	-0.0008	-0.0525	111.5
0.003	0.0067	-0.0008	-0.0053	111.5
0.003	0.0262	-0.003	0.0195	111.6
0.0007	0.0142	-0.0046	0.0457	111.7
-0.0008	0.0082	-0.0008	0.0495	111.5
-0.0015	-0.0008	0.0052	0.0202	111.5
-0.0015	0.0052	0.0075	-0.0256	111.6
-0.0015	0.0217	0.009	-0.0691	111.5
0.0007	0.0022	0.0067	0.0165	111.5
-0.0008	0.027	0.0067	0.033	111.5
-0.003	0.048	0.0082	-0.0278	111.4
-0.0046	0.0075	0.0082	-0.0195	111.4
-0.0023	-0.027	0.006	-0.0165	111.6
-0.0015	-0.039	0.006	0.009	111.4
-0.0046	-0.0353	0.0007	0.018	111.5
-0.0083	-0.0256	-0.003	0.0135	111.5
-0.0098	-0.0128	-0.0023	0.0165	111.4
-0.0091	0	-0.0015	-0.024	111.5
-0.0105	0.0052	-0.0015	-0.057	111.4
-0.0091	0.0217	0.0007	-0.0361	111.4
-0.0053	0.0315	0.003	0.003	111.4
-0.0053	0.0255	0.0007	0.0075	111.4
-0.0068	0.018	-0.0038	0.0375	111.5
-0.0068	0.015	-0.003	0.0742	111.6
-0.0053	0.015	-0.0038	0.0585	111.5
-0.0053	0.0142	-0.006	-0.0105	111.3
-0.0068	-0.0083	-0.0068	-0.0788	111.4
-0.0068	-0.0443	-0.0068	-0.0608	111.2
-0.0068	-0.042	-0.0135	-0.0008	111.4
-0.0068	-0.0188	-0.0181	0.0165	111.2
-0.006	-0.0008	-0.0105	-0.0173	111.2
-0.0053	-0.0023	-0.0068	-0.0383	111.4
-0.0068	-0.0053	-0.0038	-0.0278	111.3
-0.0046	0.0007	0.0007	-0.0165	111.2
-0.0046	-0.0158	0.003	0.0187	111.4
-0.0015	-0.0068	0.0045	0.0472	111.2
-0.0008	0.0307	0.0045	-0.0173	111.3
0	0.033	0.0082	-0.042	111.3
-0.0008	0.0202	0.0105	-0.0105	111.1
-0.0008	0.0052	0.012	-0.0195	111.4
-0.0008	-0.0188	0.009	0.0097	111.3
0.0007	-0.0428	0.0067	0.0172	111.1
0.0015	-0.0323	0.003	-0.012	111.3
-0.0023	0.0105	-0.0008	-0.048	111.1
-0.0046	0.0292	-0.0008	-0.0458	111.1
-0.0008	0.042	-0.0015	0.018	111.4
0.003	0.0157	-0.003	0.0607	111.2
0.006	-0.0293	-0.006	0.0585	111.1
0.0045	-0.0308	-0.012	0.069	111.1
0.003	-0.0225	-0.0173	0.0802	111
0.0075	-0.0015	-0.0165	0.0667	111.1
0.009	0.0165	-0.0143	0.1012	111.1
0.0075	0.009	-0.0128	0.0952	110.9
0.0082	-0.0218	-0.0091	0.0345	111.1
0.0105	-0.0293	-0.0075	-0.0488	111
0.0105	-0.0105	-0.0068	-0.1163	111
0.0105	-0.0113	-0.0053	-0.0765	111.1
0.0082	-0.0008	-0.003	-0.0443	111.1
0.0067	0.0142	-0.0015	-0.0293	110.9
0.0037	0.0262	0.0007	-0.0233	111.1
-0.0023	0.024	0.003	-0.039	110.9
-0.003	0.0015	0.003	-0.0256	110.8
-0.0046	-0.0091	0.0007	-0.0158	111
-0.006	0.0022	-0.0015	-0.0046	110.9
-0.0053	0.0142	-0.0046	0.003	111
-0.0023	0.0105	-0.003	0.0045	111
-0.0008	0.0075	0.0015	0.0067	110.8
-0.0023	0.0075	0.0022	0.0022	111
0.0007	0.0082	0.003	-0.0075	110.7
0.0015	0.009	0.0022	-0.033	110.8
0.0015	0.027	0.0037	-0.0563	110.9
0.0022	0.036	0.006	-0.054	110.8
0.0007	0.0157	0.0052	-0.0293	110.7
0.003	-0.0278	0.0082	-0.0091	110.8
0.0045	-0.0788	0.012	0.0037	110.7
0.0022	-0.0428	0.012	0.021	110.7
0.0015	0.0292	0.012	0.0202	110.7
0.0037	0.0847	0.015	0.021	110.7
0.0015	0.0802	0.0135	0.0735	110.7
-0.0015	-0.045	0.0052	0.1117	110.9
0.0015	-0.1065	0.0045	0.0562	110.4
0.0045	-0.0578	0.0052	-0.042	110.7
0.0037	-0.0083	0.0052	-0.045	110.7
0.0015	-0.0181	0.009	0.0007	110.7
-0.0015	-0.033	0.0082	-0.0181	110.5
-0.0023	-0.0015	0.0082	0.0007	110.5
0	0.0135	0.009	0.0195	110.6
0.0015	0.0172	0.0112	-0.0015	110.5
0.0022	0.0202	0.0112	0	110.4
-0.0008	0.0405	0.0105	-0.0188	110.5
-0.0023	0.0382	0.0105	-0.0091	110.4
-0.0023	0.009	0.0052	0.0255	110.4
0.0007	-0.0046	0.0037	0.0495	110.3
0.003	-0.0218	0.0015	0.0495	110.6
-0.0015	-0.0525	0.0007	0.0172	110.2
-0.0015	-0.063	-0.0008	-0.0053	110.4
-0.006	-0.0608	-0.0038	-0.0233	110.3
-0.0091	-0.0375	-0.0038	-0.003	110.2
-0.0053	-0.0128	-0.0008	0.0067	110.3
-0.0015	-0.0128	0.0007	-0.0293	110.3
0	0.009	0.0007	-0.0233	110.2
-0.0008	0.0315	0.0037	-0.0225	110.2
-0.0008	0.054	0.0045	-0.057	110.1
0.0015	0.0727	0.0037	-0.0533	110.2
0.0045	0.054	0.0045	-0.0405	110
0.003	0.024	0.0015	-0.0225	110
-0.0015	0.0045	-0.0023	0.0127	110.1
-0.0015	0.0075	-0.003	0.03	110.1
-0.0008	0.0405	-0.0053	0.018	110
-0.0008	0.0607	-0.0083	-0.0075	109.9
-0.0023	0.0322	-0.0091	-0.0165	109.8
0.0015	-0.0188	-0.0098	-0.0105	109.8
0.0022	-0.0548	-0.0105	-0.0165	109.9
0.003	-0.0691	-0.0091	0.0202	109.9
0.0045	-0.0503	-0.0075	0.0487	109.8
0.0022	-0.0203	-0.0091	0.0157	109.9
0.0007	-0.0008	-0.0105	0.0225	109.7
-0.0015	0.0067	-0.0068	0.03	109.8
-0.0008	-0.0091	-0.0046	-0.0083	109.8
0	-0.0181	-0.006	-0.0668	109.6
0.0015	0.0105	-0.0068	-0.0803	109.7
0.0022	0.0532	-0.003	-0.0465	109.7
0.0022	0.0532	-0.0023	-0.0105	109.7
-0.0015	0.0172	0	0.0427	109.6
-0.003	-0.039	0.003	0.0555	109.7
0.0045	-0.0803	0.0022	0.0832	109.6
0.0045	-0.0653	0	0.1102	109.7
0.003	-0.0158	-0.0015	0.0675	109.8
0.0007	0.009	-0.0015	0.0367	109.5
-0.0015	-0.012	-0.0075	0.0142	109.5
-0.0023	-0.0053	-0.0105	-0.0143	109.3
-0.0053	-0.0015	-0.0135	-0.0698	109.4
-0.0046	-0.0046	-0.0128	-0.0638	109.4
-0.0038	0.0172	-0.0083	-0.0346	109.2
-0.0023	0.0202	-0.0053	-0.039	109.5
-0.003	0.0277	0	0.0045	109.4
-0.0046	0.0217	0.0045	0.003	109.3
-0.0046	0.015	0.003	0	109.3
-0.003	0.0172	-0.0015	0.0037	109.3
-0.006	-0.0015	-0.0015	-0.0383	109.2
-0.0038	0.0067	0.003	-0.0353	109.1
-0.0015	0.012	0.0022	-0.0038	109.3
0	0.0022	0.0022	-0.0053	109.1
-0.0023	-0.0046	0.0052	-0.012	109.2
-0.003	-0.0038	0.009	0.0217	109.2
-0.0015	0.012	0.0105	0.0375	109
0.0015	0.012	0.0127	0.0135	109.1
0.0045	-0.0053	0.012	-0.0353	108.9
0.006	-0.006	0.009	-0.0405	109
0.0045	0.0045	0.0082	-0.0181	109.1
0.0052	-0.0113	0.006	0.0195	109.1
0.003	-0.0068	0.0045	0.0645	109
-0.0008	-0.0053	0.0015	-0.0083	108.9
-0.0015	-0.0098	0	-0.0091	109
-0.0038	0.0097	-0.0015	0.039	108.9
-0.0038	0.0427	-0.0068	0.0225	108.7
-0.003	0.069	-0.0105	0.0345	108.7
-0.0053	0.0787	-0.015	-0.0338	108.7
-0.006	0.048	-0.015	-0.0533	108.8
-0.0023	-0.0278	-0.0091	0.009	108.7
0.0022	-0.0975	-0.0046	0.0067	108.7
0.0015	-0.1553	-0.0015	-0.0195	108.6
0.0007	-0.1396	-0.0008	-0.0105	108.8
0.0007	-0.0413	0.0015	0.0052	108.7
0.0007	0.0142	0.0067	-0.0293	108.5
0.0022	0.0202	0.0067	-0.0158	108.6
0.0022	0.0322	0.0045	0.0262	108.6
0.0015	0.0127	0.0015	0.0525	108.5
0.0007	-0.003	-0.0008	0.0795	108.7
0.0045	0.0037	0.0007	0.0232	108.5
0.0045	0.0015	0.0007	-0.0083	108.4
0.0015	-0.0083	0.003	-0.0091	108.5
0.003	0.0007	0.0067	-0.0525	108.4
0.003	0.0157	0.0067	-0.0346	108.3
0.003	0.0187	0.0067	-0.0203	108.6
0.0015	0.045	0.009	-0.048	108.4
0.0007	0.0502	0.0105	-0.0721	108.4
0.0015	0.0412	0.012	-0.0675	108.4
0.0022	0.0165	0.0112	-0.0233	108.2
0.0045	-0.0083	0.0052	-0.012	108.2
0.0052	-0.0195	0.0007	0.078	108.4
0.0052	-0.0428	-0.0015	0.1327	108.2
0.0045	-0.012	-0.0053	0.0112	108.2
0.003	-0.0046	-0.0046	0.0097	108.3
0.0015	-0.0181	-0.0038	0.0405	108.3
-0.0008	0.0157	-0.003	-0.0015	108.1
-0.0015	0.0292	-0.0015	-0.0008	108
-0.0008	0.0247	0.0015	-0.021	108
-0.003	0.0165	0.0007	-0.0023	108.1
-0.0023	0.045	0.0015	0.0195	107.9
0.0007	0.0585	0.003	0.0405	108
0.0007	0.0105	0.0007	0.069	108
-0.0008	-0.0315	0.0045	0.0457	108
0.0007	-0.0668	0.0022	-0.0263	107.8
0.0015	-0.066	0.0015	-0.126	108
-0.0008	-0.054	0.0045	-0.0983	107.8
-0.0038	-0.0511	0.0037	-0.0443	107.9
-0.0038	-0.0008	0.0052	-0.0465	107.9
0	0.03	-0.0008	-0.0046	107.7
0.003	0.0142	-0.0046	0.0142	107.9
0.003	-0.006	-0.0023	0.0247	107.5
0.0015	-0.0233	-0.0046	0.0525	107.6
-0.0015	-0.0225	-0.0091	0.0592	107.6
-0.0015	-0.0008	-0.0105	0.009	107.6
0.0007	0.0405	-0.0083	-0.0308	107.6
0	0.069	-0.0038	-0.024	107.7
-0.0008	0.0592	-0.0023	-0.0181	107.7
-0.0015	0.0405	0.003	-0.0068	107.5
-0.0023	0.0142	0.003	0.0255	107.7
-0.0023	-0.0113	-0.0023	0.0712	107.5
-0.0015	-0.0638	-0.003	0.0825	107.6
0.003	-0.126	-0.003	0.0712	107.5
0.0045	-0.081	-0.0046	0.0015	107.4
0.0015	-0.0293	-0.0046	-0.0053	107.6
0.0052	0.0052	-0.003	0.0105	107.4
0.0045	0.0225	0.0015	-0.0256	107.3
0.003	0.0015	0.003	-0.0053	107.4
0.003	0.0015	0.003	-0.0436	107.4
-0.0008	0.0037	0.0045	-0.048	107.3
0	0.0255	0.0015	-0.0428	107.4
0.0007	0.015	-0.0008	-0.0518	107.4
0.0007	0.033	-0.0008	-0.0203	107.3
0	0.0555	-0.0008	-0.0233	107.5
-0.0023	0.051	-0.0008	0.0007	107.1
-0.0008	0.042	-0.0023	-0.0098	107.2
-0.0015	0.009	-0.0008	-0.0143	107.2
-0.0008	-0.0128	-0.0008	0.0195	107
0.0037	-0.0338	-0.0023	0.0277	107.3
0.0015	-0.024	-0.0015	0.039	107.1
-0.0023	-0.012	-0.0038	0.0165	107.1
-0.0008	0	-0.0015	-0.0105	107.2
-0.0008	0.009	-0.0023	-0.0135	107
-0.0023	0.0045	-0.0038	-0.0225	106.9
-0.003	0.0007	-0.0075	-0.0293	106.9
-0.0038	-0.0128	-0.0083	-0.0046	107.1
-0.0053	-0.0225	-0.0053	0.012	106.9
-0.0046	-0.0181	-0.0053	0.0195	106.9
-0.0015	-0.0278	-0.0053	0.0157	106.9
-0.0023	-0.0346	-0.0053	-0.0083	106.8
-0.003	-0.0188	-0.0046	-0.0083	106.9
-0.003	-0.003	-0.0015	-0.0046	106.8
-0.0008	0.0202	-0.003	0.0255	106.9
-0.003	0.027	-0.0053	0.0277	106.8
-0.003	0.0142	-0.0015	-0.0098	106.9
-0.003	-0.0008	0.0015	-0.0525	106.9
-0.0023	-0.003	0.003	-0.0555	106.7
0.0015	0.0157	0.0045	0.0127	106.6
0.0015	0.003	0.0052	0.024	106.9
0.0007	-0.0091	0.0052	0.0232	106.6
-0.0008	0.0045	0.0067	0.0165	106.8
-0.0015	-0.0015	0.0105	-0.015	106.6
-0.0046	0.0045	0.0082	-0.0165	106.6
-0.0015	-0.0023	0.0052	-0.0203	106.6
0.0015	-0.0105	0.0045	0.0007	106.6
0.0007	0.009	0.0022	-0.0165	106.5
0.003	0.0195	0.003	-0.0315	106.6
0.003	0.0165	0.0007	-0.0008	106.5
0.0015	0.0045	-0.0046	0.015	106.6
0.0015	-0.0008	-0.0053	0.033	106.6
0.0015	0.0157	-0.006	0.0345	106.4
0.0022	0.0315	-0.0038	0.0397	106.6
0.003	0.0262	-0.0053	0.0315	106.6
0.0037	0.0345	-0.0053	-0.0046	106.4
0.0015	0.063	-0.0046	-0.0315	106.6
0.0015	0.0607	-0.003	-0.042	106.4
0.0007	0.0232	-0.0015	-0.0278	106.4
-0.0015	-0.0413	-0.003	-0.0128	106.4
-0.0015	-0.0765	-0.0008	-0.012	106.4
0.0007	-0.0893	0.0015	0.0105	106.3
0.0022	-0.0878	0.003	0.0465	106.4
0	-0.0338	0.0015	0.0562	106.4
0.0015	-0.024	0.003	0.048	106.3
0.003	-0.0113	0.006	0.0262	106.2
0.003	0.0082	0.0045	0.0022	106.2
0.0007	-0.0113	0.003	0.0022	106.3
-0.0023	0.012	-0.0015	0.0112	106.4
-0.003	0.0105	-0.0008	0.009	106.1
-0.0008	0.0082	0.0015	-0.0008	106.3
-0.003	0.0007	0.0015	-0.0195	106.3
-0.0015	-0.0248	0.003	-0.0323	106.2
-0.0008	-0.0315	0.0037	-0.0135	106.4
-0.0008	-0.0165	0.0067	0	106.2
-0.0015	0.0067	0.0082	-0.0098	106.1
-0.0015	0.009	0.0067	-0.0165	106.1
0.0007	0.006	0.006	-0.0293	106.2
-0.0023	0.0015	0.006	-0.0203	106.1
-0.0053	0.0262	0.006	-0.0135	106.3
-0.003	0.0382	0.0052	-0.0181	106.1
-0.003	0.0382	0.003	0.0015	106.1
-0.0015	0.0187	-0.0015	0.0075	106.2
0.0015	-0.0015	-0.003	0.0015	106
0.0022	-0.0105	-0.0053	-0.0015	106.1
0.0045	-0.0181	-0.0068	0.015	106.1
0.0067	-0.0008	-0.0046	0.0315	106
0.0052	0.012	-0.0015	0.0262	106.1
0.0037	0.0127	-0.0015	0.003	105.9
0.003	0.006	-0.0008	-0.0578	106
0.0022	-0.0053	0	-0.0593	105.9
0.0015	-0.0256	0.0022	0.006	105.9
0.0015	-0.0315	0.0052	0.012	106
0.0015	-0.0188	0.0052	0.0022	105.9
0.0007	-0.0068	0.0037	-0.0068	105.8
0	0.009	0.003	-0.0143	105.9
-0.0008	0.0187	0.0022	-0.006	106
-0.0008	0.0187	0.0015	-0.0165	105.7
0.0015	0.0127	0.0015	-0.0181	106
-0.0015	-0.0008	0.0007	-0.0105	105.8
0.0007	-0.0068	-0.0008	-0.0046	105.7
0.0052	-0.003	0.0007	0.006	105.8
0.0015	0.012	0.0015	-0.0008	105.7
0.0015	0.039	0.0007	-0.0158	105.7
0.0015	0.0457	-0.0015	0.0015	105.8
0.0007	0.0082	-0.003	0.051	105.7
0.0022	-0.0278	-0.0046	0.0795	105.7
0.003	-0.0218	-0.0053	0.0412	105.8
0.0015	-0.0293	-0.0023	-0.0203	105.6
-0.0008	-0.0368	0.0015	-0.024	105.8
-0.0008	-0.0083	0.0022	0.024	105.7
-0.0015	-0.0105	0.0052	0.0405	105.5
-0.0008	-0.0375	0.0097	0.0112	105.7
0.0015	-0.0615	0.0112	0.0015	105.7
0	-0.0338	0.012	-0.0383	105.5
-0.0015	0.0105	0.012	-0.0473	105.6
-0.0023	0.0315	0.0127	0.0157	105.4
-0.0053	0.042	0.012	0.045	105.5
-0.0053	0.0105	0.0112	0.0495	105.6
-0.0038	-0.0091	0.0097	-0.0083	105.4
-0.0038	-0.0083	0.0052	-0.0885	105.5
-0.0008	0.0037	0.003	-0.0488	105.6
0	0.0082	0.0045	0.0172	105.5
-0.0008	0.018	0.0007	0.0075	105.5
0.0007	0.0457	-0.0046	0.0142	105.5
0.0045	0.039	-0.0053	0.0292	105.4
0.006	0.0172	-0.0068	0.009	105.3
0.0037	0.0097	-0.0075	-0.0383	105.2
0.003	0.009	-0.0083	-0.057	105.2
-0.0008	-0.0053	-0.0091	-0.0203	105.4
-0.0015	-0.0383	-0.0091	-0.0015	105.2
0	-0.0653	-0.0083	0.0015	105.2
0	-0.0495	-0.006	-0.0105	105.2
-0.0008	-0.0143	-0.0053	-0.012	105.3
0.0015	0.0045	-0.0046	-0.0083	105.3
0.0015	0.0135	-0.0068	-0.0158	105.3
-0.0008	0.0172	-0.0068	-0.0083	105.1
0.0015	0.0142	-0.006	0.0067	105.2
0.003	0.0075	-0.006	0.024	105
0.003	-0.003	-0.0068	0.0255	105.2
0.003	-0.0233	-0.0053	0.0292	105.1
0.003	-0.0181	-0.006	0.027	105.2
0.0022	0.0015	-0.0091	0.0202	104.9
-0.0008	-0.0046	-0.0098	0.0045	105.2
-0.0023	0.0127	-0.0083	-0.033	104.9
-0.0046	0.0217	-0.006	-0.03	105
-0.0053	0.012	-0.0038	0.0015	105
-0.0023	0.0015	-0.003	0.033	104.9
0	-0.0128	-0.0015	0.042	104.9
0.0015	0.0105	0	0.009	104.9
0	0.0577	0.0007	-0.0203	104.8
-0.0008	0.0645	0.0007	-0.0203	105
-0.0015	0.0352	-0.0046	-0.0083	105
-0.0008	-0.006	-0.0046	0.0022	104.7
0.0045	-0.0548	-0.0038	0.0105	104.8
0.0037	-0.0443	-0.0053	0.0202	104.7
0.003	-0.0293	-0.0038	0.033	104.8
0.0037	-0.0503	-0.0008	0.0382	104.8
0.0037	-0.0315	0.0037	0.003	104.7
0.003	-0.0203	0.0052	-0.0218	104.6
0.003	-0.0203	0.0037	-0.0083	104.8
0.0022	-0.0098	0.0052	-0.012	104.6
0	-0.0128	0.0075	-0.0218	104.6
-0.003	0.0052	0.0082	-0.0308	104.8
-0.003	0.0382	0.0075	-0.0405	104.4
-0.0038	0.0675	0.003	-0.0293	104.5
-0.0023	0.0607	0	0.015	104.5
0.0007	0.0352	-0.0015	0.0232	104.5
-0.0023	0.0337	-0.003	-0.0181	104.5
-0.0023	0.0277	-0.0008	-0.0083	104.4
-0.0015	0.0195	-0.0008	0.0037	104.4
-0.0015	-0.0008	-0.0015	0.0015	104.4
-0.0053	-0.0263	-0.0038	0.009	104.4
-0.0046	-0.0218	-0.003	-0.0091	104.4
-0.0046	0.0105	-0.0015	0.0015	104.4
-0.0046	0.0217	-0.0015	0.0247	104.4
0	0.0165	-0.0023	0.033	104.3
0.003	0.015	0	0.0217	104.3
0.0022	0.0015	0.0007	0.0067	104.3
0.0007	-0.0248	-0.003	0.009	104.2
-0.003	-0.0578	-0.003	0.0232	104.1
-0.0046	-0.0615	-0.0038	0.024	104.1
-0.0015	-0.0608	-0.0015	-0.0323	104.2
0.0015	-0.045	0.0007	-0.0353	103.9
0.0015	-0.0293	0.0045	-0.0015	104
0.0037	-0.0233	0.0067	-0.0248	104
0.003	0.0075	0.0097	-0.0308	103.9
0.0037	0.0045	0.009	-0.0263	103.9
0.0045	0.0045	0.009	-0.0173	103.9
0.0045	0.0075	0.0097	-0.0053	103.8
0.003	0	0.012	-0.0083	103.7
0.003	0.0022	0.0082	-0.0091	103.9
0.003	0	0.0075	-0.0128	103.6
-0.0008	0.0135	0.009	-0.0218	103.8
-0.0008	0.0382	0.009	-0.0346	103.8
-0.0015	0.0502	0.0067	-0.024	103.5
-0.0008	0.0382	0.0052	-0.0068	103.8
0.0022	-0.0023	0.0045	0.0277	103.5
0.0037	-0.0533	0.0045	0.0697	103.6
0.006	-0.0383	0.0045	0.0547	103.5
0.0082	0	0.0045	0.0187	103.4
0.0075	0.006	0.0045	-0.0338	103.4
0.0052	0.0127	0.0045	-0.021	103.5
0.003	-0.0263	0.0045	0.027	103.4
0.0022	-0.039	0.0022	-0.0015	103.2
-0.0008	-0.0173	0.0007	0.0022	103.3
-0.0015	-0.012	-0.0008	0.009	103.4
-0.0008	0.0067	-0.0008	0.0015	103.4
-0.003	0.009	0	0.006	103.3
-0.0038	0.012	-0.0015	-0.0173	103
-0.003	0.015	-0.0015	-0.0113	103.3
-0.0008	0.0157	-0.0008	-0.0015	102.9
0.003	0.024	-0.0046	0.0285	103
0.003	0.033	-0.0046	0.0345	103
0.0007	0.036	-0.0038	-0.0083	103
-0.0008	0.018	-0.0046	0.0045	103
-0.003	0.0112	-0.0038	0.0187	103.1
-0.0015	0.0165	-0.003	-0.003	102.6
-0.0015	0.0052	-0.0008	-0.0248	103
-0.003	-0.0091	-0.0015	-0.021	102.7
-0.003	-0.0218	-0.0015	0.0052	102.8
-0.0015	-0.0203	-0.0008	0.0082	102.6
-0.0015	-0.0046	0.0015	-0.0158	102.6
-0.0038	-0.0015	0.003	-0.0256	102.6
-0.0053	-0.012	0	-0.0308	102.6
