File Name: sentado.log
Channel 4: 'Recto Femoral', 16848 values, engineering units: mV, no filters.
Channel 5: 'Biceps Femoral', 16848 values, engineering units: mV, no filters.
Channel 6: 'Vasto Medial', 16848 values, engineering units: mV, no filters.
Channel 7: 'EMG Semitendinoso', 16848 values, engineering units: mV, no filters.
Channel 8: 'Flexo-Extension', 16848 values, engineering units: deg, no filters.

0.0067	0.0015	0.0007	0.0015	61
-0.0105	0.0082	-0.0046	-0.0105	61.3
-0.0098	0.0082	0.0045	-0.0143	61.3
-0.0075	0.003	0.0127	-0.006	61.2
-0.0023	0	0.0217	-0.0038	61.4
0.0007	-0.0015	0.033	0.0007	61.3
0.0037	-0.006	0.0442	0.0045	61.4
0.0052	-0.0098	0.057	0.009	61.2
0.006	-0.012	0.0697	0.018	61.4
0.0082	-0.0098	0.0787	0.0217	61.3
0.0067	-0.0046	0.0832	0.018	61.5
0.0052	0.0007	0.0817	0.0127	61.4
0.0052	0.003	0.0765	0.0052	61.5
0.003	0.006	0.0712	0	61.5
0.0045	0.0067	0.0675	0	61.4
0.0067	0.0022	0.0607	0.0015	61.5
0.006	-0.0008	0.0532	-0.0008	61.6
0.0067	-0.0015	0.0457	-0.0015	61.6
0.006	-0.0023	0.0382	-0.006	61.5
0.006	-0.0053	0.0322	-0.0083	61.6
0.0045	-0.012	0.0277	-0.0046	61.7
0.0067	-0.0165	0.0202	0.0045	61.8
0.0082	-0.0195	0.009	0.0202	61.7
0.0052	-0.0195	0	0.0232	61.8
0.0075	-0.0098	-0.0083	0.0067	62
0.0082	0.006	-0.0173	0	61.7
0.0097	0.0067	-0.0233	0.003	61.9
0.012	0.0022	-0.0285	0.0015	61.7
0.0135	0	-0.0353	0.0045	61.8
0.018	-0.0023	-0.039	0.0045	62
0.0202	-0.0008	-0.0368	0.009	61.7
0.0232	-0.0046	-0.0361	0.0135	62.1
0.0232	-0.0105	-0.0315	0.0082	61.8
0.0195	-0.0143	-0.021	0.0082	61.9
0.015	-0.015	-0.0083	0.006	62.1
0.0097	-0.0068	0.0037	0.0015	62.1
0.0022	-0.0008	0.018	0.0015	62.1
-0.003	0.0015	0.0345	0.0045	62.3
-0.0068	0.0082	0.048	0.0015	62.1
-0.0091	0.0075	0.0555	-0.0053	62.1
-0.0091	0.0067	0.0562	-0.0091	62.3
-0.0105	0.0052	0.0555	-0.0105	62.3
-0.0113	0.003	0.0517	-0.012	62.2
-0.0143	0.0037	0.0465	-0.0105	62.4
-0.0188	0.0022	0.0405	-0.0083	62.3
-0.021	0.0022	0.0352	-0.0091	62.3
-0.0256	-0.0008	0.0315	-0.0075	62.4
-0.0293	-0.0015	0.0262	-0.0053	62.5
-0.033	0.0007	0.0202	-0.0046	62.5
-0.0368	0.0015	0.0142	-0.0038	62.5
-0.0383	0.0045	0.012	-0.003	62.5
-0.039	0.0052	0.006	-0.0023	62.6
-0.039	0.0022	0.003	-0.003	62.7
-0.0375	0.0007	0	-0.0015	62.7
-0.0346	-0.0015	-0.0046	-0.003	62.8
-0.0315	-0.0015	-0.0098	-0.0053	62.5
-0.0278	-0.0046	-0.0143	-0.0053	62.8
-0.0293	-0.0075	-0.0181	-0.0023	62.6
-0.0225	-0.003	-0.021	-0.0015	63
-0.012	-0.0008	-0.0233	-0.0053	63
-0.0068	0.0015	-0.0218	-0.006	62.8
0.0007	0.0015	-0.0233	-0.0075	63.1
0.0045	0.0007	-0.0233	-0.0053	63.1
0.009	0.003	-0.0203	-0.0023	63
0.0135	0.0022	-0.0181	-0.0008	63.1
0.0142	0.0007	-0.015	0.003	63.1
0.009	0.0007	-0.0143	0.0082	63.2
0.0075	0.0015	-0.0158	0.0067	63.4
0.0142	0.0007	-0.0143	-0.0008	63.4
0.0232	0.0007	-0.0128	-0.0015	63.4
0.0292	0.0015	-0.015	0.003	63.6
0.0202	0	-0.0181	0.0015	63.4
0.0142	0.0007	-0.0173	0.0015	63.5
0.0157	-0.0008	-0.0203	0.003	63.8
0.0097	0.0007	-0.024	0.003	63.7
0.012	0.0015	-0.0293	0.0022	63.8
0.0142	0	-0.033	0.0022	63.8
0.0142	-0.0015	-0.0368	0.0052	63.8
0.0127	-0.0015	-0.0383	0.0052	64
0.0067	-0.0008	-0.0436	0.0037	64
0.0067	-0.0008	-0.0465	0.003	64.2
0.012	-0.0008	-0.0495	0.0007	64
0.0195	-0.0015	-0.048	0	64.2
0.018	-0.0015	-0.045	-0.0015	64.1
0.0127	-0.003	-0.0398	-0.0015	64.3
0.0105	-0.0038	-0.033	-0.0015	64.3
0.0052	-0.0046	-0.0278	-0.0015	64.4
-0.003	-0.0053	-0.024	-0.003	64.5
-0.0113	-0.0038	-0.0195	-0.003	64.4
-0.0158	-0.0046	-0.0128	-0.003	64.8
-0.0165	-0.003	-0.006	-0.0038	64.6
-0.0128	-0.0015	-0.0015	-0.0015	64.8
-0.0128	-0.0015	0.003	0.003	64.9
-0.0143	0.0007	0.0067	0.0052	64.9
-0.0098	0.0015	0.009	0.0052	65
-0.0083	-0.0015	0.0105	0.0045	65.1
-0.0068	-0.0015	0.012	0.0052	65
-0.0075	-0.0015	0.0157	0.0045	65.2
-0.0053	-0.0015	0.0165	0.0022	65.2
-0.003	-0.0008	0.0165	0.0007	65.5
-0.0008	0.0007	0.0172	-0.0008	65.4
0.0015	0.003	0.0165	-0.0015	65.3
-0.0015	0.0015	0.0172	-0.0008	65.5
-0.0015	0.0007	0.0157	0	65.7
-0.003	-0.0008	0.0135	-0.0008	65.7
-0.003	-0.0015	0.0112	-0.0015	65.7
-0.0023	-0.0008	0.0105	-0.0015	66
-0.0008	-0.0015	0.0075	-0.0023	65.7
-0.0008	-0.0015	0.0052	-0.0015	66
-0.0008	-0.0023	0.0045	-0.0015	66.1
0.003	-0.0015	0.0045	-0.0015	66
0.0052	-0.003	0.0045	-0.0015	66.2
0.0067	-0.0015	0.0037	-0.003	66.2
0.0082	-0.0008	0.0037	-0.003	66.4
0.0082	-0.0015	0.0037	-0.003	66.3
0.0067	-0.0015	0.0045	-0.0023	66.4
0.0082	0	0.0067	-0.003	66.6
0.0075	-0.0008	0.0067	-0.0038	66.8
0.0082	-0.0015	0.0105	-0.0023	66.7
0.0082	-0.0023	0.012	-0.0015	66.8
0.0075	-0.003	0.0112	-0.0015	66.8
0.0105	-0.0015	0.0127	0.0007	66.9
0.0105	-0.0008	0.015	0.0007	67
0.0082	0.0007	0.015	-0.0008	67.1
0.0067	0.0007	0.0165	-0.0008	67.2
0.0082	-0.0008	0.0157	-0.0015	67.3
0.0105	-0.0008	0.015	-0.0038	67.4
0.0105	-0.0015	0.015	-0.0038	67.4
0.012	-0.0008	0.0135	-0.003	67.7
0.0127	-0.0008	0.0157	-0.0023	67.7
0.0127	-0.0015	0.0142	-0.0008	67.8
0.012	-0.0008	0.0127	-0.0008	67.9
0.0112	-0.0015	0.0127	-0.0023	68.1
0.009	-0.0015	0.0105	-0.0008	68.3
0.0052	-0.0008	0.0082	0.0007	68.3
0.0045	0.0007	0.0067	0.0007	68.3
0.0022	-0.0015	0.0045	0.0007	68.5
0.003	0	0	0.0007	68.6
0.003	0.0015	-0.003	0.0015	68.6
0.0015	0.0015	-0.006	0.0007	68.8
0	0.0007	-0.0083	0.0015	68.8
0.0007	0.0007	-0.0113	0.0015	69.1
0.0045	0.0022	-0.0128	0.0022	69.1
0.0007	0.0022	-0.0143	0.0022	69.1
0.003	0.0045	-0.0165	0.0007	69.4
0.0045	0.0045	-0.0165	0.0015	69.3
0.0037	0.0015	-0.0181	0.0007	69.4
0.003	0.003	-0.0195	0.0007	69.4
0.0007	0.003	-0.0195	0.0015	69.6
0.0015	0.003	-0.0203	0.0007	69.6
0.003	0.0022	-0.021	-0.0008	69.7
0.0015	0.0007	-0.0203	-0.0008	69.4
0	0.0015	-0.0195	0.0007	69.4
-0.0015	0	-0.0203	-0.0008	69.4
-0.003	-0.0008	-0.0181	-0.0008	69.3
-0.0023	-0.0015	-0.0173	0.0007	69.3
0.0015	-0.0015	-0.0181	0.0015	69.7
0.0082	-0.0023	-0.0165	0.0007	69.5
0.015	-0.003	-0.0165	0.0015	69.8
0.0172	-0.0015	-0.0158	0.006	69.6
0.021	-0.0015	-0.0105	0.009	69.9
0.0217	-0.0008	-0.0083	0.0067	69.9
0.0187	-0.0015	-0.0068	0.0052	70.2
0.012	-0.0008	-0.0023	0.0045	70.2
0.0007	-0.0008	0	0.0007	70.1
-0.0053	0	0.0007	-0.0008	70.2
-0.0091	-0.0008	0.0045	-0.0023	70.3
-0.0113	0.0007	0.0037	-0.0015	70.5
-0.0053	0.0007	0.0052	-0.003	70.3
-0.0008	0	0.0052	-0.003	70.7
-0.0008	0.0007	0.0037	-0.0008	70.6
-0.0098	-0.0008	0.003	-0.0015	70.8
-0.0233	0	0.003	-0.0008	70.8
-0.0346	0.0007	-0.0008	-0.0015	70.6
-0.0405	0.003	-0.0046	-0.003	71.1
-0.0383	0.0015	-0.0068	-0.0008	70.9
-0.0361	0.0015	-0.0068	-0.0008	71
-0.0323	0.0015	-0.0046	0.0015	71.3
-0.0308	0.0007	-0.0038	0	71.3
-0.03	0.0007	-0.0053	0	71.4
-0.0285	-0.0008	-0.006	0.0007	71.2
-0.027	0	-0.006	0.0007	71.3
-0.0233	0.0007	-0.0053	0.0007	71.4
-0.0218	0.0007	-0.003	-0.0015	71.5
-0.0203	0.0022	-0.0008	-0.0015	71.5
-0.0158	0.0022	0.0015	-0.0015	71.7
-0.0158	0.003	0.0052	-0.0008	71.6
-0.0135	0.003	0.0067	-0.0008	71.5
-0.0083	0.0015	0.0097	-0.0023	71.8
-0.0053	0.0015	0.0127	-0.0008	71.5
-0.0015	0.0015	0.0142	-0.0015	71.9
0.0015	0.0015	0.0157	0.0007	71.8
0.003	0.0007	0.018	0.0022	71.8
0.0067	0.0007	0.0187	0.0015	72
0.0105	0.0007	0.0202	0.0007	71.9
0.0142	0	0.0202	-0.0015	72
0.0165	0.0007	0.0195	-0.0015	72
0.0187	-0.0015	0.0157	-0.0023	72.1
0.0225	-0.0015	0.0127	-0.0015	72.2
0.024	-0.003	0.0112	-0.0023	72.4
0.024	-0.0023	0.009	-0.0046	72.2
0.024	-0.003	0.0082	-0.003	72.3
0.0232	-0.003	0.0052	-0.003	72.4
0.0232	-0.003	0.0045	-0.0023	72.3
0.0187	-0.0023	0.0052	-0.0015	72.5
0.0165	-0.0015	0.0045	0	72.3
0.0165	-0.0008	0.0022	0.0007	72.5
0.0157	-0.0008	-0.0015	0	72.6
0.0157	-0.0023	-0.0008	0	72.8
0.015	-0.0015	0.0007	0.0007	72.8
0.0135	-0.003	-0.0015	0.0015	72.8
0.012	-0.0015	-0.0008	0	72.8
0.0097	-0.0008	0.0007	-0.0008	72.8
0.0082	-0.003	0.0015	0.0007	73
0.006	-0.0008	0.0022	0.0015	72.9
0.0037	0	0.003	-0.0008	73.2
0	-0.0008	0.006	-0.0008	73.1
-0.0008	-0.0015	0.0067	-0.0008	73.1
-0.003	0	0.0067	-0.0015	73.3
-0.0075	0.0007	0.0082	-0.0023	73.2
-0.0068	0.0007	0.0105	-0.0046	73.3
-0.0091	-0.0015	0.0105	-0.003	73.1
-0.0105	-0.003	0.0075	-0.0023	73.3
-0.0105	-0.0023	0.006	-0.0015	73.4
-0.0098	-0.0015	0.0037	0	73.4
-0.0046	-0.0023	0.003	0.0007	73.4
-0.0008	-0.0015	-0.0015	0.0007	73.4
0.0015	-0.0015	-0.0046	0.0022	73.4
0.0045	-0.003	-0.0053	0.0007	73.3
0.003	-0.0015	-0.003	-0.0015	73.4
0.003	-0.0015	-0.0015	-0.0008	73.3
0.0022	-0.003	-0.0008	-0.0008	73.3
0.0015	-0.003	0.003	-0.0008	73.4
0.003	-0.0015	0.0045	-0.003	73.3
0.003	-0.0023	0.0045	-0.003	73.5
0.0015	-0.003	0.0045	-0.003	73.4
-0.0023	-0.003	0.0022	-0.003	73.5
-0.0075	-0.003	-0.0008	0.0052	73.3
-0.0091	-0.0008	-0.0015	0.0127	73.3
-0.0128	-0.0015	-0.0068	0.0052	73.3
-0.0128	-0.0015	-0.0105	-0.0008	73.3
-0.0113	-0.0023	-0.015	-0.0023	73.2
-0.0105	-0.0008	-0.0218	-0.0046	73.1
-0.0075	-0.0008	-0.0263	-0.003	73.1
-0.006	-0.0023	-0.0308	-0.0053	73
-0.0023	-0.0015	-0.0338	-0.0046	72.9
0.0037	-0.003	-0.0368	-0.0053	72.8
0.0067	-0.0015	-0.0368	-0.0083	72.7
0.0127	-0.0015	-0.0346	-0.003	72.8
0.0165	-0.0015	-0.033	-0.003	72.7
0.0157	-0.0015	-0.0293	-0.0023	72.8
0.0165	-0.003	-0.0263	-0.0023	72.6
0.0172	-0.0015	-0.0233	-0.003	72.8
0.015	-0.0008	-0.0203	-0.0023	72.6
0.0142	0	-0.0165	-0.003	72.5
0.012	0.0007	-0.0143	-0.0015	72.6
0.009	0.0015	-0.0105	-0.0023	72.7
0.009	0.0037	-0.006	-0.0015	72.6
0.0067	0.003	-0.0038	-0.0015	72.6
0.0045	0.0015	-0.0015	-0.0015	72.7
0	0.0007	0.0022	-0.0015	72.8
-0.0053	0.0015	0.0045	0.0007	72.6
-0.0091	0.0015	0.0067	0.0015	72.8
-0.0128	0.0007	0.0082	0.0007	72.7
-0.0128	0.0007	0.0082	0.0007	72.9
-0.0098	-0.0008	0.0067	-0.0008	72.8
-0.0046	-0.0008	0.006	0	72.9
0.0007	-0.0015	0.0045	0.0007	72.8
0.0022	-0.0023	-0.0008	0.0007	72.8
0.0022	-0.003	-0.0046	-0.0008	72.7
-0.0008	-0.0038	-0.0053	-0.0008	72.8
-0.0008	-0.0008	-0.0091	-0.0008	72.6
0.0022	0.0007	-0.0128	0.0007	72.8
0.0075	0	-0.0181	0.0015	72.6
0.012	0.0007	-0.0278	0.0007	72.6
0.0172	0.0007	-0.0375	-0.0008	72.6
0.0202	0.0007	-0.0443	0.0007	72.5
0.021	0.003	-0.0436	0.0015	72.6
0.0225	0.0015	-0.039	0.0007	72.5
0.0217	0	-0.0315	0.0015	72.5
0.0217	0.0022	-0.024	0.0007	72.6
0.0202	0.003	-0.0158	0	72.5
0.0195	0.0015	-0.006	0.0007	72.7
0.021	0.0015	0.0045	0.0007	72.7
0.021	0.0015	0.0142	0.0007	72.8
0.0195	-0.0008	0.021	0.0007	72.8
0.0195	0	0.0255	0.0007	72.8
0.0172	0.0015	0.0285	0	72.8
0.0142	0	0.0292	-0.0008	72.8
0.012	0	0.0292	0.0015	72.7
0.009	0.0015	0.0262	0.0007	72.8
0.0067	-0.0008	0.0232	0.0007	72.7
0.0067	0.0007	0.0195	0.0022	72.8
0.0052	0.0007	0.0127	0.003	72.9
0.003	0	0.0045	0.003	73
0.0007	0.0015	0	0.0022	72.8
-0.0015	-0.0008	-0.0038	0.0015	73.1
-0.0038	-0.0008	-0.0053	0.0015	72.9
-0.0046	-0.0015	-0.0053	0.0015	73
-0.0068	-0.003	-0.0046	0.0015	73
-0.0098	-0.0015	-0.0008	0.0022	72.9
-0.0105	-0.0015	0.0007	0.0015	72.9
-0.0128	0	0.0045	0.0015	73.1
-0.0143	0.0007	0.0097	0.0045	72.8
-0.015	0.0015	0.012	0.0052	73.1
-0.0143	0.0015	0.0157	0.0052	73
-0.0068	0.0022	0.0172	0.0052	73
-0.0053	0.0007	0.0195	0.0052	72.8
-0.0083	0.0015	0.018	0.003	73
-0.0105	0.0007	0.0195	0.003	73
-0.0128	-0.0008	0.0187	0.0022	73.3
-0.0195	0.0015	0.0157	0.0022	72.9
-0.024	0.0007	0.0142	0.0022	73.2
-0.0256	0.0015	0.0112	0.0015	73.1
-0.0293	0	0.0112	0.003	73
-0.0346	-0.0008	0.0067	0.003	73.1
-0.0383	-0.0015	0.0022	0.003	73.1
-0.0368	-0.0008	-0.0015	0.003	73.1
-0.0383	0.0007	-0.0075	0.003	73
-0.0375	0.0015	-0.0105	0.003	72.9
-0.0375	0.003	-0.0128	0.003	73.1
-0.0375	0.003	-0.0143	0.0015	73.1
-0.0338	0.0007	-0.0143	0.0015	73.1
-0.0293	0.0015	-0.0143	0.0015	73
-0.027	0.003	-0.0143	0.0022	73.1
-0.0225	0.0015	-0.0128	0.0015	73
-0.0181	0.003	-0.0128	0.0015	73
-0.0143	0.0015	-0.0128	0.0015	72.8
-0.0098	0.003	-0.012	0.0015	73
-0.0091	0.003	-0.0128	0	72.8
-0.006	0	-0.012	0.0015	72.8
-0.0046	0.003	-0.0128	0.0022	72.9
-0.0038	0	-0.012	0.0007	72.8
-0.0023	-0.0015	-0.012	0.0015	72.8
-0.003	-0.0015	-0.0091	0.0015	72.9
-0.0015	-0.0046	-0.0075	0.0007	72.7
0	-0.0015	-0.0075	0.0015	72.8
0.0037	-0.003	-0.0053	0.0007	72.8
0.0045	-0.0023	-0.0046	-0.0015	72.9
0.009	-0.0008	-0.003	-0.0023	72.7
0.009	-0.0038	-0.0015	-0.0046	72.8
0.0067	-0.0015	0.0015	-0.0046	72.9
0.0127	-0.0015	0.0007	-0.0046	72.8
0.0127	-0.0015	-0.0008	-0.0068	72.8
0.015	-0.0015	-0.0015	-0.0158	72.7
0.015	0	-0.0008	-0.027	72.8
0.0172	0	-0.0023	-0.015	72.7
0.0195	-0.0015	-0.0046	-0.003	72.7
0.018	-0.0023	-0.0053	-0.0008	72.7
0.021	-0.0015	-0.0053	0.0067	72.5
0.0202	-0.0015	-0.003	0.0082	72.7
0.0187	-0.003	-0.0008	0.0082	72.5
0.0195	-0.0023	0.0022	0.0067	72.6
0.018	-0.003	0.0045	0.006	72.7
0.0165	-0.003	0.0067	0.0067	72.5
0.018	-0.0015	0.012	0.003	72.6
0.0165	-0.0038	0.018	0.003	72.4
0.0142	-0.0023	0.0217	0.003	72.6
0.0127	-0.0023	0.0255	0.0045	72.4
0.0097	-0.0008	0.027	0.0037	72.5
0.0075	-0.0008	0.0292	0.0022	72.6
0.0052	-0.0015	0.03	0.0007	72.6
0.0045	-0.0015	0.0292	0	72.6
0.0067	-0.0008	0.0292	0.0007	72.5
0.0067	-0.0008	0.027	0	72.6
0.0015	-0.0008	0.0262	-0.0015	72.4
0.0015	-0.0015	0.024	-0.0015	72.3
0.0045	-0.0008	0.024	-0.0015	72.4
0.003	0.0007	0.024	-0.0008	72.2
0.0007	-0.0015	0.0232	-0.0008	72.4
0.0007	-0.0015	0.0225	-0.003	72.2
0.0007	-0.003	0.021	-0.003	72.4
0	-0.0008	0.0195	-0.0038	72.3
0.003	0.0007	0.0202	-0.0038	72.3
0.009	-0.0008	0.0202	-0.0038	72.1
0.012	0	0.0172	-0.0046	72.3
0.012	0.0007	0.0172	-0.003	72.3
0.0105	-0.0015	0.018	-0.003	72.3
0.0045	-0.0015	0.0172	-0.0023	72.2
0	0.0007	0.0165	-0.0015	72
-0.0015	0	0.0165	-0.0015	72.2
-0.0053	0	0.0157	-0.0008	72.2
-0.006	0	0.0157	-0.0023	72
-0.0053	0.0007	0.018	-0.0038	72.1
0.0007	-0.0015	0.021	-0.0053	72
0.003	-0.0038	0.0247	-0.0046	72.3
0.0075	-0.0015	0.027	-0.0053	72
0.0105	-0.003	0.0277	-0.0053	72.1
0.0075	-0.0015	0.0277	-0.0046	72.3
0.0075	-0.0015	0.0285	-0.003	72.1
0.0082	-0.0008	0.0262	-0.0015	72
0.0067	0	0.024	-0.0023	72.2
0.009	-0.0015	0.021	-0.0023	72
0.0105	0.0007	0.0165	-0.003	72
0.0105	-0.0008	0.0112	-0.003	72.1
0.012	0	0.0075	-0.003	71.9
0.0097	-0.0008	0.0045	-0.0015	72
0.0052	-0.003	0	0	72
0.0037	-0.0008	-0.003	-0.0008	71.9
0.0037	0.0015	-0.0053	-0.0008	72
0.0045	0.0007	-0.0083	0.0007	71.9
0.006	0.0007	-0.0105	-0.0008	71.8
0.0045	0.0022	-0.0105	-0.0008	72
0.0045	0.0007	-0.012	-0.0015	71.9
0.0037	-0.0008	-0.0113	-0.0015	71.9
0.0045	-0.0008	-0.0105	-0.0008	72
0.003	-0.0015	-0.0105	-0.0023	71.8
0.0015	-0.0015	-0.0091	-0.003	71.8
0.0007	-0.0023	-0.0075	-0.0008	71.8
-0.0008	-0.0023	-0.0053	-0.003	72
0	-0.0015	-0.0038	-0.0015	72
0	0	-0.0038	-0.0015	71.8
-0.0008	0.0007	-0.003	-0.0008	71.9
-0.0008	0.0007	-0.0023	0.003	71.9
-0.003	0	-0.0015	0.0037	72
-0.0046	0.0007	-0.0008	0.0015	72
-0.0068	-0.0008	-0.0015	0.0022	71.9
-0.0083	-0.0023	-0.0008	0.0015	72
-0.0068	-0.0015	-0.0015	0.0007	71.9
-0.0068	-0.0015	-0.003	0.0022	72
-0.0075	-0.0023	-0.0015	0.0022	72.1
-0.0098	-0.0046	-0.0015	0.0037	72
-0.0083	-0.0046	-0.0015	0.0037	71.8
-0.0075	-0.0023	0.0007	0.003	72
-0.0068	-0.003	0	0.003	72
-0.0075	-0.0023	-0.0008	0.0037	71.7
-0.0075	-0.0015	-0.0015	0.0037	71.9
-0.0068	-0.0008	-0.0046	0.0037	71.8
-0.0068	-0.003	-0.0053	0.0015	71.9
-0.0083	-0.0038	-0.0083	0.0015	71.8
-0.0083	-0.0038	-0.0105	0.003	71.7
-0.0053	-0.0015	-0.012	0.0022	71.8
-0.0068	-0.0008	-0.0143	0.0015	71.8
-0.0083	-0.0008	-0.0181	0.0022	71.8
-0.0046	-0.0008	-0.0195	0.0007	71.8
-0.0023	-0.0015	-0.0225	0.0022	71.8
-0.003	0.0007	-0.024	0.0022	71.7
-0.0015	0.0007	-0.0256	0.0015	71.7
-0.0015	-0.0023	-0.0278	0.0015	71.8
-0.0015	-0.0015	-0.027	0.0007	71.7
-0.0023	-0.0023	-0.0278	0.0015	71.9
0	-0.0023	-0.0308	-0.0008	71.6
0.0015	-0.0038	-0.03	-0.0008	72
0.0015	-0.003	-0.0285	0	71.7
0.0015	-0.003	-0.0293	0.0015	71.7
0.0015	-0.0023	-0.0308	0.003	71.8
0.0007	-0.0015	-0.0308	0.0022	71.5
0	-0.0015	-0.0293	0.0015	71.8
0.0007	0.0007	-0.0256	0.0015	71.7
-0.0015	0.0007	-0.0256	0.0007	71.7
0.0007	0.0015	-0.0256	0.0007	71.9
0.0022	0.0007	-0.0218	0	71.8
0.0007	0.0015	-0.021	0	71.7
0.0015	0.0022	-0.0195	0.0007	71.8
0.0007	0.0007	-0.0181	0.0022	71.7
-0.0008	0.0022	-0.0181	0.0022	71.7
-0.0008	0.0015	-0.0165	0.0007	71.8
-0.0015	0.0037	-0.0165	-0.0015	71.6
-0.0015	0.0037	-0.0158	-0.0008	71.6
-0.0008	0.0015	-0.0158	-0.0015	71.6
-0.0008	0.0015	-0.0128	-0.0015	71.6
0	0.0015	-0.0113	-0.0008	71.7
-0.0023	-0.0008	-0.012	0	71.5
-0.0015	0	-0.0128	-0.0008	71.6
-0.0008	0	-0.0128	-0.0008	71.6
-0.0008	-0.0015	-0.0128	0.0015	71.5
0.0015	-0.003	-0.012	0.0015	71.9
0.0015	-0.003	-0.0105	0	71.5
-0.0008	-0.003	-0.0105	0	71.5
-0.0008	-0.003	-0.0105	0.0015	71.6
-0.0008	-0.0023	-0.0083	0	71.6
0	-0.0023	-0.0068	0	71.4
0.0007	0.0007	-0.0068	0.0007	71.6
0.0015	-0.0015	-0.0053	0.0007	71.6
0.0015	-0.0023	-0.0046	0.0015	71.5
0.0015	-0.0015	-0.0023	0.0007	71.8
0.003	-0.0015	-0.0015	0.0007	71.5
0.0022	0.0007	-0.0008	0.0007	71.8
0.0045	0.0007	0.0007	-0.0008	71.5
0.0045	0.0015	0.0022	0.0007	71.7
0.0037	0.0007	0.0052	-0.0008	71.5
0.0052	0	0.0067	-0.0023	71.6
0.0067	-0.0008	0.0075	-0.0008	71.6
0.0045	0.0007	0.0097	-0.0008	71.5
0.0045	0.0007	0.012	-0.0008	71.5
0.0037	-0.0023	0.0127	-0.0008	71.6
0.0007	-0.0015	0.0127	-0.0015	71.5
0	-0.0008	0.015	-0.0015	71.4
0.0007	0	0.0165	-0.0015	71.6
0.0007	0	0.0157	-0.003	71.6
0.0022	0.0007	0.0165	0	71.4
0.0007	0.0007	0.0165	0.0007	71.6
-0.0023	0.0007	0.018	0	71.5
-0.003	0.0007	0.0187	0	71.5
-0.0038	-0.0015	0.0157	-0.0008	71.5
-0.0015	0	0.0135	-0.0008	71.4
-0.0015	0	0.0135	0	71.5
-0.0015	-0.0008	0.012	-0.0015	71.4
-0.0008	-0.0023	0.0112	-0.003	71.4
0	-0.003	0.0135	-0.003	71.4
0.0022	-0.0015	0.0127	-0.003	71.4
0.003	0.0007	0.0105	-0.003	71.2
0.0015	0.0015	0.012	-0.0023	71.5
0.0007	0.0007	0.0105	-0.0008	71.3
0.0007	0.0022	0.0105	-0.0008	71.4
0	0.0015	0.0127	-0.0008	71.5
0.0007	0.0015	0.0127	0	71.2
0.0015	0	0.0127	0.0007	71.5
0.0015	-0.0015	0.0135	-0.0008	71.2
0.0015	-0.0008	0.015	-0.0008	71.4
-0.0008	-0.0015	0.0142	-0.0008	71.4
-0.0015	-0.0015	0.0157	0.0007	71.4
-0.0023	-0.003	0.0172	0.0015	71.4
-0.0023	-0.0023	0.0165	0	71.4
0.0007	-0.0023	0.0195	0	71.4
0.0007	-0.0008	0.0195	-0.0015	71.4
0.0037	0.0007	0.0165	-0.0008	71.5
0.003	0.0007	0.0165	0	71.5
0.0015	0.0007	0.015	-0.0015	71.5
0.0045	-0.0008	0.0127	-0.0008	71.5
0.006	0	0.012	-0.0015	71.4
0.0045	0	0.012	-0.0015	71.6
0.0007	-0.0015	0.0097	-0.0015	71.3
0.0015	-0.0008	0.0082	-0.0023	71.5
0.0015	-0.003	0.0082	-0.0023	71.5
0.0015	-0.003	0.0067	-0.0015	71.4
0.0015	-0.003	0.0067	-0.003	71.4
-0.0008	-0.0046	0.006	-0.0015	71.4
-0.0008	-0.003	0.0052	-0.0008	71.5
-0.0015	-0.0015	0.003	-0.0023	71.5
-0.0015	-0.0015	0.0037	-0.0015	71.2
-0.003	-0.0008	0.0015	-0.0008	71.4
-0.0046	0.0007	0.0007	-0.0008	71.4
-0.006	0	-0.0008	0.0007	71.5
-0.0068	-0.0023	-0.0008	0.0015	71.4
-0.006	-0.003	-0.0023	0.0015	71.5
-0.0083	-0.0023	-0.0053	0.0015	71.4
-0.0083	-0.0015	-0.0046	0.0007	71.5
-0.0053	-0.0023	-0.0046	0	71.4
-0.0046	-0.0015	-0.0068	0.0007	71.3
-0.0015	0.0007	-0.0068	0.0007	71.4
0	0	-0.0083	0.0007	71.4
0.0015	-0.0008	-0.0075	0.0015	71.4
0.0045	0	-0.0083	0.0015	71.4
0.006	0.0007	-0.0091	0	71.3
0.0082	0.0007	-0.0075	0.0015	71.5
0.0067	0.0007	-0.0068	0.0015	71.2
0.006	0.0007	-0.0068	0	71.5
0.006	0.0007	-0.006	0	71.5
0.0045	0.0007	-0.0083	-0.0008	71.4
0.006	0.0007	-0.0046	0	71.4
0.006	0.0007	-0.0046	0.0022	71.5
0.003	0.0007	-0.0053	0.003	71.3
0.0007	0.0015	-0.0068	0.0015	71.4
0.003	0.0015	-0.0068	0.003	71.2
0.0052	0.0015	-0.0075	0.003	71.3
0.0007	0.0007	-0.0091	0.0022	71.4
0.0007	-0.0008	-0.0083	0.0015	71.2
0.0015	0	-0.0091	0.0015	71.4
0.0022	0	-0.0091	0.0022	71.4
0.003	0.0007	-0.0098	0.0015	71.1
0.0007	0.0007	-0.0098	0.0015	71.5
0.0015	0.0007	-0.0091	0.0015	71.3
0.0015	0	-0.0091	0.0015	71.4
0.0007	-0.0008	-0.0105	0	71.4
0.0015	-0.0008	-0.0128	-0.0008	71.4
0.0022	-0.0008	-0.0143	-0.0015	71.5
0.0022	-0.0008	-0.0143	-0.0015	71.4
0.003	0.0007	-0.0135	-0.0015	71.2
0.0015	-0.0008	-0.0135	-0.0008	71.5
0.003	-0.0015	-0.0143	0.0007	71.2
0.0022	-0.0046	-0.0143	0.0007	71.3
-0.0008	-0.0046	-0.012	0.0007	71.4
-0.0008	-0.0015	-0.012	0.0015	71.3
-0.0015	-0.0015	-0.012	0	71.4
-0.0015	0	-0.0105	-0.0008	71.3
-0.0008	-0.0008	-0.0098	-0.0015	71.2
0.0007	-0.0008	-0.0098	-0.0008	71.4
0.003	0.0007	-0.0098	-0.0015	71.4
0.0015	0.0015	-0.0091	-0.0008	71.4
0.0022	0.0007	-0.0091	-0.0023	71.2
0.0067	-0.0015	-0.0083	-0.003	71.3
0.0075	0	-0.0068	-0.003	71.3
0.009	0	-0.0068	-0.003	71.4
0.0082	0.0015	-0.0053	-0.0023	71.3
0.009	0.0007	-0.0023	-0.0015	71.4
0.0105	-0.0008	-0.0008	-0.0008	71.5
0.0052	0.0007	-0.0008	-0.0008	71.2
-0.0008	-0.0015	-0.0015	-0.0015	71.4
-0.0091	0	-0.003	0.0007	71.3
-0.0165	0.0015	-0.0053	0	71.2
-0.0113	0.0007	-0.0075	0	71.4
-0.006	0.0007	-0.0083	-0.0015	71.3
-0.0046	0	-0.0083	-0.0008	71.4
-0.003	-0.0008	-0.0068	0.0007	71.2
-0.0008	-0.0008	-0.0105	0	71.4
-0.0015	-0.0008	-0.012	0.0015	71.4
-0.0015	-0.0015	-0.0098	0.0015	71.3
0	-0.0015	-0.0083	0.0015	71.3
0	-0.0015	-0.0053	0.0015	71.4
0.0015	-0.0008	-0.0023	0.0007	71.4
0.0015	0.0022	0.0007	0.0015	71.4
-0.0008	0.003	0.006	0.0007	71.5
-0.0008	0.0007	0.0105	0.0022	71.4
-0.0008	0.0015	0.0142	0.0007	71.5
-0.0015	0.0007	0.0165	0	71.5
-0.0015	0.0007	0.0195	-0.0008	71.1
0.0022	0.0015	0.0217	0.0015	71.5
0.0052	0.0007	0.0225	0.0007	71.4
-0.0008	0.0007	0.0232	-0.0008	71.4
-0.0038	0	0.0232	0.0007	71.5
0.0015	-0.0015	0.0225	0.0015	71.2
0.0067	-0.0008	0.021	0.0007	71.4
0.0187	-0.0015	0.0202	-0.0008	71.5
0.0255	-0.0023	0.0165	0	71.4
0.0195	-0.0015	0.0127	0	71.5
0.0165	-0.003	0.012	-0.0023	71.4
0.0157	-0.003	0.009	-0.0015	71.4
0.0082	-0.003	0.0067	-0.0023	71.6
-0.0083	-0.0023	0.003	-0.003	71.4
-0.027	0.0007	0.003	-0.003	71.4
-0.0383	-0.0008	0.0015	-0.003	71.6
-0.0346	-0.003	0.0007	-0.0015	71.5
-0.0128	-0.003	0.0007	-0.0023	71.7
-0.003	-0.003	0.0007	-0.0015	71.5
-0.0038	-0.003	0	-0.0023	71.4
0.0037	-0.003	-0.0008	-0.0023	71.6
0.0022	-0.0023	-0.0023	-0.0015	71.3
0.0037	-0.0023	-0.0015	-0.0015	71.5
0.0015	-0.0023	0.0007	-0.0008	71.5
-0.0046	-0.0023	0.003	-0.0015	71.5
-0.003	-0.0008	0.0045	-0.0008	71.4
-0.0008	0	0.006	0.0007	71.5
0.0007	-0.0008	0.0067	-0.0008	71.5
-0.0008	0	0.0075	0	71.5
-0.0008	-0.0008	0.0082	0.0007	71.5
0.0007	0	0.009	-0.0008	71.5
-0.0008	0	0.0097	0.0015	71.7
0.0007	0	0.0105	0.0015	71.4
0.0022	-0.0008	0.0127	0.0007	71.4
0.0015	-0.0015	0.0127	0.0015	71.6
0.0015	-0.0023	0.012	0.0015	71.5
0.0007	-0.0015	0.012	0.0007	71.6
-0.003	-0.0015	0.0112	0.0007	71.6
-0.0015	-0.0015	0.0105	0.0015	71.6
0.0045	-0.0008	0.0082	0.0007	71.4
0.009	-0.0008	0.0067	0	71.7
0.012	0.0007	0.0082	0.0007	71.6
0.0105	0.0007	0.0075	0.0015	71.6
0.015	0.0015	0.006	0.0015	71.5
0.0187	0.0015	0.0045	0.0007	71.6
0.0232	0	0.0022	-0.0008	71.5
0.0217	-0.0008	0.0022	-0.0008	71.4
0.0157	-0.0008	0.0007	-0.0015	71.7
0.0217	0.0007	0.0015	-0.0023	71.5
0.0232	-0.0008	0.0022	-0.0015	71.6
0.009	-0.0008	0.0022	-0.003	71.7
-0.0083	0	0.0022	-0.003	71.5
-0.0361	-0.0008	0.003	-0.0015	71.5
-0.063	0.0015	0.0007	-0.0008	71.6
-0.0608	0.0007	0.0007	-0.0008	71.6
-0.0436	0.0007	-0.0008	0.0007	71.5
-0.0353	0.0015	-0.0015	0.0007	71.6
-0.0173	0.0007	-0.0008	0.0007	71.7
0.0052	0.0007	0.0015	0.0007	71.5
0.0142	0.0007	0.0015	-0.0008	71.5
0.0262	0.0007	0.0007	-0.0015	71.5
0.0307	0.0015	-0.0008	-0.0023	71.6
0.0157	0.0015	-0.0015	-0.0015	71.5
0.0037	0.0015	-0.0008	-0.0008	71.7
0.0045	0.0015	-0.0008	-0.0015	71.6
-0.0015	0.0015	0.0007	-0.0015	71.5
-0.0023	0.0007	0	-0.0008	71.7
0.0082	-0.0015	0.0015	0.0015	71.4
0.0142	-0.003	0.0015	0.0037	71.7
0.0127	-0.0008	-0.0015	0.003	71.6
0.0075	0.0007	-0.0008	0.003	71.5
0.0127	-0.0015	-0.0038	0.003	71.6
0.024	-0.0015	-0.0053	0.0037	71.5
0.0292	-0.0008	-0.0068	0.0022	71.5
0.018	0	-0.0083	0.0015	71.5
0.0067	-0.0008	-0.0091	0	71.6
0	-0.003	-0.0128	0	71.4
-0.0143	-0.0023	-0.0135	0.0007	71.7
-0.0233	-0.003	-0.015	-0.0008	71.4
-0.0293	-0.003	-0.015	0	71.5
-0.027	-0.003	-0.0128	0.0007	71.6
-0.012	-0.003	-0.0143	-0.0008	71.4
-0.003	-0.003	-0.0128	0.0007	71.7
-0.0023	-0.0038	-0.0143	0.0007	71.4
0	-0.003	-0.0158	0.0007	71.6
0.0007	-0.003	-0.0173	0.0007	71.7
-0.0008	-0.0015	-0.0188	0.0007	71.5
0.0007	-0.0008	-0.0165	0.0007	71.5
-0.0015	0.0007	-0.0165	0.0007	71.5
0	0.0007	-0.0181	0	71.5
-0.0023	0.0007	-0.0158	0	71.4
-0.0046	0.0015	-0.012	-0.0008	71.7
-0.0053	0.003	-0.0105	-0.0008	71.4
-0.0128	0.0037	-0.0075	-0.0015	71.7
-0.0181	0.0022	-0.0038	-0.0015	71.5
-0.015	0.0015	-0.0015	-0.0015	71.5
-0.0091	0.0015	-0.0015	-0.0023	71.7
-0.0046	0.0022	0.0007	-0.003	71.5
0.0007	0.0015	0.003	-0.0038	71.6
0.0067	0.0022	0.0067	-0.0023	71.6
0.0082	0.0007	0.009	0	71.5
0.0082	0.0007	0.0112	0	71.5
0.0052	-0.0015	0.0127	0.0007	71.5
0.0067	-0.003	0.015	0.0007	71.5
0.0112	-0.0023	0.0142	0.0015	71.5
0.012	-0.003	0.0142	0.003	71.7
0.0105	-0.003	0.0165	0.0015	71.4
0.0112	-0.0015	0.0142	0.0022	71.7
0.0105	-0.003	0.0142	0.0015	71.5
0.0127	-0.0008	0.012	-0.0008	71.7
0.0142	-0.0023	0.009	-0.0008	71.7
0.0097	-0.003	0.006	-0.0008	71.5
-0.0008	-0.0015	0.0037	-0.0015	71.7
-0.012	-0.003	-0.0008	-0.0015	71.5
-0.0105	-0.0015	-0.0023	-0.0015	71.6
-0.003	-0.0038	-0.0008	0.0007	71.7
-0.0008	-0.0023	-0.0046	-0.0015	71.5
-0.0008	-0.0008	-0.006	0	71.7
-0.006	-0.0015	-0.0075	0.0015	71.4
-0.0068	-0.0015	-0.0083	-0.0008	71.5
0.003	-0.003	-0.0083	-0.0015	71.4
0.018	-0.0038	-0.0098	-0.0015	71.5
0.0165	-0.0038	-0.0083	-0.0015	71.3
0.0082	-0.0038	-0.0075	-0.0015	71.6
0.0157	-0.0038	-0.0068	0	71.5
0.0217	-0.0015	-0.0053	0	71.6
0.0165	-0.0008	-0.003	-0.0008	71.5
0.018	0.0007	-0.003	0.0007	71.4
0.021	0.003	-0.0038	-0.0008	71.5
0.0067	0.003	-0.0046	0	71.6
-0.0091	0.0015	-0.0053	0	71.5
-0.0256	0.0015	-0.006	0.0007	71.5
-0.0405	0.0015	-0.0068	0.0015	71.5
-0.0368	0.0022	-0.0053	-0.0008	71.5
-0.0128	0.003	-0.006	-0.0015	71.4
-0.0038	0.0045	-0.0053	0	71.5
-0.0023	0.0045	-0.0075	0.0007	71.6
0.006	0.0022	-0.0075	0.0022	71.5
0.006	0.0007	-0.0068	0.003	71.6
0.0105	0.0015	-0.0053	0.0015	71.5
0.0075	-0.0008	-0.0053	0.0015	71.5
0.0007	-0.0023	-0.0068	0.003	71.4
-0.003	-0.0023	-0.0053	0.0015	71.5
-0.0008	-0.003	-0.0046	0	71.5
0.006	-0.003	-0.003	0.0007	71.6
0.009	-0.006	0.003	0	71.5
0.012	-0.0046	0.006	-0.0008	71.5
0.0052	-0.003	0.0082	0.0007	71.6
0.0052	-0.003	0.012	0.0015	71.5
0.0045	-0.0015	0.012	0.0022	71.4
0.0007	-0.0023	0.012	0.0007	71.7
-0.003	-0.003	0.012	-0.0015	71.5
-0.003	-0.0023	0.009	-0.003	71.5
-0.0046	-0.003	0.0045	-0.003	71.5
-0.0053	-0.003	0	-0.003	71.6
0.0007	-0.0015	-0.003	-0.0015	71.6
0.0022	0	-0.006	-0.003	71.5
0.0037	0.0007	-0.006	-0.0015	71.4
0.003	-0.0008	-0.0046	0	71.6
0.0052	-0.0008	-0.0023	0.0007	71.5
0.0067	0.0007	-0.0008	0.0007	71.5
0.0045	0.0007	-0.0008	0.0007	71.7
0.0045	0	0.0007	0.0015	71.5
0.0022	-0.0015	0.0007	0.0022	71.6
0.0007	-0.0008	0.0037	0.0015	71.7
-0.0015	-0.0008	0.0082	0	71.5
0.0007	-0.0015	0.0112	-0.0008	71.6
0.0052	-0.0015	0.015	-0.003	71.5
0.0045	-0.003	0.0172	-0.003	71.7
0.0052	-0.0015	0.0195	-0.0015	71.5
0.0052	-0.0008	0.0217	-0.0015	71.5
0.0045	-0.0015	0.0217	-0.0008	71.4
0.0052	-0.0015	0.0195	0	71.6
0.0045	0	0.0172	-0.0015	71.7
-0.0038	-0.0008	0.0157	-0.0015	71.6
-0.0173	0	0.0112	-0.0023	71.7
-0.0256	-0.0008	0.0075	-0.0023	71.5
-0.0188	-0.0008	0.003	-0.0015	71.7
-0.0015	0.0007	-0.0015	0.0007	71.6
0.024	0.0007	-0.0083	0.003	71.4
0.0345	0.0007	-0.012	0.0015	71.5
0.0262	-0.0008	-0.0135	0.0015	71.5
0.0157	0.0015	-0.012	0.0022	71.6
-0.0083	0.0022	-0.0128	0.003	71.5
-0.0188	0.0015	-0.0165	0.0015	71.6
-0.012	0.0015	-0.0143	0.0007	71.6
-0.003	0.0007	-0.012	0.0007	71.6
0.0142	0.0007	-0.0128	-0.0008	71.4
0.0165	-0.0008	-0.0105	-0.0008	71.6
-0.0046	0.0015	-0.0083	-0.0015	71.5
-0.0248	0.0015	-0.0068	0	71.5
-0.0323	0	-0.0046	0.003	71.6
-0.0218	0.0007	-0.0008	0.003	71.5
-0.0091	-0.0015	0.0007	0.0015	71.7
-0.0068	0.0007	0.0045	0.0007	71.7
0	0	0.0045	0.0015	71.6
0.0082	-0.0015	0.0045	0.0015	71.8
0.0045	-0.0008	0.003	0.0007	71.5
0.006	-0.0015	0.0015	-0.0008	71.7
0.0052	-0.0015	0.0045	-0.0015	71.5
0.0067	-0.0008	0.0052	-0.0015	71.8
0.0187	0	0.0045	-0.0015	71.5
0.0142	0.0007	0.0045	-0.0015	71.7
0.0067	-0.0008	0.0037	-0.0023	71.5
0.0052	-0.0008	0.0022	-0.0008	71.7
0.009	-0.0008	0.0007	-0.003	71.6
0.0045	-0.0015	0.0022	-0.0023	71.6
-0.0015	-0.0015	0.003	-0.0008	71.6
0.0052	-0.0008	0.0015	-0.0008	71.7
0.0022	0.0015	0.0015	0.0007	71.6
0.0045	0.0007	-0.0008	0.0007	71.7
0.0112	0	-0.0008	0.0007	71.5
0.0067	0	-0.0015	0	71.9
-0.0053	0	-0.003	0.0015	71.6
-0.0158	0.0015	-0.003	0.0015	71.6
-0.0203	0.0015	-0.0046	0.0007	71.7
-0.0278	0	-0.0023	0.0007	71.6
-0.0338	0	-0.0008	0	71.7
-0.0353	-0.0008	0.0007	-0.0015	71.6
-0.0195	-0.0023	0.0007	-0.0015	71.5
-0.0015	-0.0015	0.003	-0.0015	71.7
0.0007	-0.0015	0.0037	-0.0008	71.7
0.0082	-0.0008	0.0022	0.0007	71.5
0.018	-0.0015	0.0022	0.0015	71.8
0.0135	-0.0015	0.003	0.0007	71.6
0.0105	-0.0023	0.0045	-0.0008	71.6
0.0097	-0.0008	0.0052	0.0007	71.6
0.0067	0.0007	0.003	0	71.5
0.0045	0.0007	0.0015	0.0007	71.7
-0.0015	0	0.003	0.0015	71.6
-0.0083	-0.003	0.0022	0.0007	71.6
-0.0165	-0.0015	0.0045	0.0007	71.6
-0.0158	-0.0015	0.006	0	71.6
-0.0083	-0.0053	0.0082	-0.0015	71.6
-0.0046	-0.003	0.0105	0.0007	71.6
-0.0023	-0.0015	0.0082	0.0015	71.5
-0.0023	-0.0015	0.0082	0.0007	71.5
-0.0015	-0.0008	0.006	0.0007	71.7
0.0037	0.0015	0.0045	0.0007	71.6
0.0105	0.0022	0.0045	-0.0008	71.7
0.0075	0.003	0.003	-0.0023	71.6
0.0052	0.0015	0.0037	0	71.4
0.009	0.0007	0.0037	-0.0015	71.9
0.0082	0.0007	-0.0008	-0.003	71.5
0.0097	0.0015	-0.0038	-0.0008	71.5
0.0075	0.0015	-0.0046	-0.0015	71.7
0.0067	-0.0008	-0.003	-0.0008	71.5
0.0112	-0.0008	-0.0008	-0.0008	71.5
0.012	0	-0.0023	-0.0015	71.5
0.0157	-0.0008	-0.006	-0.0015	71.5
0.018	0.0007	-0.0091	-0.0015	71.5
0.0142	0.0015	-0.0091	-0.0008	71.5
0.0045	0.0015	-0.0091	-0.0008	71.5
-0.0038	0.0007	-0.0091	-0.0008	71.7
-0.0083	0	-0.0091	0.0007	71.5
-0.012	-0.0015	-0.0105	0.0007	71.5
-0.0105	0	-0.0091	0.0015	71.6
-0.0113	-0.0008	-0.0098	0.003	71.3
-0.003	0.0007	-0.0083	0.0015	71.6
0.0127	0.0015	-0.0091	0.0007	71.3
0.0202	0.0007	-0.0098	-0.0008	71.4
0.024	0.0007	-0.0098	-0.0015	71.7
0.0045	0.0015	-0.0091	0	71.4
-0.0248	0.0007	-0.0113	0.0015	71.5
-0.033	-0.0008	-0.0113	-0.0008	71.5
-0.045	-0.0008	-0.0083	-0.0008	71.5
-0.045	-0.0008	-0.0068	-0.0008	71.5
-0.0256	-0.0008	-0.0053	0.0007	71.5
-0.0046	-0.0023	-0.003	0	71.4
0.018	-0.003	-0.0015	0.0015	71.6
0.039	-0.0015	-0.0053	0.0022	71.5
0.0592	-0.0008	-0.0053	0.0007	71.4
0.0645	-0.0008	-0.003	0.0015	71.7
0.051	0	-0.003	-0.0008	71.5
0.0352	0.0007	-0.0008	-0.0015	71.5
0.0217	-0.0008	-0.0023	-0.0008	71.4
0.012	-0.0015	-0.0038	-0.0008	71.5
0.0015	-0.0008	-0.0046	-0.0008	71.5
-0.012	-0.0015	-0.0046	-0.0008	71.4
-0.0225	-0.0015	-0.0046	-0.003	71.7
-0.0256	-0.003	-0.0053	-0.003	71.5
-0.0128	-0.0015	-0.0083	-0.003	71.4
-0.0091	-0.0008	-0.0091	-0.0015	71.6
-0.0113	-0.0023	-0.0083	-0.0023	71.5
0	-0.0015	-0.0075	-0.0008	71.3
-0.0008	-0.0015	-0.0083	-0.0008	71.4
0.0045	0.0015	-0.0075	-0.0008	71.4
0.012	0.0015	-0.006	0.0007	71.3
0.0105	-0.0015	-0.0008	0	71.5
0.0045	0	0.0037	-0.0015	71.4
-0.0046	-0.003	0.006	-0.0015	71.5
-0.0165	-0.0015	0.0082	-0.0015	71.6
-0.0195	-0.0015	0.0112	-0.0015	71.4
-0.0203	-0.0015	0.012	0	71.4
-0.0383	-0.0023	0.0127	0.0007	71.4
-0.0353	-0.0046	0.0142	0	71.4
-0.0188	-0.0023	0.0142	0.0015	71.3
-0.021	-0.0015	0.0127	0.0015	71.5
-0.0233	-0.0015	0.0112	0.0015	71.4
-0.024	-0.0023	0.0112	0.0007	71.4
-0.0181	-0.0008	0.0105	0	71.3
-0.0015	-0.0008	0.0097	-0.0008	71.4
0.009	-0.0008	0.009	-0.0008	71.4
0.0082	0	0.009	-0.0008	71.1
0.0082	-0.0008	0.012	0	71.4
0.009	-0.0008	0.0105	0.0007	71.3
0.0105	-0.0038	0.0082	0.0007	71.3
0.0127	-0.003	0.0067	0.0022	71.3
0.0105	-0.0008	0.0075	0.0007	71
0.0112	-0.0015	0.009	-0.0015	71.3
0.0067	-0.0008	0.0075	-0.003	71.1
0.0045	-0.0015	0.0052	-0.0046	71.2
0.009	-0.0015	0.0052	-0.0046	71.1
0.0067	-0.0015	0.003	-0.006	71.1
0.0075	-0.003	0.0037	-0.0083	71.1
0.0082	-0.003	0.0015	-0.0068	71.1
0.0082	-0.003	-0.0015	-0.003	71
0.0082	-0.0008	-0.0015	-0.0015	71
0.0067	-0.0008	-0.0046	-0.0015	71.1
0.0037	0	-0.003	-0.0008	71.1
-0.0015	0	-0.0046	0.0007	71.1
-0.0068	0.0015	-0.006	0.0007	71.1
-0.0075	0.0045	-0.0068	0.0007	70.9
-0.0113	0.0037	-0.0091	0	71
-0.0165	0.0052	-0.0091	0.0007	70.8
-0.0046	0.003	-0.0098	0.0015	71
0.012	0.0015	-0.0105	-0.0008	70.9
0.0202	0.0015	-0.012	0.0007	70.7
0.0255	0.0015	-0.0135	0	70.9
0.0172	0	-0.012	0.0007	70.8
0.0135	-0.0008	-0.012	0.0015	70.8
0.0157	0	-0.0083	-0.0008	70.6
0.0142	0	-0.0091	0	70.9
0.015	0.0015	-0.0075	0.0007	70.6
0.009	0.0007	-0.0046	0.0015	70.9
0.0015	-0.0008	-0.0053	0.003	70.8
0.0127	-0.0015	-0.0046	0.0022	70.6
0.0127	-0.0015	-0.0053	0.0015	70.8
-0.0023	0.0007	-0.0053	0	70.5
-0.0105	0.0007	-0.0053	-0.0008	70.6
-0.0233	-0.0008	-0.0046	0.0007	70.6
-0.0263	-0.0008	-0.0015	0.0007	70.6
-0.0278	-0.0023	0.003	-0.0008	70.8
-0.0128	-0.0015	0.0067	-0.0015	70.5
0.006	0.0007	0.0097	-0.0008	70.6
-0.0015	0.0007	0.0105	-0.003	70.5
-0.0046	0.0007	0.0105	-0.0038	70.6
0.0045	0.0015	0.0112	-0.0023	70.4
0.0285	0.0015	0.009	-0.0015	70.5
0.0465	0.0007	0.009	-0.0008	70.5
0.0427	0.0015	0.0082	-0.0008	70.5
0.048	-0.0008	0.0075	-0.0008	70.4
0.051	-0.0023	0.0052	0.0007	70.3
0.048	-0.0015	0.0045	0.0015	70.4
0.0127	-0.0015	0.003	0.003	70.3
-0.0315	-0.0015	-0.0038	0.0022	70.3
-0.0488	-0.0015	-0.0053	-0.0008	70.3
-0.0615	-0.0023	-0.0068	-0.0015	70.2
-0.0675	-0.003	-0.0053	-0.0015	70.1
-0.0668	-0.0015	-0.0046	-0.0008	70.1
-0.0436	-0.0023	-0.0053	0.0007	70.1
-0.0128	-0.0015	-0.003	0.0007	70.2
0.0045	-0.0023	-0.0015	0.0007	70.2
0.009	-0.0038	0.0007	0.0007	70
0.0045	-0.0008	0.0022	-0.0008	70.2
0.0015	-0.0008	0.003	0	70
0.0052	-0.0008	0.0037	-0.0008	70
0.027	-0.0008	0.0045	0	70.2
0.03	0	0.0067	0.0007	69.9
0.009	-0.0015	0.0082	0.0007	70
-0.0023	-0.0008	0.0082	0.0007	69.8
-0.0195	0.0007	0.0082	0.0015	69.9
-0.0338	-0.0008	0.0075	0.0015	69.9
-0.0308	0.0007	0.0075	0.0015	69.7
-0.0338	-0.0015	0.0052	0.0007	69.8
-0.027	-0.0008	0.003	-0.0008	69.8
-0.0091	-0.0008	0.0007	-0.0015	69.8
-0.003	-0.0015	-0.0008	-0.0015	69.7
0.0015	-0.0015	-0.003	0	69.7
0.0082	-0.0008	-0.0046	0.0007	69.6
0.006	-0.0008	-0.0046	0.0015	69.7
0.003	-0.0015	-0.0068	0.0015	69.6
0.006	-0.0008	-0.0105	0.0007	69.4
0.0007	-0.0015	-0.012	0.0007	69.6
-0.0046	-0.0015	-0.0105	0.0015	69.5
0.0007	-0.0008	-0.0113	0.0015	69.5
0.003	-0.0008	-0.0105	0	69.5
0.0075	0.0007	-0.0105	-0.0015	69.4
0.0127	-0.0023	-0.0098	-0.0015	69.3
0.0127	-0.0053	-0.0068	-0.0015	69.4
0.0105	-0.0053	-0.0038	-0.0038	69.3
0.003	-0.0046	-0.0015	-0.0053	69.5
-0.0091	-0.0015	-0.0008	-0.0053	69.3
0.0022	-0.0008	0.0007	-0.0038	69.3
0.015	0.0007	0.0045	-0.0023	69.3
0.015	0	0.0052	-0.0023	69.3
0.0217	0.0007	0.009	-0.003	69.1
0.0232	0.0015	0.0135	-0.0015	69.2
0.0255	0.0007	0.0142	-0.0015	69.1
0.0217	0.0015	0.0142	-0.0008	69.1
0.009	0.003	0.015	0.0007	69
0.006	0.0022	0.0157	0.0007	68.9
0.0052	0.0007	0.0165	0.0007	69
0.0045	0	0.0165	0.0007	69
0.006	0	0.015	0.0015	69
0.0052	-0.0015	0.0135	-0.0008	68.9
0.009	-0.003	0.0142	-0.0008	68.8
0.003	-0.0015	0.012	-0.0008	68.9
-0.0091	-0.0015	0.009	-0.0008	68.8
0.012	-0.0008	0.0097	0.0015	68.8
0.0135	-0.0023	0.0075	0.0015	68.8
-0.0015	0.0007	0.0045	0.003	68.8
0.0075	0.0015	0.003	0.003	68.5
0.0217	0.0007	0.0007	0.0015	68.8
0.036	0	0	0	68.6
0.0472	-0.0015	-0.0008	0	68.7
0.0427	0.0007	-0.0015	0	68.5
0.0157	0.003	-0.003	0.0007	68.5
-0.0165	0.0022	-0.0046	-0.0015	68.4
-0.0548	0.0007	-0.0053	-0.0015	68.4
-0.0698	0.0007	-0.0053	0.0007	68.3
-0.0645	0.0015	-0.0046	-0.0015	68.4
-0.0706	0.0015	-0.0053	-0.0008	68.3
-0.054	0.0015	-0.0053	0	68.3
-0.0105	0.0007	-0.0075	-0.0008	68.3
0.0045	-0.0008	-0.0075	0	68.3
0	0.0007	-0.0091	0	68.1
0.0022	0	-0.0105	0.0007	68
0.0052	-0.0015	-0.0098	0	68
0.0157	-0.0023	-0.0091	0	68
0.009	-0.0023	-0.0098	0.0007	68
-0.0091	0	-0.0083	0.0015	67.8
-0.0015	-0.0015	-0.0068	0.003	68
0.0292	-0.0008	-0.0068	0.0022	68
0.0202	-0.0015	-0.003	0.0015	67.8
0.0097	-0.003	-0.003	0	67.9
0.039	-0.0015	-0.0023	-0.0023	67.9
0.0172	-0.0015	-0.0015	-0.0015	67.8
-0.0091	-0.0015	-0.0008	0	67.9
-0.0165	-0.0015	-0.0008	0.0007	67.5
-0.0263	-0.0008	-0.0023	0.0015	67.7
-0.0068	-0.0008	-0.0015	0.0022	67.7
-0.0105	-0.0015	-0.0046	0.003	67.5
-0.0308	-0.0023	-0.0046	0.003	67.8
-0.0181	-0.003	-0.006	0.0007	67.4
-0.0046	-0.0046	-0.0091	-0.0008	67.5
0.0015	-0.0053	-0.012	-0.003	67.4
0.0045	-0.006	-0.0143	-0.0023	67.2
0.0045	-0.0053	-0.0158	-0.0008	67.3
0.0037	-0.0015	-0.0158	-0.0008	67.4
0.009	-0.0008	-0.0143	0.0015	67.2
0.0105	0.0007	-0.0143	0.0022	67.3
0.012	-0.0008	-0.0135	0.0015	67.2
0.0195	-0.003	-0.0105	0.0007	67.2
0.0172	-0.0008	-0.0068	-0.0008	67.2
0.0127	-0.0015	-0.006	0.0007	67
0.0082	-0.0008	-0.0053	0.0015	67.1
0.0067	-0.0008	-0.0046	0.0015	67.1
0.0067	-0.0008	-0.0023	0.0007	67.1
0.0052	0.0007	0	-0.0015	67.1
0.006	0.0007	0.0022	-0.0015	66.8
0.0082	0	0.0052	0	67
0.0082	-0.0008	0.0052	0	66.8
0.0045	0	0.0067	-0.0008	66.9
0.0037	0.0015	0.0075	-0.0023	66.8
0.0052	0.0022	0.003	-0.0023	66.8
-0.003	0.0015	-0.0008	-0.0015	66.6
-0.0218	0	-0.0038	-0.0015	66.7
-0.0383	-0.0015	-0.0083	-0.0008	66.8
-0.0195	-0.0008	-0.0105	-0.0015	66.5
-0.0068	-0.0008	-0.0091	-0.0015	66.6
-0.0068	-0.0008	-0.0083	-0.0008	66.2
0.0135	-0.0008	-0.0046	-0.0015	66.6
0.0082	-0.0023	-0.003	0.0015	66.3
-0.0075	-0.0015	0.0007	0.003	66.3
-0.0083	0.0007	0.0045	0.0037	66.4
-0.003	0.0015	0.0082	0.0015	66.4
0.024	0.0015	0.0105	0.0007	66.3
0.0517	-0.0008	0.0105	0	66.2
0.0517	-0.0008	0.0105	0	66.1
0.0307	-0.0008	0.0112	-0.0008	66.2
0.0187	-0.0015	0.0112	-0.0015	66.1
0.0045	-0.0015	0.0075	-0.0015	65.9
-0.024	-0.0008	0.003	-0.0008	65.9
-0.033	-0.0008	0.0015	0	66
-0.0181	-0.0015	-0.0015	-0.0008	65.7
-0.0053	-0.0008	-0.0023	-0.0008	66
-0.0128	-0.0008	-0.003	-0.0008	65.6
-0.0225	-0.0008	-0.0046	-0.0015	65.8
-0.0256	-0.0008	-0.0046	0	65.8
-0.0165	-0.0008	-0.0023	-0.0008	65.7
0.003	0	-0.003	0	65.5
0.0052	0.0007	-0.0053	-0.0008	65.5
0.006	0.0007	-0.0046	-0.0008	65.4
0.0105	0.0015	-0.0038	-0.0015	65.5
0.0052	0.0015	-0.003	-0.0038	65.4
0.0037	0	-0.0015	-0.0046	65.2
0	-0.0008	-0.0015	-0.003	65.2
0.0007	-0.0008	-0.0008	-0.0023	65.2
-0.003	-0.0015	0.0022	-0.0023	65.1
-0.0015	-0.003	0.0052	-0.0015	65.2
-0.0008	-0.003	0.0052	-0.003	64.9
-0.0068	-0.003	0.0045	-0.0023	65
-0.0038	-0.0008	0.0067	-0.0015	64.8
0.003	-0.0008	0.0067	-0.0038	64.8
0.0082	0	0.0067	-0.003	64.8
0.012	0.0007	0.0045	-0.0046	64.7
0.0105	0.0015	0.0045	-0.0038	64.8
0.009	0.003	0.0067	-0.003	64.7
0.0045	0.0015	0.009	-0.0023	64.5
-0.0015	0.0015	0.0082	-0.0015	64.4
-0.0023	-0.0008	0.006	-0.0008	64.5
0.0022	0.0015	0.0067	0.0007	64.3
0.0142	0.0022	0.006	-0.0008	64.5
0.0322	0.003	0.0045	-0.0008	64.2
0.0217	0.003	0.003	0.0007	64.2
-0.0046	0.0015	0.0015	0.0022	64.3
-0.0218	0.0022	0	0.0022	64
-0.0338	0.0007	-0.0008	0.0007	64
-0.0368	-0.0015	-0.0015	0.0007	64
-0.0383	-0.0015	-0.0046	-0.0008	63.8
-0.0383	-0.0008	-0.0038	-0.0015	64
-0.0181	-0.0015	-0.0038	-0.003	63.7
0.0052	-0.003	-0.006	-0.0023	63.7
0.0195	-0.0015	-0.0053	-0.003	63.5
0.0307	-0.0008	-0.0075	-0.0008	63.7
0.012	-0.0015	-0.0083	0	63.4
-0.027	-0.0053	-0.0083	-0.0023	63.5
-0.0158	-0.006	-0.006	-0.0038	63.4
0.0382	-0.006	-0.0053	-0.0068	63.1
0.0502	-0.0053	-0.0046	-0.0008	63.4
0.0247	-0.0046	-0.0046	0.0045	63
0.0142	-0.0046	-0.006	0.0045	63.2
0.024	-0.003	-0.006	0.0075	63
0.0352	-0.0015	-0.006	0.0082	63
-0.0075	-0.0008	-0.006	0.0082	63
-0.039	0	-0.0046	0.0082	62.8
-0.0233	0.0015	-0.0053	0.0082	62.7
-0.0098	0.0015	-0.0046	0.0082	62.7
0.0052	0.0022	-0.0015	0.0082	62.5
0.0007	0.0015	-0.0008	0.0082	62.7
-0.0346	0.0022	0.0007	0.0075	62.8
-0.0578	0.003	-0.0015	0.0075	62.4
-0.0233	0.0015	-0.0008	0.0052	62.4
0.009	0.0007	0.0015	0.0045	62.4
0.0105	-0.0008	-0.0008	0.0045	62.1
0.0247	0.0022	-0.003	0.0045	62.2
0.0127	0.0015	-0.003	0.0052	62.1
0.0075	0.0007	-0.0015	0.0052	62.1
0.0127	-0.0015	-0.0008	0.0045	62
0.0097	-0.0023	-0.0015	0.003	61.8
0.0172	0.0015	-0.0015	0.0022	61.7
0.018	0.0015	-0.0015	0.003	61.6
0.0142	0.0015	-0.0015	0.0045	61.7
0.0127	0.0015	0.003	0.0022	61.6
0.0097	0.0015	0.003	0.0007	61.4
0.009	0.0015	0.0037	0.0015	61.3
0.0082	0.0015	0.0052	0.0022	61.5
0.0195	0.0015	0.0037	0.0007	61.2
0.033	-0.0008	0.0037	0	61.2
0.0135	0.0007	0.003	0.0007	61.2
-0.0098	0.0007	0.003	0.0015	60.7
-0.0098	-0.0008	0.0037	0.0007	61.1
-0.0308	-0.0023	0.003	0.0015	60.8
-0.0518	-0.0023	0.0045	0.0015	60.8
-0.0525	-0.0023	0.0045	0.0007	60.8
-0.0458	-0.003	0.0052	0	60.5
-0.0278	-0.0023	0.0052	-0.0015	60.5
-0.0293	-0.0015	0.0067	0.0015	60.4
-0.0346	-0.0015	0.0082	0.0015	60.5
0.0067	-0.003	0.0097	-0.0008	60.3
0.0517	-0.0008	0.0112	-0.0008	60.3
0.0652	-0.0023	0.0127	0	60.1
0.054	-0.0015	0.012	0.0007	59.9
0.0375	-0.0008	0.0135	0.0037	59.9
0.0127	-0.0023	0.0135	0.0037	59.9
-0.015	-0.0023	0.012	0.003	59.8
-0.0308	-0.003	0.0105	0.0007	59.6
-0.0308	-0.0008	0.006	-0.0015	59.8
-0.0083	0.0007	0.003	-0.0023	59.6
0.021	-0.0008	0	-0.003	59.4
0.0337	0.0007	-0.0046	-0.0023	59.3
0.0255	0.0007	-0.0053	-0.0053	59.3
0.009	0.0022	-0.0068	-0.0053	59.2
-0.0181	0.0037	-0.0075	-0.0053	58.9
-0.0443	0.003	-0.006	-0.006	59
-0.0443	0.0015	-0.0053	-0.0046	59.1
0.003	0.0015	-0.0046	-0.0053	58.9
0.0367	-0.0015	-0.003	-0.006	58.9
0.0292	-0.003	-0.0008	-0.006	59
0.0247	-0.003	-0.0015	-0.0053	58.8
0.0105	-0.0023	-0.0023	-0.0046	58.8
0.0142	-0.0008	0	-0.0038	58.9
0.0082	0.0007	-0.0008	-0.0015	58.6
-0.0315	0.0007	0.0007	-0.0008	58.9
-0.042	-0.0008	0.003	-0.0015	58.7
0.0052	-0.0023	0.0022	-0.0038	58.6
0.06	-0.0008	0.0045	-0.0053	58.6
0.0382	-0.0015	0.0045	-0.0046	58.5
-0.0015	-0.0015	0.0022	-0.0038	58.4
-0.0383	-0.0015	-0.0023	-0.0046	58.7
-0.0473	-0.0015	-0.0046	-0.0046	58.5
-0.006	-0.0015	0	-0.0046	58.5
-0.0008	0	0.0015	-0.0046	58.3
0.0202	0.0007	0.0015	-0.0023	58.4
0.021	-0.0015	0.003	-0.0023	58.2
-0.021	0	0.0052	-0.0015	58.1
-0.0195	0.0007	0.0075	-0.0023	58
-0.0128	0.0007	0.0067	-0.0023	58
0.015	0.0015	0.0082	-0.0015	57.8
0.0465	0.0015	0.0097	-0.0008	57.9
0.0442	0.0015	0.0112	-0.0008	57.7
0.0502	0.0015	0.012	0	57.4
0.0427	0.0015	0.012	0.0007	57.4
0.0045	0.0007	0.0112	0.0007	57.4
-0.0368	-0.0038	0.0112	0.0007	57.2
-0.0765	-0.0008	0.009	-0.0008	57.2
-0.0795	0.0007	0.0105	-0.0008	57.1
-0.066	0.0015	0.0097	0.0007	57
-0.0653	0.0007	0.0082	0	56.8
-0.0218	-0.0008	0.0082	0.0007	56.8
0.0045	-0.0023	0.0075	0.0007	56.6
0.018	-0.003	0.0045	0.0015	56.7
0.0315	-0.003	0.0022	0.0015	56.4
0.018	-0.003	0.0007	0.003	56.5
0.0195	-0.0023	-0.0015	0.0015	56.3
0.018	-0.0015	-0.0046	-0.0008	56
0.0195	-0.0015	-0.0068	-0.0015	56.1
0.0052	-0.0015	-0.0105	-0.0015	55.9
-0.0181	0.0007	-0.0128	0	55.9
-0.03	0	-0.0128	0.0007	56
-0.0368	0.0007	-0.0128	0.0015	55.7
-0.024	-0.0008	-0.0135	0.0045	55.7
-0.0181	-0.0015	-0.012	0.0052	55.5
-0.012	-0.003	-0.0105	0.006	55.5
0.0052	-0.0038	-0.0083	0.0045	55.4
0.0502	-0.0023	-0.006	0.003	55.5
0.1365	-0.0008	-0.0083	0.003	55.2
0.165	-0.0008	-0.0068	0	55.4
0.1005	-0.0008	-0.0053	0	55.2
0.0405	0.0007	-0.0068	-0.0015	55.2
-0.0225	0.0015	-0.0091	-0.0038	55.3
-0.084	0.0007	-0.0098	-0.0038	55.1
-0.1448	0.0015	-0.0105	-0.0053	55.1
-0.1463	0.0015	-0.0068	-0.0068	55.1
-0.0638	-0.0008	-0.0023	-0.0053	55.1
-0.0503	0.0007	-0.0023	-0.0046	55.3
-0.0533	0.0022	-0.0015	-0.0038	55
-0.024	0.0015	0.0007	-0.0023	54.9
0.0367	0.0007	0.003	-0.0008	54.8
0.1065	-0.0008	0.0037	-0.0015	54.8
0.1117	0.0007	0.0037	-0.0008	54.6
0.0817	0.0015	0.003	-0.0015	54.6
0.0172	0.0007	0.0037	0	54.5
-0.0143	0	0.003	-0.0008	54.7
-0.0346	-0.0015	0.0015	-0.0015	54.5
-0.0518	-0.0015	-0.0015	0.0015	54.3
-0.0383	-0.0015	-0.0046	0.0015	54.3
-0.0158	0	-0.0046	0	54.2
0.0217	-0.0015	-0.0068	-0.0008	54
0.0165	-0.0015	-0.0075	0	54
0.0142	-0.0023	-0.0091	0	53.6
0.003	-0.0015	-0.0083	0.0007	53.6
-0.0225	0	-0.0091	0	53.6
-0.0233	0.003	-0.0091	0.0007	53.4
-0.0256	0.0105	-0.0083	0.0037	53.6
0.0015	0.0165	-0.0098	0.003	53.3
0.0322	0.0187	-0.0128	0	53.1
0.0555	0.0202	-0.0135	0.0015	53.1
0.0577	0.0165	-0.0143	0.0007	53.1
0.0127	0.015	-0.0143	0.0022	52.9
-0.024	0.0127	-0.0135	0.003	52.8
-0.0458	0.0105	-0.0113	0.0052	52.8
-0.0585	0.0082	-0.0091	0.009	52.7
-0.0383	0.0052	-0.0083	0.012	52.7
-0.027	0.0022	-0.006	0.0112	52.4
-0.024	-0.0008	-0.0038	0.009	52.5
-0.0195	-0.0015	-0.0008	0.0075	52.4
-0.0075	-0.0053	0.003	0.0022	52.4
-0.0075	-0.0091	0.0045	-0.0008	52.2
0.024	-0.0105	0.009	-0.003	52.2
0.075	-0.0113	0.009	-0.0046	52.1
0.0667	-0.0113	0.0097	-0.006	52
0.069	-0.012	0.0112	-0.0083	51.9
0.0517	-0.0105	0.012	-0.0083	52.1
0.0097	-0.0113	0.0127	-0.0068	51.9
-0.0195	-0.0091	0.0112	-0.006	51.7
-0.0233	-0.0091	0.0082	-0.0046	51.8
0.0067	-0.0105	0.0045	-0.0068	51.7
0.018	-0.0098	0.0007	-0.0068	51.5
0.0255	-0.0098	-0.0008	-0.0068	51.6
0.0367	-0.0083	-0.003	-0.0068	51.4
0.0607	-0.0075	-0.0053	-0.0053	51.4
0.0517	-0.0068	-0.006	-0.003	51.3
0.0022	-0.0068	-0.0091	0.0007	51.2
-0.0218	-0.0068	-0.0105	0.0007	51.3
-0.0293	-0.0038	-0.012	0.0015	51
0.0052	-0.0046	-0.0135	0.003	51.1
0.0562	-0.003	-0.0105	0.0015	50.9
0.0555	-0.003	-0.0083	0.003	50.8
0.0292	-0.0053	-0.006	0.0022	50.8
-0.0338	-0.0046	-0.003	0.0022	50.8
-0.1088	-0.006	-0.003	0.0045	50.6
-0.1515	-0.003	-0.0015	0.006	50.6
-0.1335	-0.0015	0.0007	0.0075	50.5
-0.081	-0.003	0.003	0.0045	50.4
-0.0608	-0.0008	0.006	0.003	50.4
-0.0428	-0.0008	0.0082	0.003	50
-0.0135	0.0022	0.0097	0.003	49.9
0.0037	0.003	0.0142	0.0007	50
0.027	-0.0008	0.0172	-0.0023	49.7
0.0435	-0.0015	0.0187	-0.0038	49.8
0.0397	-0.0023	0.0232	-0.003	49.8
0.0352	-0.0015	0.0247	-0.0038	49.6
0.0375	-0.003	0.024	-0.0053	49.5
0.0727	-0.0053	0.0202	-0.0068	49.5
0.0922	-0.0053	0.0165	-0.0068	49.4
0.0382	-0.003	0.0142	-0.0038	49.4
-0.0203	-0.0008	0.0105	-0.0015	49.4
-0.0518	0.0007	0.0067	0.0007	49.2
-0.066	0.003	0.0037	0.0015	49.1
-0.0563	0.0022	0.003	-0.0008	49
-0.0128	0.0007	0.0007	-0.0023	48.9
0.0307	0	-0.003	-0.0008	49.1
0.0165	-0.0015	-0.0068	0.0007	48.7
0.0142	-0.0023	-0.0113	0.0015	48.8
0.0165	-0.0008	-0.0135	0.003	48.6
0.009	0.0007	-0.0158	0.0007	48.6
0.0195	-0.0008	-0.0195	0.0007	48.6
0.0165	-0.0015	-0.0203	0.0007	48.5
0.0127	-0.0046	-0.024	-0.0008	48.5
-0.0158	-0.0046	-0.027	-0.0008	48.3
-0.0368	-0.0015	-0.0278	0	48.3
-0.0248	-0.0023	-0.0285	0	48.2
-0.0158	-0.0015	-0.0285	0.0007	48.2
0.0067	-0.003	-0.0293	0.0007	48
-0.0038	-0.003	-0.0256	-0.0008	48.1
-0.0188	-0.0015	-0.0181	0	48
0.018	0.0045	-0.0135	0.0007	47.8
0.0367	0.0075	-0.0113	0.0007	47.9
0.024	0.0045	-0.0068	0.0007	47.7
0.0202	0.003	-0.0053	0.0007	47.7
0.0195	0.0015	-0.0053	0	47.6
0.0082	0	-0.0038	-0.0023	47.6
-0.0053	-0.0015	-0.0053	-0.0008	47.6
-0.0083	-0.0008	-0.0038	-0.0008	47.4
0.0045	0.0007	-0.0008	0.0015	47.5
0.0465	-0.0008	0.0052	0.0015	47.3
0.0952	0	0.0105	0.0015	47.2
0.093	-0.0015	0.012	0.0015	47.1
0.0382	-0.0015	0.0127	0	47.2
-0.0128	-0.003	0.0045	-0.0008	47.3
-0.0758	-0.0046	-0.0083	-0.0008	47.1
-0.12	-0.0053	-0.0203	-0.0015	47.1
-0.0938	-0.0046	-0.0315	-0.0038	46.8
-0.033	0	-0.0398	-0.0053	47
-0.006	0.0007	-0.0383	-0.0046	46.8
-0.0135	0	-0.0308	-0.0038	46.8
-0.0046	0.0015	-0.0195	-0.003	46.8
0.0067	0.0015	-0.0105	-0.0023	46.7
0.0082	0.003	-0.0038	-0.0008	46.8
0.0022	0.0052	-0.0015	0.0007	46.8
0.0082	0.0045	0.0015	0.0022	46.5
0.033	0.003	0.0052	0.003	46.3
0.057	0.003	0.009	0.0022	46.4
0.0705	0.0015	0.0127	0.003	46.3
0.0502	0.0015	0.0142	0.003	46.2
0.0127	0.0015	0.0157	0.003	46.2
-0.0346	0.0022	0.0165	0.0022	46.1
-0.0848	0.0015	0.0195	0.0015	46.2
-0.0765	-0.0008	0.0195	0.0007	46
-0.0195	-0.0046	0.0202	-0.0023	45.9
0.0232	-0.0053	0.024	-0.003	45.9
0.0322	-0.0053	0.027	-0.0046	45.9
0.0457	-0.006	0.027	-0.0046	45.8
0.0352	-0.0046	0.0247	-0.003	45.9
-0.0218	-0.0023	0.0232	-0.0008	45.8
-0.0458	-0.0008	0.0202	-0.0008	45.7
-0.0263	0	0.0165	0.0007	45.6
0.0015	-0.0008	0.0165	0	45.7
0.0315	0.0007	0.0135	0.0007	45.5
0.0427	0.0007	0.0142	-0.003	45.6
0.018	0	0.0127	-0.006	45.4
-0.0053	0.003	0.0112	-0.0015	45.4
0.0105	0.003	0.0105	-0.0008	45.3
-0.003	0.0015	0.0075	0.0007	45.3
-0.0248	0.003	0.0082	0.0045	45.3
-0.0405	0.0007	0.009	0.0037	45
-0.054	0.0022	0.009	0.0052	45.1
-0.0195	0.003	0.009	0.0052	45
0.0255	0.0007	0.0105	0.0015	44.8
0.033	-0.0008	0.012	0.0015	44.9
-0.0203	-0.0015	0.0127	0.0015	44.7
-0.0818	-0.0008	0.015	0.0022	45
-0.09	0	0.0135	0.0022	44.9
-0.0503	-0.0015	0.0112	0.0007	44.5
-0.0135	-0.0023	0.009	-0.0008	44.5
-0.0091	-0.0008	0.0037	0.0015	44.7
-0.0068	0	0.0007	0.003	44.4
0.0105	-0.0015	-0.003	0.0022	44.6
0.0517	0.0007	-0.006	0.003	44.2
0.0877	0.0007	-0.0068	0.0015	44.3
0.0892	-0.0038	-0.0068	0.0007	43.9
0.0517	-0.0068	-0.0075	0.0007	44.1
0.0157	-0.006	-0.0068	0.0007	44
-0.006	-0.0075	-0.0068	-0.0015	44
-0.0315	-0.0083	-0.0046	-0.003	44
-0.0495	-0.0068	-0.0046	-0.0008	43.9
-0.0278	-0.0053	-0.0068	0	43.9
0.018	-0.0053	-0.006	-0.0008	43.6
0.0345	-0.0046	-0.0075	0.0015	43.5
0.048	-0.0038	-0.0098	0.0045	43.6
0.057	0	-0.0083	0.0052	43.4
0.0367	0	-0.006	0.0045	43.4
-0.0218	-0.0008	-0.0053	0.003	43.3
-0.075	0	-0.0038	0.0022	43.4
-0.0615	0.0015	-0.0053	0.0015	43.5
-0.0158	0.0067	-0.0053	0.0007	43.3
0.0202	0.0097	-0.0023	-0.0008	43.4
0.0667	0.0097	0.0007	-0.003	43.3
0.0772	0.006	0.006	-0.0038	43.3
0.0277	0.0045	0.0067	-0.0038	43.1
0.009	0.003	0.0037	-0.003	43.1
0.0105	0.0007	0.0045	-0.0046	43.2
0.0067	-0.0008	0.0052	-0.0053	43
0.0112	-0.0015	0.006	-0.0038	43.1
-0.0008	-0.0015	0.0045	-0.003	43.1
-0.0225	0	-0.003	-0.0015	43
-0.0503	0.0022	-0.0046	0.0007	42.9
-0.0593	0.0037	-0.0083	0.003	42.7
-0.0398	0.0022	-0.012	0.0052	42.9
-0.0068	0.0045	-0.0083	0.0067	42.6
0.0105	0.0052	-0.006	0.0067	42.7
0.0217	0.0045	-0.0038	0.0045	42.6
0.0405	0.0015	-0.0023	0.0015	42.7
0.0225	0.0015	0.003	0.0007	42.6
0.0232	0.0015	0.0075	0.0007	42.5
0.0405	-0.0015	0.0112	0	42.7
0.0465	-0.0015	0.0142	0	42.4
0.0495	-0.0015	0.0172	0	42.3
0.0112	0.0007	0.0217	-0.0008	42.3
-0.0443	0.0015	0.027	0.0007	42.3
-0.0503	0.0007	0.0307	-0.0015	42.3
0.003	0.0007	0.033	-0.0038	42.1
0.0375	-0.0015	0.036	-0.003	42.2
0.0225	-0.0038	0.0292	-0.0038	42
-0.0353	-0.0023	0.0157	-0.0008	42
-0.0915	-0.0008	0.0037	-0.0008	42.1
-0.0848	0	-0.0091	-0.0023	41.9
-0.048	-0.0008	-0.0195	-0.003	41.9
-0.0135	-0.003	-0.0203	-0.0038	41.7
-0.024	-0.0008	-0.0128	-0.0038	41.6
-0.0278	0	-0.0023	-0.0046	41.7
-0.0015	0.0045	0.003	-0.0038	41.4
0.0135	0.0007	0.0037	-0.003	41.8
0.0045	-0.0015	0.0022	0	41.4
-0.0053	0.0007	-0.0015	0.0022	41.6
-0.0008	-0.0015	-0.003	0.0022	41.4
-0.003	-0.0008	-0.0068	0.003	41.4
0.0105	-0.0008	-0.0068	0.0037	41.4
0.0262	-0.0008	-0.0068	0.0037	41.1
0.0382	-0.0015	-0.0083	0.0007	41.1
0.0427	-0.0023	-0.0053	-0.0015	41.1
0.033	-0.0008	-0.003	-0.0053	41
0.0195	-0.003	0.0015	-0.012	41
0.0007	-0.003	0.006	-0.0128	40.9
-0.0143	-0.0053	0.0082	-0.0075	40.9
0.0045	-0.0068	0.009	-0.0068	40.7
0.0367	-0.0046	0.0052	-0.0068	40.9
0.0592	-0.003	-0.0046	-0.0023	40.7
0.0862	-0.0008	-0.0135	-0.0015	40.7
0.0487	-0.0008	-0.0233	-0.0015	40.7
-0.0346	-0.003	-0.0293	-0.0008	40.5
-0.093	-0.003	-0.0278	0.003	40.6
-0.1365	-0.0023	-0.0225	0.0045	40.4
-0.0975	-0.0046	-0.0195	0.0052	40.3
-0.0248	-0.0038	-0.0225	0.0067	40.5
-0.0075	-0.0023	-0.03	0.0052	40.2
-0.0068	-0.003	-0.033	0.0067	40.2
0.0015	-0.0023	-0.0346	0.0067	40
0.0075	-0.0015	-0.0346	0.0067	40
-0.0046	-0.0008	-0.0233	0.0045	40
-0.0083	-0.0015	-0.0113	0.0052	39.8
-0.0068	-0.0008	-0.0098	0.0067	40
-0.0015	0.0015	-0.0083	0.0075	39.6
0.0075	0.0022	-0.0113	0.0075	39.7
0.012	0.003	-0.0105	0.0045	39.6
0.0172	0.0037	0	0.0037	39.6
0.0157	0.0045	0.012	0.0015	39.6
0.0187	0.0052	0.0202	0.003	39.6
0.0172	0.0052	0.021	0.0037	39.4
0.0082	0.003	0.018	0.0015	39.3
-0.0188	0.0022	0.0112	-0.0015	39.3
-0.0285	0	0.003	-0.0023	39.4
0.0037	-0.0008	-0.0068	-0.003	39.1
0.0345	-0.0023	-0.0128	-0.006	39.2
0.054	-0.0046	-0.0053	-0.006	39.1
0.0532	-0.0038	0.0037	-0.0046	39.2
0.0472	-0.0038	0.0067	-0.0046	39
0.0555	-0.0046	0.0067	-0.0053	38.8
0.0697	-0.0046	0.003	-0.006	39
0.075	-0.0046	-0.0015	-0.0053	38.8
0.036	-0.0046	-0.0091	-0.0046	38.8
-0.012	-0.0053	-0.0181	-0.0023	38.5
-0.0653	-0.0046	-0.0165	-0.0023	38.7
-0.1208	-0.003	-0.0098	-0.003	38.7
-0.105	-0.003	-0.003	-0.0008	38.6
-0.033	-0.0008	0.0045	0.0015	38.6
0.018	0	0.0127	0.0022	38.5
0.0232	0.0015	0.015	0.0037	38.4
0.0157	0.0007	0.0112	0.0015	38.4
0.024	0.0015	0.0105	0.0007	38.2
0.0705	0.0015	0.0112	-0.003	38.3
0.105	0.0015	0.0105	-0.0053	38.1
0.0675	0.0037	0.0082	-0.0053	38.1
-0.0181	0.0045	0.0105	-0.0038	37.9
-0.1035	0.0052	0.0097	-0.0015	37.9
-0.1245	0.0037	0.0105	-0.0023	37.9
-0.078	0.0045	0.0105	-0.0008	37.7
-0.0323	0.006	0.0075	-0.0008	37.9
-0.0353	0.0045	0	-0.0015	37.6
-0.033	0.0037	-0.0105	-0.0015	37.5
-0.0068	0.0015	-0.0188	0.0007	37.5
0.0247	-0.0008	-0.0225	0.0015	37.5
0.036	-0.0008	-0.024	0	37.3
0.0127	-0.0015	-0.0263	-0.0015	37.3
0.0052	-0.0023	-0.0256	-0.0015	37.2
0.003	-0.0015	-0.0263	-0.0015	37.3
0.012	-0.0023	-0.0233	-0.0023	37
0.0172	-0.0046	-0.0143	-0.0053	37.2
0.0277	-0.0053	-0.0068	-0.006	36.9
0.0315	-0.006	0	-0.0068	37
0.0052	-0.006	0.0067	-0.0053	36.9
-0.0098	-0.0053	0.0105	-0.0023	36.9
-0.0375	-0.0053	0.0127	0.0015	36.8
-0.0488	-0.003	0.012	0.006	36.7
-0.0256	0.0007	0.0045	0.0082	36.9
0.003	0.0015	-0.0091	0.0067	36.5
0.0127	0.003	-0.0233	0.0052	36.5
0.0277	0.0045	-0.0413	0.0052	36.5
0.0502	0.0045	-0.0436	0.003	36.4
0.0525	0.003	-0.0361	0.0015	36.4
0.051	0	-0.0413	0.0007	36.2
0.0202	-0.0015	-0.0353	0	36.2
-0.0428	-0.0023	-0.0158	0.0015	36.2
-0.1013	-0.0038	0.0015	0	36.1
-0.111	-0.0046	0.0135	-0.0015	35.9
-0.0615	-0.0053	0.0217	-0.0023	35.9
-0.0135	-0.0068	0.0292	-0.0046	36
0.003	-0.0075	0.0375	-0.0068	35.8
-0.0091	-0.0068	0.0465	-0.0053	35.8
-0.0015	-0.0015	0.0465	-0.0038	35.8
0.018	0.0037	0.0405	-0.003	35.5
0.0127	0.0015	0.0315	-0.0008	35.7
0.0045	-0.0015	0.0225	0	35.5
-0.012	0.0015	0.0217	0.0007	35.5
-0.0233	0	0.021	0.0015	35.5
-0.0008	0.0015	0.0165	0.0022	35.4
0.027	0.0015	0.0105	0.0015	35.5
0.0465	0.0007	0.006	0	35.2
0.0525	0.0045	0.0037	0.0015	35.3
0.0435	0.003	0.0067	0.0007	35.1
0.0382	0.0007	0.0082	-0.0008	35.1
0.027	-0.0015	0.003	0	35.1
0.009	-0.003	0.006	0.0015	35.1
0.024	-0.0046	0.0157	0.003	35.1
0.0592	-0.003	0.0225	0.003	34.9
0.0615	0.0007	0.0277	0.0015	35.1
0.0502	0.0007	0.0367	0.0022	34.7
0.0502	-0.0008	0.042	0.0007	34.7
0.0157	-0.0015	0.0427	0.0007	34.5
-0.0278	0.0022	0.0405	0.0015	34.6
-0.0511	0.0037	0.0345	0.0007	34.6
-0.054	0.0045	0.027	0.0022	34.6
-0.0203	0.0045	0.0127	0.0022	34.4
-0.0015	0.0052	-0.0038	0.003	34.6
-0.0015	0.0045	-0.0083	0.0045	34.3
0.003	0.0007	-0.0053	0.003	34.3
0.0045	0.0015	-0.0068	0	34.2
0.0007	-0.0008	-0.0015	-0.0015	34.2
0.0015	-0.0008	0.0067	0	34.2
0.0045	-0.0015	0.0105	-0.003	33.9
0.0022	-0.0046	0.0142	-0.0046	34
-0.0015	-0.0053	0.0142	-0.0015	33.8
0.0045	-0.0008	0.0097	-0.0008	33.9
0.0345	0.003	0.0015	0.003	33.6
0.0615	0.0037	-0.0075	0.0045	33.7
0.039	0.0045	-0.0188	0.003	33.6
-0.0203	0.0022	-0.0443	0.0052	33.6
-0.0563	0	-0.0668	0.0052	33.6
-0.0428	-0.0015	-0.0675	0.003	33.6
0.0067	-0.0046	-0.06	0.0015	33.3
0.042	-0.0038	-0.0548	0.0007	33.6
0.0127	-0.003	-0.0548	-0.0008	33.1
-0.0346	-0.0023	-0.0473	-0.003	33.6
-0.0758	-0.0015	-0.027	-0.0046	33
-0.0871	-0.003	-0.0068	-0.003	33.3
-0.0315	-0.0046	0.0075	-0.0046	33.2
-0.0143	-0.003	0.0165	-0.0083	33.2
-0.0563	-0.0023	0.0232	-0.0098	33.1
-0.0856	-0.0023	0.033	-0.0083	32.9
-0.0788	-0.0008	0.0367	-0.0046	33
-0.0436	0.0007	0.033	-0.0008	32.7
0.006	0.0037	0.0292	0.0015	32.9
0.0495	0.0052	0.0165	0.0022	32.7
0.0427	0.0067	-0.0046	0.0045	32.5
0.0427	0.0067	-0.0293	0.0067	32.4
0.0465	0.003	-0.0495	0.0067	32.5
0.0195	-0.0015	-0.0503	0.0045	32.2
0.0022	-0.0038	-0.0248	0.0022	32.4
-0.0105	-0.003	0.009	0.003	32.2
0.0037	-0.0008	0.033	0.0052	32.2
0.0142	0.003	0.039	0.0052	32.1
0.0232	0.003	0.0352	0.0052	32.1
0.033	0.0007	0.03	0.003	32
0.027	-0.0046	0.018	-0.0008	31.9
0.027	-0.0068	0.0142	-0.0008	31.9
0.021	-0.0046	0.0187	0	31.7
0.0217	-0.0053	0.0232	0.0015	31.9
0.0232	-0.0023	0.0292	0.0022	31.9
0.0157	-0.0046	0.0345	0.003	31.7
0.012	-0.0053	0.0157	0.0022	31.7
0.0015	-0.0015	-0.012	0.003	31.5
-0.0015	0.0052	-0.021	0.003	31.6
0.0082	0.003	-0.0263	0.0015	31.5
0.0127	-0.0053	-0.0256	0.0007	31.5
0.0052	-0.0083	-0.0225	0.0015	31.4
-0.0091	-0.0083	-0.024	0.0015	31.4
-0.039	-0.0053	-0.033	-0.0023	31.3
-0.0488	-0.0068	-0.0398	-0.0015	31.2
-0.0181	-0.0068	-0.0398	0.0052	31.3
0.0105	-0.0008	-0.0346	0.006	31.2
0.027	0.009	-0.0218	0.0067	31.1
0.027	0.0082	-0.0143	0.0045	31.2
0.0255	-0.0053	-0.0098	0	31
0.0337	-0.0068	-0.003	0.0007	31
0.0195	-0.0038	-0.0008	0	31
-0.0083	-0.003	0.0045	-0.0008	30.7
-0.015	-0.003	0.012	-0.0023	30.8
-0.0053	-0.003	0.012	-0.0046	30.6
-0.0143	0	0.015	-0.0046	30.5
-0.0518	0.0015	0.0127	-0.0038	30.6
-0.0645	0.0045	0.009	-0.0015	30.5
-0.0518	0.003	0.0037	-0.0015	30.4
-0.024	0.0015	-0.003	-0.003	30.2
0.0015	0.0015	-0.0068	-0.003	30.3
0.0127	-0.0008	-0.012	-0.003	29.8
0.0165	-0.0008	-0.0158	-0.0023	30.1
0.021	-0.0053	-0.0203	-0.0046	29.8
0.0202	-0.0075	-0.0195	-0.0046	29.8
0.0082	-0.0053	-0.0053	-0.003	29.8
0.009	-0.0038	0.0075	-0.0046	29.7
0.003	-0.0008	0.0127	-0.0046	29.6
0.0045	-0.003	0.018	-0.0046	29.6
0.0157	-0.0046	0.018	-0.0046	29.5
0.0202	-0.003	0.0157	-0.003	29.5
0.03	-0.003	0.0157	-0.0015	29.3
0.0292	-0.003	0.0187	-0.0015	29.4
0.0315	-0.0023	0.0217	0.0007	29.2
0.03	0.0007	0.018	0.0007	29.2
0.0225	0.0007	0.0105	0.0015	29.2
0.0105	-0.003	-0.0015	0.0022	29
-0.0113	-0.0053	-0.0128	0.0052	29
-0.0256	-0.0046	-0.0203	0.0067	29
-0.0308	-0.0046	-0.0195	0.009	29
-0.0233	-0.006	-0.0098	0.0105	28.8
-0.0188	-0.006	-0.015	0.0097	28.8
-0.0128	-0.0046	-0.0293	0.0105	28.8
-0.0053	-0.003	-0.0413	0.0082	28.8
-0.0008	-0.003	-0.0428	0.0045	28.5
0.003	-0.0015	-0.0323	0.0022	28.5
0.012	0.0007	-0.0165	0	28.3
0.0255	0.0045	0.0007	0	28.6
0.042	0.009	0.0165	-0.0015	28.2
0.0382	0.006	0.0322	-0.0046	28.4
0.0127	0.003	0.0405	-0.0046	28.2
-0.0015	0.0015	0.0472	-0.003	28
-0.0158	0.003	0.0555	-0.0008	28.1
-0.0383	0.0082	0.0577	0.0045	27.9
-0.0405	0.0082	0.0502	0.0052	27.9
-0.0158	0.0082	0.0397	0.003	27.8
-0.0113	0.0045	0.033	0.0045	27.8
-0.027	0.003	0.0315	0.003	27.6
-0.0293	0.0037	0.0232	-0.0008	27.6
-0.0338	0.0015	0.006	-0.0023	27.5
-0.0225	0.0022	-0.0105	-0.0023	27.5
-0.0105	0.0015	-0.0218	-0.0015	27.4
-0.0068	0.0007	-0.0248	-0.0046	27.3
0.0015	-0.0008	-0.0315	-0.006	27.2
0	0.0007	-0.0405	-0.003	27.3
0.0037	0.006	-0.042	0	27
0	0.0045	-0.0375	0	27.1
-0.0015	0.0067	-0.0458	0.0045	26.9
0.0022	0.0097	-0.0585	0.0082	27
0.0135	0.012	-0.048	0.0075	26.9
0.0352	0.012	-0.0218	0.0082	26.8
0.036	0.0105	0.0075	0.0082	27
0.0202	0.0082	0.0292	0.0082	26.6
0.0157	0.0045	0.048	0.0052	26.8
-0.0038	0.006	0.0615	0.0007	26.6
-0.0458	0.0045	0.0592	-0.006	26.7
-0.0563	0.0037	0.0442	-0.0165	26.5
-0.0256	0.0045	0.0097	-0.0173	26.5
0.0082	0.0007	-0.0181	-0.012	26.5
0.0097	-0.0091	-0.0203	-0.0128	26.3
0.003	-0.0091	-0.0278	-0.0083	26.1
0.012	-0.0068	-0.0165	-0.0046	26.2
0.0045	-0.0113	0.0142	-0.006	26.1
0.0052	-0.0091	0.0277	-0.0046	26.1
0.0082	-0.0015	0.033	-0.0023	26
-0.003	0.0075	0.0277	0	25.9
-0.0075	0.0165	0.0142	0.0007	26
-0.0113	0.009	0.012	-0.003	25.8
-0.0188	0.0007	0.0052	-0.003	26
-0.0248	-0.0008	0.0007	-0.0015	25.6
-0.0248	0.0015	-0.0083	0.0022	25.6
-0.0113	0.0067	-0.0188	0.0052	25.4
0.0045	0.0052	-0.0315	0.003	25.4
0.0195	0.0015	-0.0458	-0.0015	25.4
0.048	0.0007	-0.0383	-0.003	25.2
0.0615	0	-0.0075	-0.0038	25.2
0.0465	0.0007	0.018	-0.0046	25.3
0.015	0.003	0.027	-0.0038	25.1
-0.0128	0.0022	0.0307	-0.0015	25.2
-0.0008	0.0007	0.0277	-0.0008	25.1
0.0202	-0.0008	0.0202	-0.003	25
0.0202	0.0007	0.0232	-0.0038	24.8
0.0285	0.0015	0.033	-0.0038	24.8
0.0352	-0.0038	0.0232	-0.0053	24.8
0.0352	-0.0046	-0.0091	-0.0046	24.7
0.0277	-0.0046	-0.0368	-0.0015	24.7
0.006	-0.0046	-0.0495	0.0015	24.7
-0.0128	-0.0038	-0.0518	0.0015	24.7
-0.0398	-0.003	-0.0353	0.0007	24.6
-0.0533	-0.003	-0.0143	0.0007	24.4
-0.0278	-0.0053	-0.0113	-0.0038	24.4
0.0015	-0.003	-0.0053	-0.0075	24.4
0.0007	-0.0053	0.0112	-0.0068	24.4
-0.0143	-0.0068	0.0232	-0.0053	24.5
-0.0075	-0.0068	0.024	-0.006	24.1
0.0127	-0.0075	0.0225	-0.0046	24.3
0.0187	-0.0053	0.0172	-0.0008	24.1
0.0202	-0.0053	0.015	0.0037	24.2
0.0307	-0.0053	0.0157	0.0045	24
0.0277	-0.0053	0.0105	0.0045	24
0.024	-0.0053	-0.0113	0.0045	24
0.0225	0.0015	-0.0518	0.0052	23.7
0.0157	0.0015	-0.105	0.003	23.8
0.0157	-0.003	-0.1313	-0.0015	23.6
0.003	-0.0053	-0.0953	-0.0046	23.5
-0.0083	-0.0068	-0.054	-0.0068	23.5
-0.0038	-0.0046	-0.0218	-0.0046	23.3
-0.0008	-0.003	-0.0053	-0.003	23.5
0.003	-0.0023	0.0052	-0.003	23.3
0.0187	0.0007	0.0187	-0.0023	23.5
0.0255	-0.0008	0.0315	-0.0015	23.3
0.0045	-0.0023	0.0495	0.0007	23.2
-0.0353	0.0007	0.0525	0.0037	23.2
-0.0645	0.0007	0.0502	0.0015	23
-0.0555	0.0007	0.039	0.0015	23.2
-0.0203	0.003	0.0067	0.003	22.9
-0.0098	0.0007	-0.0338	0.0007	22.9
-0.0181	0.003	-0.0555	0.0007	22.9
-0.0173	0.0052	-0.0533	0.0007	22.9
-0.021	0.0022	-0.042	0.0015	22.8
-0.0248	0.0015	-0.0105	0.0007	22.8
-0.0256	-0.0008	0.0217	-0.003	22.5
-0.024	-0.0038	0.0352	-0.0008	22.8
-0.0075	0	0.03	0.0007	22.5
0.0052	0.0045	0.027	0	22.8
0.0105	0.0015	0.0052	0.0007	22.5
0.0172	-0.0008	-0.042	0.0007	22.5
0.015	-0.003	-0.078	0.0045	22.5
0.0157	-0.0015	-0.09	0.009	22.3
0.0232	-0.0008	-0.0428	0.009	22.3
0.0315	-0.0015	-0.0091	0.0067	22.2
0.0345	-0.003	0.0022	0.006	22.5
0.027	-0.0053	0.024	0.003	22.2
0.0157	-0.0046	0.0247	-0.0008	22.3
0.0015	-0.0046	0.0375	-0.0015	22.1
-0.0165	-0.0053	0.0457	-0.0038	22.1
-0.0405	-0.0046	0.054	-0.0046	21.9
-0.0638	0.0015	0.0457	-0.0046	22
-0.0518	0.0082	0.0067	-0.0023	21.9
-0.0195	0.0007	-0.0383	-0.0015	21.9
-0.0038	-0.0046	-0.0863	-0.0008	21.8
0.0195	-0.0046	-0.075	0.0007	22
0.0412	-0.0068	-0.0346	0.0015	21.6
0.0255	-0.003	-0.0165	-0.0023	21.6
-0.003	-0.0038	0.0015	-0.0038	21.8
-0.0293	-0.003	0.0172	-0.0008	21.5
-0.0578	0.0045	0.0255	0.0015	21.6
-0.0765	0.0105	0.0352	0.0037	21.5
-0.0593	0.003	0.0382	-0.003	21.5
-0.0278	-0.0091	0.0405	-0.0143	21.2
-0.0053	-0.0075	0.0382	-0.0105	21.2
0.0157	-0.0075	0.0307	-0.0015	21.2
0.027	-0.0068	0.0202	0.0015	21.1
0.0435	-0.0068	0.0127	0.003	21.2
0.0585	-0.0091	0.0052	0.0052	21.2
0.069	-0.0075	0.0082	0.0052	21
0.0615	-0.0068	0.0292	0.0052	21.1
0.0292	-0.0083	0.057	0.0015	20.7
0.0105	-0.0083	0.084	0.0045	20.8
0.0015	-0.0015	0.0825	0.0067	20.7
-0.0068	0.0007	0.0532	0.0022	20.9
-0.0053	-0.003	0.0015	-0.0068	20.6
0.0075	-0.006	-0.075	-0.0128	20.7
-0.0008	-0.0015	-0.1283	-0.0091	20.6
-0.0203	-0.003	-0.1223	-0.0075	20.5
-0.0008	-0.0038	-0.0871	-0.0046	20.5
0.0367	-0.0046	-0.0788	-0.003	20.3
0.033	-0.0038	-0.0878	-0.0053	20.3
0.018	0.0022	-0.0803	-0.003	20.3
-0.0015	0	-0.048	-0.0015	20.4
-0.0143	-0.006	-0.0091	-0.0008	20.3
-0.012	-0.0068	0.0255	0.0007	20.2
-0.0128	-0.0038	0.0652	0.0037	20.4
-0.0038	-0.0008	0.0975	0.0045	20.2
-0.0068	0.0045	0.1095	0.0052	19.9
-0.0046	0.0037	0.1027	0.0082	20
0.0022	0.0015	0.0645	0.0075	19.8
-0.0091	0.0045	0.0195	0.0075	20.1
0.0045	0.0045	-0.012	0.012	19.6
0.0292	0.0075	-0.039	0.0157	19.8
0.051	0.006	-0.0578	0.0082	19.7
0.0502	0.0052	-0.0615	-0.0053	19.6
0.0202	0.006	-0.0458	-0.0046	19.5
-0.0083	0.0045	-0.003	-0.0083	19.6
-0.0278	0.003	0.03	-0.0165	19.6
-0.0353	0.003	0.0285	-0.0158	19.4
-0.0368	0.003	0.012	-0.0113	19.4
-0.0256	0.0007	0.0015	-0.0083	19.5
0.003	-0.0015	0.0187	-0.006	19.3
0.0232	-0.0053	0.0105	-0.003	19.4
0.0097	-0.0053	-0.003	-0.0046	19.3
-0.0008	-0.0015	-0.0015	-0.0008	19.1
0.0022	0.0052	-0.0091	0.0052	19.2
-0.0075	0.009	0.0045	0.0075	19
0.0015	0.0052	0.0165	0.0067	19
0.0202	-0.0023	0.0247	-0.0008	19
0.0232	-0.006	0.0285	-0.0083	19
0.0195	-0.0091	0.0345	-0.0075	18.9
0.0157	-0.012	0.057	-0.0023	18.9
-0.0015	-0.0128	0.084	-0.0008	18.9
-0.0293	-0.0091	0.1005	0.0015	18.7
-0.0405	0.0015	0.111	0.0052	18.6
-0.033	0.0112	0.1147	0.009	18.7
-0.0181	0.0067	0.0705	0.009	18.4
-0.012	-0.003	-0.0195	0.0052	18.5
-0.0046	-0.0046	-0.0975	0.0052	18.3
0.0045	-0.0046	-0.1035	0.0045	18.5
0.0067	-0.0053	-0.0593	0.0045	18.4
0.0135	-0.0068	-0.042	0.0037	18.3
0.024	-0.0091	-0.0233	0.003	18.4
0.033	-0.0023	0.009	0.0045	18.2
0.0315	0.0015	0.0225	0.003	18.2
0.024	-0.0008	0.0277	0.0045	18.1
0.027	0.0022	0.0292	0.0037	18.1
0.0397	-0.0008	0.0202	0.003	18
0.042	-0.0053	0.0015	0.0015	17.8
-0.0068	-0.0038	0.0015	0	17.9
-0.096	0.0037	0.0285	0.0045	17.9
-0.1568	0.0142	0.0532	0.0052	17.7
-0.1538	0.0127	0.075	0.0052	17.9
-0.1253	0.0015	0.0922	0.0052	17.7
-0.1028	-0.0053	0.09	0.0082	17.9
-0.0638	-0.003	0.0517	0.0082	17.5
-0.0308	0.003	-0.039	0.0045	17.5
-0.003	0.0037	-0.15	0.006	17.5
0.0352	0.0022	-0.1703	0.0037	17.5
0.0457	0.0015	-0.0975	0.0015	17.4
0.039	0.0007	-0.0346	-0.0015	17.3
0.0292	-0.0015	0.0045	-0.0053	17.5
0.0225	-0.0068	0.027	-0.0046	17.2
0.0225	-0.0105	0.039	-0.0068	17.4
0.0195	-0.0091	0.0427	-0.006	17.2
0.0315	-0.0075	0.0315	-0.0015	17.2
0.042	-0.0053	0.0315	-0.003	17.1
0.0412	-0.003	0.0195	-0.0038	17.2
0.0345	-0.0008	0.0052	-0.003	17
0.0397	0.0037	0.009	-0.0015	17
0.0472	0.0067	0.024	-0.0046	16.9
0.0345	0.015	0.0367	-0.0053	17
0.0127	0.0157	0.0435	-0.0075	16.7
-0.0075	0.0075	0.0397	-0.0083	17
-0.0195	0.0067	-0.003	-0.0046	16.6
-0.012	0.0045	-0.0668	-0.003	16.7
-0.0015	0.0045	-0.0938	-0.003	16.7
-0.0091	0.0052	-0.0503	-0.0038	16.5
-0.0368	0.003	-0.012	-0.0038	16.7
-0.0458	0.003	-0.0203	-0.003	16.4
-0.0181	0	-0.0233	-0.0015	16.4
0.0142	-0.0046	-0.0083	-0.003	16.4
0.0495	-0.0105	-0.0008	-0.0038	16.3
0.0697	-0.0098	-0.003	0	16.3
0.0577	-0.0053	0.018	0	16.2
0.054	-0.0083	0.0352	-0.0023	16.2
0.0495	-0.0083	0.0502	0.0007	16.3
0.0345	-0.0075	0.06	-0.003	16.2
0.0142	-0.0105	0.0277	-0.0068	16.2
-0.0203	-0.0165	0.0285	-0.0068	15.9
-0.0555	-0.0135	0.0705	-0.0068	16.2
-0.0428	-0.003	0.0705	-0.003	16
-0.0158	-0.0083	0.0435	0.0007	16.1
-0.015	-0.0008	-0.0128	0.0067	15.8
-0.012	0.0105	-0.0871	0.009	15.8
-0.0165	0.0067	-0.1268	0.0045	15.8
-0.0465	0.0082	-0.1538	0.0015	15.8
-0.0675	0.0082	-0.1365	0.003	15.7
-0.0405	0.0082	-0.1065	0.0037	15.6
0.0157	0.0015	-0.0563	-0.0015	15.6
0.0405	-0.0075	0.0052	-0.0038	15.8
0.0337	-0.006	0.0157	-0.0015	15.4
0.027	-0.0023	0.0157	0.003	15.6
0.0405	-0.0015	-0.0173	0.0067	15.4
0.0592	-0.003	-0.045	0.0082	15.4
0.066	-0.0015	-0.0443	0.0052	15.4
0.063	-0.0015	-0.0293	0.0015	15.4
0.0495	-0.0038	-0.0046	-0.0015	15.3
0.024	-0.0083	0.015	-0.0105	15.3
-0.0203	-0.0128	0.0517	-0.0128	15.3
-0.0458	-0.0113	0.0622	-0.0075	15.2
-0.042	-0.0068	0.0495	-0.0038	15.3
-0.015	0.0022	0.0172	0.003	15.1
0.0375	0.0142	-0.0398	0.0067	15
0.048	0.0082	-0.0938	0.0097	15
0.0202	0.0007	-0.0975	0.0097	14.9
-0.0046	-0.0015	-0.0518	0.0067	15
-0.0443	-0.0015	-0.015	0.0105	15
-0.063	0.0082	0.0232	0.0112	14.7
-0.0623	0.0007	0.0487	0.012	15.1
-0.0593	0.0015	0.0682	0.0105	14.6
-0.0525	0.009	0.057	0.0075	14.9
-0.0638	0.003	-0.0098	0.006	14.7
-0.0458	0.0022	-0.0735	0.0045	14.6
-0.0023	0.0015	-0.057	0.0037	14.7
0.0202	0.0045	0.0045	0.0015	14.4
0.0405	-0.0053	-0.0091	-0.003	14.6
0.0495	-0.012	-0.057	-0.006	14.4
0.039	-0.012	-0.1118	-0.006	14.5
0.021	-0.0135	-0.1426	-0.0083	14.5
0.0052	-0.0113	-0.1335	-0.0053	14.4
-0.003	-0.0075	-0.111	-0.0008	14.4
-0.0233	-0.0068	-0.0518	-0.003	14.3
-0.0436	-0.012	-0.0218	-0.006	14.2
-0.0256	-0.0135	-0.0105	-0.0091	14.1
0.0157	-0.0135	0.003	-0.0098	14.1
0.0345	-0.0181	0.021	-0.0083	14.1
0.0405	-0.0195	0.0555	-0.0068	14
0.0315	-0.0158	0.084	-0.003	14
0.0045	-0.0105	0.1215	-0.003	14
-0.0233	-0.0113	0.135	-0.0008	14
-0.0203	-0.0091	0.1387	0.0022	13.9
-0.0218	-0.0008	0.1215	0.0037	13.8
-0.048	0.009	0.06	0.0075	13.9
-0.0285	0.012	0.0097	0.0135	13.8
-0.0091	0.0142	-0.0405	0.0165	13.7
-0.012	0.009	-0.0765	0.0172	13.6
-0.0053	-0.0015	-0.0893	0.0142	13.7
-0.0046	-0.0046	-0.0795	0.015	13.8
0.0067	-0.0023	-0.045	0.018	13.5
-0.003	-0.0015	-0.0128	0.0165	13.6
-0.0135	-0.0083	-0.0105	0.0127	13.5
0.0015	-0.0105	-0.0038	0.012	13.6
0.0172	-0.0015	0.0285	0.009	13.6
0.0367	0.003	0.0495	0.0067	13.4
0.033	0.006	0.03	0.0075	13.4
0.0165	0.0037	-0.0533	0.009	13.2
0.0165	0.003	-0.1185	0.0082	13.5
0.024	0.0052	-0.0818	0.0052	13.2
0.015	0.0052	-0.0195	0	13.3
0.0142	0.0097	0.0127	0	13.3
0.0105	0.0142	0.0315	0.0022	13.1
-0.0068	0.0097	0.0442	0.0007	13.1
0.0007	0.0067	0.0457	-0.0023	13.2
0.0165	0.0127	0.0142	-0.003	13
0.0127	0.021	-0.0083	-0.0053	13.1
-0.0181	0.015	0.0052	-0.006	12.9
-0.0645	0.0127	0.048	-0.0023	13
-0.09	0.0232	0.084	0	12.8
-0.1125	0.0112	0.09	-0.0008	12.7
-0.1381	0	0.1177	-0.0008	12.8
-0.0975	0.0007	0.1627	0.0015	12.6
-0.0293	-0.0008	0.1792	0.0045	12.7
0.0045	0.0225	0.156	0.012	12.4
0.027	0.0307	0.0607	0.0127	12.7
0.09	0.0187	-0.1133	0.0082	12.6
0.1417	0.0165	-0.2558	0.003	12.5
0.1387	0.0082	-0.2806	-0.0068	12.5
0.1155	0.0037	-0.2355	-0.0098	12.4
0.0727	0.0015	-0.1298	-0.0113	12.4
0.0397	-0.0008	-0.024	-0.0128	12.3
0.0157	0.0015	0.0157	-0.012	12.1
0.0082	-0.0053	0.042	-0.0158	12.4
0.0165	-0.0091	0.0555	-0.0203	12.1
0.0045	-0.012	0.063	-0.0188	12.3
-0.0083	-0.012	0.0765	-0.0188	11.9
-0.0233	-0.0158	0.0975	-0.0195	12.1
-0.045	-0.012	0.102	-0.0143	12
-0.06	0.0007	0.1012	-0.0105	12.1
-0.0795	0.0037	0.105	-0.0083	11.9
-0.0818	0.0015	0.0735	-0.0046	11.8
-0.0465	0.0045	0.06	-0.003	12
-0.0158	0.0067	0.0412	-0.0046	11.9
0.0045	0.0015	-0.0293	-0.0091	11.8
0.03	0.0045	-0.09	-0.0091	11.8
0.0502	0.0052	-0.0691	-0.0068	11.8
0.0375	0.0045	-0.0105	-0.0053	11.8
0.0142	0.003	0.021	-0.003	11.7
0.0135	0.0045	0.054	0.0015	11.7
0.0097	0.0135	0.087	0.0045	11.6
0.027	0.0142	0.0712	0.003	11.4
0.0405	0.0112	-0.0015	-0.0008	11.7
0.012	0.0075	-0.0525	-0.0068	11.3
-0.0308	0	-0.0465	-0.0128	11.6
-0.0405	-0.0091	-0.048	-0.0165	11.3
-0.0195	-0.0068	-0.057	-0.012	11.4
0.0135	-0.0008	-0.0315	-0.0098	11.4
0.0517	-0.0046	0.012	-0.0068	11.3
0.0652	-0.0105	0.0892	-0.0075	11.3
0.0247	-0.0181	0.1762	-0.0105	11.2
-0.0856	-0.0278	0.2295	-0.0083	11.2
-0.1493	-0.0293	0.2317	-0.0046	11.1
-0.114	-0.0143	0.1687	0.0037	10.9
-0.0683	0.0007	0.075	0.006	11.4
0.003	0.003	-0.0015	0.0052	10.9
0.093	0.0052	-0.0353	0.009	11.2
0.1327	-0.0075	-0.057	0.0037	10.9
0.1095	-0.0203	-0.1118	0.003	10.9
0.0495	-0.003	-0.1163	0.0097	10.9
-0.0203	0.0082	-0.0698	0.0127	10.8
-0.0615	0.012	-0.0465	0.0142	11.1
-0.0668	0.0075	-0.0375	0.0135	10.8
-0.0181	0.0007	-0.0128	0.0105	10.9
0.0345	0.0022	-0.0023	0.0052	10.9
0.0517	0.0007	0.0112	0.0007	10.7
0.0367	0.0037	0.0532	-0.0008	10.7
0.0345	0.0037	0.033	-0.0008	10.7
0.051	0.009	-0.0015	0.0007	10.7
0.0082	0.0165	-0.0368	0.0022	10.6
-0.0338	0.015	-0.1065	0.0015	10.4
-0.027	0.0255	-0.1238	0.003	10.6
0.0015	0.021	-0.063	-0.0015	10.3
-0.0091	0.009	-0.0375	-0.0083	10.6
-0.0158	0.0067	-0.0938	-0.0113	10.3
0.024	-0.0023	-0.0653	-0.012	10.5
0.03	-0.006	0.0435	-0.0068	10.3
0.015	-0.0046	0.0487	-0.0038	10.3
0.0277	-0.0068	-0.0593	-0.0008	10.5
0.0225	-0.0091	-0.0856	-0.0015	10.1
-0.0323	-0.0105	0.0157	-0.006	10.4
-0.1058	-0.0203	0.0727	-0.0023	10.3
-0.213	-0.0165	0.087	0.0037	10.2
-0.159	0	0.0667	0.0105	10
-0.0195	0	-0.0181	0.0097	10
-0.006	-0.0083	-0.1043	0.009	10.1
0.018	-0.0046	-0.1673	0.015	9.8
0.0682	-0.0091	-0.1905	0.0127	9.9
0.1537	-0.0128	-0.2415	0.0105	9.8
0.1935	-0.0083	-0.231	0.0135	9.7
0.1515	-0.0083	-0.0615	0.0127	9.9
0.105	-0.0068	0.0825	0.0082	9.6
0.0795	-0.0135	0.1237	0.0052	9.7
0.0967	-0.0135	0.075	0.0015	9.5
0.0855	-0.012	-0.054	-0.003	9.5
0.0397	-0.0248	-0.0803	-0.0046	9.5
-0.0278	-0.0263	0.0345	-0.0091	9.3
-0.0436	-0.0218	0.1065	-0.0098	9.4
-0.0353	-0.0195	0.1447	-0.0068	9.3
-0.0585	-0.0143	0.1837	-0.0038	9.3
-0.0773	-0.0173	0.1935	0	9.4
-0.1411	-0.027	0.141	-0.0008	9.2
-0.1733	-0.0256	0.0517	-0.003	9.3
-0.132	-0.0293	-0.0053	-0.006	9
-0.0818	-0.021	-0.0653	-0.0053	9.1
-0.057	0.0157	-0.0645	-0.0008	8.9
-0.042	0.0097	-0.0398	-0.0008	9
0.0052	-0.0091	0.0165	0.003	9
0.0345	0.0105	0.0615	0.0082	8.7
0.0802	0.015	0.048	0.0127	8.9
0.0922	0.0097	0.0607	0.009	8.7
0.0337	0.009	-0.0893	0.0015	8.8
-0.0038	0.0015	-0.2783	-0.0046	8.5
-0.0053	-0.0046	-0.3158	-0.0113	8.6
0.0052	-0.0091	-0.2978	-0.0158	8.5
0.0172	-0.0046	-0.186	-0.0165	8.5
0.063	0.0157	-0.0765	-0.015	8.5
0.0502	0.027	0.0105	-0.0165	8.4
-0.0315	0.0165	0.1207	-0.0188	8.3
-0.1065	0.0052	0.1875	-0.0195	8.4
-0.1958	-0.0128	0.213	-0.021	8.3
-0.2543	-0.0105	0.2145	-0.0173	8.2
-0.159	0.0082	0.2287	-0.0091	8.1
-0.0165	0.0307	0.2032	0.0022	8.1
0.012	0.0427	0.15	0.0157	8.1
0.0592	0.0277	0.0742	0.0247	8
0.0907	0.0255	-0.0405	0.0232	8.1
0.0577	0.0187	-0.06	0.0142	7.8
0.0517	0.009	-0.0353	0.0052	8.1
0.087	0.0097	-0.0683	-0.003	7.9
0.0855	0.0045	-0.15	-0.0068	7.7
0.0127	-0.0046	-0.1305	-0.0091	7.8
-0.0143	-0.012	0.027	-0.0091	7.8
-0.0405	-0.012	0.1387	-0.003	7.6
-0.0518	-0.0068	0.1875	0.0037	7.6
0.0127	-0.0188	0.0975	0.0052	7.4
0.1215	-0.0248	-0.054	0.0082	7.6
0.1875	-0.0315	-0.1245	0.0105	7.5
0.1957	-0.0443	-0.1635	0.0037	7.7
0.1567	-0.0383	-0.2213	-0.003	7.3
0.0525	-0.0338	-0.2903	-0.0075	7.6
-0.0368	-0.0248	-0.1726	-0.0091	7.2
-0.108	-0.0008	0.0015	-0.0023	7.5
-0.1118	0.018	0.0787	-0.0008	7.4
-0.0765	0.0292	0.0802	0.0007	7.3
-0.0563	0.024	-0.0053	-0.0023	7.3
0.0217	0.0075	-0.0285	-0.0105	7.2
0.048	0.0067	-0.0023	-0.0091	7.2
-0.0046	0.006	0.0465	-0.0075	7.2
-0.081	-0.003	0.084	-0.0015	7.1
-0.0795	-0.0008	0.0817	0.0045	7.1
0.0217	0.0067	0.1237	0.012	7.2
0.0705	0.0105	0.192	0.0142	7.1
0.0907	0.0097	0.1702	0.009	7.3
0.0952	0.0097	0.0345	0.0082	6.8
0.0712	0	-0.0713	0.0045	7.2
0.0667	-0.0188	-0.1013	0.003	6.9
0.0667	-0.0405	-0.1335	0.0082	7.1
0.0457	-0.0615	-0.207	0.0015	7
0.0015	-0.0683	-0.1845	-0.0083	6.8
-0.0143	-0.063	-0.0413	-0.0091	7
0.006	-0.0458	0.1042	-0.0046	7
0.0232	-0.0361	0.2235	-0.0015	6.8
0.0082	-0.0293	0.2617	-0.0015	6.7
0.0015	0.0015	0.09	0.0007	6.7
-0.0263	0.024	-0.207	-0.0023	6.6
-0.0743	0.0345	-0.2408	-0.0053	6.4
-0.1073	0.0232	-0.084	-0.0046	6.6
-0.147	0.0195	-0.0091	-0.0038	6.5
-0.1163	0.0307	0.078	0	6.6
-0.0818	0.0337	0.1222	0.0007	6.4
-0.054	0.0345	0.102	-0.003	6.5
-0.0315	0.0307	0.0765	-0.0046	6.5
-0.0706	0.0255	0.0262	-0.0083	6.3
-0.0653	0.024	-0.0278	-0.003	6.4
-0.0308	0.027	-0.0555	0.0015	6.3
-0.0398	0.0255	-0.0195	-0.0008	6.2
-0.045	0.0217	-0.0638	0.0007	6.3
0.015	0.0232	-0.1088	-0.0015	6.2
0.0405	0.0322	-0.0383	-0.003	6.2
-0.0038	0.0202	-0.0203	0.0007	6.3
-0.0315	0.0127	-0.0083	0.0075	5.9
0.033	0.0292	0.0307	0.0142	6.3
0.1177	0.024	0.0555	0.0157	6
0.0937	0.0232	0.0892	0.018	6.3
0.0352	0.0285	0.0772	0.024	6.1
-0.0008	0.0292	0.0232	0.0202	6
0.0382	0.0105	-0.0128	0.0127	6.1
0.069	-0.0046	0.003	0.0082	6
0.0547	0.0007	-0.0195	0.006	5.9
0.048	-0.006	-0.1043	0.0015	5.6
0.0405	-0.012	-0.1343	-0.0046	5.9
0.051	-0.0143	-0.0473	-0.0068	5.8
0.0352	-0.0091	0.018	-0.0068	5.8
0.0045	-0.0135	0.051	-0.0091	5.8
-0.0548	-0.0068	0.1642	-0.0046	5.7
-0.0706	0.0052	0.2445	0.0007	5.8
-0.0143	0.0127	0.2572	0.0075	5.8
0.0382	0.0285	0.1627	0.009	5.5
0.0382	0.0135	-0.0323	0.0015	5.7
0.003	0.0045	-0.1883	0	5.5
-0.0233	-0.0038	-0.2063	-0.0075	5.6
-0.0638	-0.0143	-0.2235	-0.0135	5.6
-0.0593	-0.0068	-0.2618	-0.003	5.6
-0.0735	-0.0075	-0.1808	-0.0015	5.5
-0.084	0.0045	-0.1253	-0.0075	5.3
-0.0428	0.0082	-0.0713	-0.0173	5.8
-0.0428	-0.003	-0.042	-0.024	5.3
-0.0368	-0.0098	-0.0653	-0.0105	5.5
0.0127	-0.006	-0.0465	0.003	5.4
0.0577	0.0082	-0.0278	0.0067	5.4
0.0435	0.0127	0.0495	0.0097	5.3
-0.042	-0.0091	0.1402	-0.0008	5.3
-0.0788	-0.0195	0.195	-0.0015	5.3
-0.0346	-0.0218	0.2032	-0.0015	5.5
-0.057	-0.0293	0.129	-0.003	5.2
-0.0735	-0.0158	0.0157	0.0015	5.4
-0.0308	-0.006	-0.0113	0.0045	5.2
0.024	-0.006	0.0705	0.0082	5.3
0.0637	-0.0128	0.1065	0.0067	5.2
0.093	-0.0173	0.0502	0.0067	5.2
0.15	-0.0038	-0.0075	0.0082	5.1
0.1725	0.0045	-0.0128	0.009	5.2
0.1762	0.0082	-0.0091	0.003	5.2
0.1275	0.0007	0.0592	-0.0083	5
0.0667	-0.0008	0.1215	-0.0075	5
0.0502	0.0022	0.057	-0.0046	5
-0.0181	-0.0158	0.015	-0.0015	5.1
-0.0473	-0.0143	-0.0713	0.003	4.9
-0.0285	-0.012	-0.1485	0.009	5
-0.0765	-0.0008	-0.0256	0.0067	5
-0.1396	0.0082	0.0825	0.0022	5
-0.1741	0.0052	-0.0143	0.003	4.8
-0.12	-0.0015	-0.2063	-0.0053	5
-0.0113	-0.0195	-0.1988	-0.0113	4.8
0.0187	0	-0.0263	-0.0128	5.1
0.0405	0.0067	0.039	-0.0293	4.9
0.051	-0.0091	0.063	-0.0368	4.9
0.0255	-0.0128	0.099	-0.024	4.8
0.0412	-0.0263	0.1057	-0.024	4.9
0.0667	-0.0278	0.1125	-0.0203	5
0.072	-0.027	0.081	-0.0143	4.8
0.051	-0.024	0.039	-0.0165	4.9
-0.0195	0.0015	0.0352	-0.0083	4.8
-0.1103	0.0037	0.0262	-0.012	4.8
-0.1328	-0.0105	0	-0.0098	4.9
-0.0803	-0.0105	0.0067	0.0015	4.6
-0.0233	0.0015	0.024	0.003	4.8
0.0427	0.0127	-0.0938	0.0037	4.6
0.0945	0.0127	-0.1883	0.0007	4.7
-0.0188	-0.0038	-0.0878	-0.0023	4.7
-0.186	-0.0083	-0.024	0.003	4.7
-0.1741	0.0045	-0.081	0.0052	4.7
-0.0293	0.0075	-0.126	-0.0015	4.7
0.0705	-0.0023	-0.0968	-0.003	4.6
0.0397	-0.0046	-0.114	-0.0038	4.7
-0.021	-0.0091	-0.066	-0.0053	4.6
0.039	-0.0143	0.042	0.0022	4.7
0.141	0.0022	0.1245	0.006	4.6
0.2047	0.0142	0.222	0.0015	4.5
0.2062	0.012	0.1905	-0.0015	4.5
0.099	0.0007	0.0172	-0.0046	4.5
0.0052	-0.003	-0.2213	-0.0068	4.6
-0.0458	-0.0128	-0.2648	-0.0128	4.5
-0.015	-0.0218	-0.1808	-0.0195	4.7
-0.03	-0.0195	-0.0653	-0.0218	4.6
-0.0765	-0.0203	0.1057	-0.0195	4.5
-0.0113	-0.0135	0.1995	-0.0143	4.7
-0.0518	0.003	0.3045	-0.0015	4.4
-0.0878	0.0165	0.3502	0.0105	4.7
-0.0368	0.0022	0.3277	0.012	4.5
0.0045	0.0052	0.2677	0.0105	4.6
0.0202	0.009	0.1335	0.0037	4.4
-0.0195	-0.0158	-0.0765	-0.0068	4.7
-0.0083	-0.0165	-0.2378	-0.0091	4.6
0.054	-0.0105	-0.3143	-0.0083	4.5
0.0645	0	-0.3406	-0.003	4.7
-0.003	0.003	-0.1763	-0.003	4.5
-0.0256	-0.0008	0.0292	-0.0068	4.5
-0.0278	-0.0046	0.1995	-0.0046	4.6
-0.0195	0.0082	0.2572	0.0082	4.6
0.0127	0.0202	0.0817	0.015	4.7
-0.0105	0.0052	-0.2063	0.0052	4.3
0.0015	0.0082	-0.3758	-0.0038	4.6
0.0105	0.0037	-0.2843	-0.0128	4.7
-0.075	-0.0113	-0.1426	-0.021	4.4
-0.1433	-0.0188	-0.0263	-0.021	4.5
-0.1103	-0.021	0.0855	-0.0218	4.5
-0.1028	-0.0195	0.156	-0.0188	4.5
-0.1118	-0.0105	0.2362	-0.0105	4.4
-0.045	0.0262	0.2842	-0.003	4.6
0.0345	0.0352	0.207	-0.0046	4.4
0.1342	-0.0105	-0.0293	-0.0105	4.4
0.1822	-0.0218	-0.2145	-0.0053	4.4
0.201	-0.0113	-0.273	-0.0046	4.4
0.2197	-0.0105	-0.396	-0.0038	4.4
0.225	0.0322	-0.477	0.0052	4.6
0.2385	0.0367	-0.3278	0.006	4.4
0.1042	0.0045	-0.0728	0.003	4.4
-0.0975	0.0157	0.108	0.0037	4.3
-0.1643	0.0165	0.2362	-0.0046	4.7
-0.1688	0.009	0.3472	-0.0105	4.4
-0.222	-0.0068	0.4252	-0.0173	4.5
-0.2595	-0.0323	0.4372	-0.0218	4.4
-0.2048	-0.0285	0.3562	-0.0158	4.4
-0.0638	-0.0113	0.2257	-0.0075	4.5
0.0592	0.009	0.0082	0	4.5
0.0277	0.0105	-0.1328	0.0007	4.6
-0.0413	-0.0038	-0.1373	0.0007	4.5
-0.0308	-0.012	-0.1703	-0.0046	4.4
0.0105	-0.0046	-0.1253	-0.003	4.4
0.0247	0.0232	-0.012	0.009	4.5
0.0277	0.042	0.1605	0.012	4.5
0.0577	0.0277	0.1785	0.0157	4.5
0.084	0.0195	0.0067	0.018	4.4
0.0915	0.021	-0.1838	0.0112	4.6
0.1185	0.0045	-0.3848	0.0007	4.4
0.1627	-0.003	-0.3563	-0.0098	4.7
0.1785	-0.0091	-0.1426	-0.012	4.5
0.156	-0.0188	0.0547	-0.015	4.5
0.0637	-0.0256	0.174	-0.0195	4.5
-0.0143	-0.0195	0.213	-0.0165	4.5
-0.0721	0.0067	0.228	-0.003	4.5
-0.1193	0.0277	0.2505	0.0082	4.5
-0.123	0.018	0.162	0.0052	4.5
-0.135	-0.0008	-0.0465	-0.0008	4.5
-0.075	0.0067	-0.1748	-0.0023	4.4
-0.063	0.0037	-0.156	-0.0038	4.5
-0.117	0.003	-0.0773	-0.0083	4.3
-0.0706	-0.0113	-0.0233	-0.0165	4.4
-0.0578	-0.0181	0.0502	-0.0158	4.4
-0.078	-0.0046	0.1882	-0.0098	4.5
0.0292	-0.0083	0.2212	-0.0068	4.4
0.1447	-0.0135	0.0862	-0.006	4.3
0.1612	-0.024	-0.2011	-0.0083	4.4
0.1687	-0.012	-0.4051	0.0007	4.4
0.0915	0.009	-0.1455	0.0045	4.5
-0.0473	0.0142	0.1282	0.0067	4.3
-0.1088	0.0165	0.1432	0.0105	4.4
-0.1328	0.0097	0.1027	0.0045	4.3
-0.1545	0.0037	-0.0083	0.0015	4.2
-0.1088	0.0075	-0.0181	0.0052	4.3
0.0045	0.0037	0.0525	0.0052	4.4
0.0645	0.0037	0.0945	-0.0008	4.4
0.0855	0.0127	0.0465	-0.0053	4.4
0.0255	0.0112	0.009	-0.003	4.3
-0.0405	-0.0015	0.021	-0.0068	4.3
-0.0346	-0.0188	-0.0503	-0.0128	4.2
-0.0825	-0.0285	-0.0728	-0.0128	4.2
-0.1133	-0.0083	-0.06	-0.0053	4.3
-0.117	0.0172	-0.0975	-0.0008	4.1
0.0045	0.0097	-0.0503	0.0022	4.4
0.186	-0.0075	-0.0346	-0.0008	4.2
0.231	-0.0158	-0.081	-0.0068	4.3
0.261	-0.0181	-0.048	-0.0068	4.3
0.1785	-0.0113	-0.0765	-0.006	4.2
0.0645	0.0142	-0.0525	0.003	4.3
0.0322	0.039	0.042	0.0097	4.2
-0.0638	0.0097	0.081	0.003	4.3
-0.1711	-0.0128	0.0532	-0.0023	4.1
-0.156	-0.0075	-0.0165	-0.0038	4.2
-0.0443	-0.0256	-0.0173	-0.0083	4.4
0.0442	-0.0188	-0.0278	-0.0046	4.3
0.0547	0.0052	0.0007	0.0067	4.3
0.0382	0.021	0.12	0.009	4.2
0.0247	0.0225	0.171	0.0097	4.2
0.0045	0.012	0.141	0.0127	4.3
-0.0203	0.0127	0.123	0.0157	4.2
-0.1021	0.0127	0.096	0.0097	4.5
-0.1793	-0.0038	0.0517	-0.0023	4.1
-0.1433	-0.0233	0.0015	-0.0053	4.3
-0.0218	-0.0188	-0.0668	0.003	4.2
0.1042	-0.0046	-0.1538	0.0075	4.1
0.1755	-0.0075	-0.165	0.006	4.4
0.1777	-0.0075	-0.1178	0.0082	4.1
0.1207	0.003	-0.0503	0.0082	4.3
0.0547	0.0045	0.1177	0.0067	4.4
-0.0008	0.0082	0.186	0.009	4.2
-0.0645	0.012	0.0637	0.0127	4.4
-0.0765	0.018	-0.1388	0.0142	4
-0.057	0.0082	-0.2198	0.0045	4.4
-0.0856	-0.0135	-0.1373	-0.0046	4.2
-0.0825	-0.0195	-0.1088	-0.006	4.4
-0.0398	-0.012	-0.0638	-0.0015	4.4
-0.0248	0.015	0.003	0.006	4.2
-0.09	0.018	0.0592	0.0075	4.4
-0.1298	0.0015	0.0847	0.009	4.2
-0.0008	-0.0068	0.033	0.0015	4.3
0.0892	-0.0128	-0.048	-0.0015	4.4
0.12	-0.003	-0.078	0.0007	4.2
0.0855	0.0052	0.03	-0.0008	4.5
-0.015	-0.0068	0.096	-0.0046	4.2
-0.0293	-0.0135	-0.0015	-0.0046	4.3
-0.0511	-0.012	-0.066	-0.0015	4.4
-0.033	-0.012	-0.0346	0.0022	4.4
0.0022	-0.0143	0.0337	0.0015	4.4
0.0165	-0.0165	0.0232	0.0015	4.3
0.0127	-0.0015	-0.0256	0.0052	4.4
-0.054	-0.0068	-0.0098	0.003	4.3
0.0232	0.0105	-0.0893	0.009	4.5
0.141	0.0315	-0.132	0.0127	4.4
0.1875	0.0165	-0.0983	0.006	4.3
0.2287	0.0045	-0.0691	0.0022	4.4
0.2122	-0.0105	-0.0158	-0.0053	4.4
0.0472	-0.0158	0.0142	-0.0038	4.4
-0.213	-0.0091	0.0345	0.006	4.4
-0.3293	-0.003	-0.0368	0.0022	4.3
-0.2685	-0.003	-0.0893	-0.0015	4.4
-0.1185	-0.0083	0.0217	-0.003	4.3
-0.0398	-0.0068	0.1687	-0.0008	4.4
-0.0623	0.0142	0.2422	0.0015	4.4
-0.0638	0.0037	0.1717	-0.0046	4.5
-0.0053	-0.0158	-0.0068	-0.0015	4.3
0.0592	-0.0046	-0.0263	0.0007	4.4
0.1305	-0.0008	0.0862	-0.0046	4.5
0.1402	0.024	0.1162	0.003	4.4
0.0487	0.024	0.0637	0.0015	4.2
0.0562	0.0142	-0.0765	0.0022	4.2
0.018	0.0315	-0.1148	0.0082	4.3
-0.0158	-0.0038	-0.1095	-0.0008	4.2
0.0337	0.0007	-0.1448	0.0015	4.3
0.0015	0.0037	-0.1163	-0.0015	4.2
-0.0135	-0.0135	-0.1853	-0.0038	4.3
0.0247	0	-0.2303	-0.0008	4.4
0.036	-0.0195	-0.1711	-0.0068	4.5
0	-0.0225	-0.2205	-0.0015	4.1
0.0052	-0.006	-0.2558	0.0045	4.3
0.039	0.0082	-0.1088	-0.0008	4.2
0.0742	-0.003	0.0165	-0.006	4.2
0.1245	0.0015	0.1155	-0.003	4.4
0.0765	0.0052	0.156	-0.003	4.1
-0.042	-0.0165	0.0787	-0.0083	4.4
-0.1463	-0.0083	0.0292	-0.0015	4.1
-0.1418	-0.0128	0.0757	0.0007	4.4
-0.012	-0.0023	0.1162	0.0052	4.2
0.0742	0.0037	0.0705	0.0082	4.3
0.012	0.0105	0.093	0.012	4.3
-0.054	0.0157	0.1402	0.0165	4.4
-0.0383	0.0052	0.1657	0.0157	4.3
-0.0353	0.012	0.1882	0.0112	4.1
-0.0315	-0.0038	0.192	-0.0046	4
-0.0225	-0.0105	0.126	-0.006	4.2
-0.0308	-0.0046	0.063	-0.0015	4.1
-0.0668	-0.0105	0.1275	-0.0015	4.2
-0.0593	-0.0008	0.189	0.0052	4.1
-0.0285	0.0037	0.1575	0.0067	4.1
-0.0465	-0.0038	0.039	0.006	4.1
-0.039	0.003	-0.0593	0.0105	4
0.009	0.012	-0.1673	0.0165	4.2
0.1057	0.0172	-0.2798	0.0165	4
0.1627	0.0157	-0.2483	0.009	4
0.144	0.0015	-0.177	0.003	4
0.102	0.0067	-0.0623	0	3.9
0.0142	0.0067	0.063	-0.0046	4.1
-0.015	-0.0075	0.1117	-0.0083	4
-0.0278	-0.006	0.1297	-0.003	3.9
-0.1021	-0.0015	0.1567	0.0022	4.1
-0.1335	0.003	0.2385	0.0067	3.8
-0.1095	-0.0008	0.2677	0.0082	4.1
-0.0256	-0.0053	0.201	0.0105	3.9
0.0577	0.0045	0.057	0.0142	4
0.0787	0.0015	-0.0495	0.0157	3.8
0.0592	-0.0015	-0.063	0.0135	3.8
0.015	0.0082	-0.18	0.0112	3.9
-0.0256	0.0052	-0.1995	0.009	3.8
-0.0803	-0.0083	-0.03	0.003	4.1
-0.0338	-0.0128	0.0555	0.0022	4
0.0652	0.0015	0.06	0.0022	3.9
0.0315	0.0015	0.0472	-0.0046	4
-0.012	-0.012	0.015	-0.0068	3.9
-0.06	-0.012	0.024	-0.0046	4
-0.0908	-0.0068	0.0892	0.0037	3.9
-0.015	0.0142	0.0622	0.012	4
0.0585	0.0255	-0.0885	0.0127	4
0.069	0.0135	-0.1845	0.003	3.8
0.048	-0.006	-0.1238	-0.0068	4.1
0.0345	-0.0173	-0.042	-0.0075	3.9
0.0442	-0.0098	-0.0593	-0.006	4
0.0352	-0.003	-0.0361	-0.0015	4
-0.0458	0.003	0.0262	0.0037	4.1
-0.084	0.003	0.018	0.0097	4.1
-0.0098	0.0052	-0.0473	0.018	3.9
0.075	0.0015	-0.117	0.0202	4
0.1462	-0.0046	-0.135	0.0112	4.1
0.2122	-0.0113	-0.0923	-0.0015	4
0.2257	-0.0143	0.0307	-0.006	4
0.159	-0.0075	0.1117	-0.0053	3.9
0.0352	-0.0143	0.0892	-0.0075	4.1
-0.099	-0.0195	0.066	-0.006	4
-0.1605	-0.0038	0.0517	0.0015	4.1
-0.1898	0.0015	0.0915	0.006	3.9
-0.1441	0.0015	0.1042	0.0045	4
-0.0728	0.0165	0.0855	0.0075	4.1
-0.108	0.0195	0.0952	0.0105	4.1
-0.0856	0.0075	0.1147	0.0045	4.1
-0.0225	-0.0091	0.0705	-0.0015	3.8
-0.0285	-0.0165	-0.0848	-0.0015	4
-0.042	-0.0173	-0.1388	-0.0008	4
-0.039	-0.0068	-0.0638	0.0082	3.9
0.0172	0.0007	-0.0308	0.0082	4
0.1627	-0.006	-0.0465	0.0022	4
0.1852	-0.0015	-0.0765	0.003	3.8
0.0427	-0.0068	-0.0825	0.0007	4.1
-0.0195	-0.0091	-0.1013	0.0007	3.8
0.0015	-0.0113	-0.1643	0.0015	4.1
0.0262	-0.0128	-0.177	0	3.9
-0.0046	-0.0046	-0.1238	0.0037	4.1
-0.0158	0.0015	-0.0015	0.003	4
0.0255	0.0187	0.069	0.0007	4
0.0232	0.0112	0.0457	-0.0038	4.1
-0.0091	0.0007	0.0067	-0.0046	3.9
-0.078	0.0015	0.0217	-0.003	4.1
-0.084	-0.0105	0.063	-0.0046	4
-0.0585	-0.0105	0.0705	-0.0075	4.1
-0.0908	-0.012	0.1192	-0.0098	4.1
-0.1118	-0.0008	0.1327	-0.0008	4.1
-0.1043	0.0187	0.114	0.012	4
-0.0623	0.0082	0.0217	0.0105	4.1
0.0345	0.003	-0.2535	0.0015	4
0.1072	0	-0.4665	-0.0023	4
0.0397	0.0015	-0.3983	0.006	4
-0.0465	0.012	-0.156	0.0052	4.1
-0.075	0.0052	-0.0068	0	3.9
-0.0548	0.0007	-0.024	-0.003	4
-0.0248	-0.0015	-0.0315	-0.0068	4.1
-0.0765	-0.0015	0.0727	-0.012	4
-0.0518	-0.0053	0.216	-0.0203	4
0.0277	-0.0188	0.2235	-0.024	4
0.033	-0.0188	0.0682	-0.0225	4.1
0.0322	-0.0091	0.036	-0.0143	4
0.018	0.0127	0.1822	0	4.1
0.0232	0.03	0.1087	0.0142	4
0.1207	0.0217	-0.195	0.0157	4
0.2227	0.003	-0.3578	0.0045	4
0.2175	-0.0068	-0.2985	-0.0068	3.9
0.165	-0.006	-0.1673	-0.0083	4.1
0.0787	0.0075	-0.078	-0.0023	4.1
-0.0503	0.0127	-0.0068	-0.0015	4
-0.105	-0.0046	0.0285	-0.0068	4.2
-0.0375	-0.0158	0.0465	-0.012	4
0.0277	-0.0128	0.0637	-0.0113	4.1
0.0345	-0.0083	0.0802	-0.0091	4
0.027	0.0022	0.078	-0.0091	4
0.0097	0.0052	0.0855	-0.0098	4
0.0315	-0.003	0.111	-0.0105	3.9
0.0705	-0.006	0.1012	-0.0091	4.1
0.0832	-0.012	0.1252	-0.0128	4
0.0442	-0.0173	0.1762	-0.0181	4
-0.0488	-0.0068	0.1965	-0.012	4
-0.0833	0.0142	0.1837	-0.0068	4
-0.0856	0.0082	0.1552	-0.0068	4.1
-0.1485	-0.003	0.0787	-0.0083	4
-0.1778	-0.0008	-0.03	-0.0105	3.9
-0.1155	-0.0135	-0.093	-0.0105	4.2
-0.039	-0.0143	-0.0825	-0.0128	4
-0.0068	-0.0233	-0.0218	-0.0218	4.1
-0.0495	-0.024	0.0202	-0.021	3.9
-0.1125	0.0015	0.0832	-0.0113	4
-0.1411	0.0127	0.1447	-0.0053	4.1
-0.1328	-0.0015	0.1582	-0.0015	3.9
-0.0285	-0.0083	0.1462	0.0015	4
0.0765	0	0.0517	-0.0015	3.8
0.0825	0.0232	-0.1178	-0.0023	3.9
0.0877	0.0307	-0.192	-0.0023	3.8
0.1455	-0.0038	-0.1538	-0.0091	3.9
0.2347	-0.0083	-0.0945	-0.0143	3.9
0.2647	-0.0053	-0.0098	-0.015	3.9
0.1867	-0.0046	0.0682	-0.0158	3.9
0.069	0.0015	0.1455	-0.0135	4
-0.0405	-0.0075	0.2107	-0.0068	3.8
-0.1155	-0.003	0.2362	0.0052	4
-0.1628	0.0105	0.222	0.0142	3.9
-0.1455	0.018	0.0637	0.018	3.8
-0.0098	0.0247	-0.2415	0.018	3.9
0.0667	0.0217	-0.4485	0.0097	3.9
0.0345	-0.003	-0.3473	-0.0023	4.1
0.0262	-0.0075	-0.183	-0.0053	3.8
0.0405	-0.0113	-0.0998	-0.0091	4
0.0532	-0.0173	-0.0346	-0.0128	3.8
-0.0075	-0.0128	-0.0046	-0.012	3.9
-0.1133	-0.012	0.0382	-0.012	3.9
-0.1275	0	0.0307	-0.0091	3.9
-0.0691	0.0015	0.0555	-0.0083	3.9
-0.0555	-0.0023	0.0765	-0.0046	3.8
-0.039	-0.0046	0.024	0	3.8
-0.0105	-0.003	-0.0323	-0.0008	4
0.024	0.003	-0.1088	0.0007	3.8
0.1012	0.0045	-0.0443	0.0052	4
0.084	0.0007	0.0667	0.0075	3.8
0.0015	0.0015	0.0945	0.0082	3.9
-0.057	-0.0068	0.0615	0.0015	3.8
-0.081	-0.0068	-0.1065	0.003	3.8
-0.0885	0.0067	-0.207	0.0082	3.7
-0.0593	0.0082	-0.1403	0.0082	3.7
0.0577	0.0015	0.0082	0.0052	3.8
0.1155	-0.0068	0.123	-0.0038	3.9
0.0772	-0.0105	0.126	-0.0075	3.8
0.0217	-0.0105	0.1147	-0.0091	3.8
-0.0495	-0.0046	0.0997	-0.0098	3.7
-0.1043	-0.0023	0.1387	-0.0075	3.9
-0.0495	-0.0128	0.1807	-0.0091	3.8
0.0232	-0.0091	0.1492	-0.0023	3.7
0.0232	0.0075	0.0907	0.0045	3.8
-0.0113	0.018	-0.0181	0.0082	3.6
-0.09	0.0082	-0.0885	0.0105	4
-0.0795	-0.0015	-0.132	0.0142	3.8
0.0285	0.0052	-0.1913	0.0187	3.8
0.0712	0.0022	-0.2026	0.0142	3.8
0.0855	0.0112	-0.1426	0.0127	3.8
0.1365	0.024	-0.0856	0.012	3.9
0.1515	0.0067	-0.0308	0.009	3.9
0.0705	-0.003	0.0435	0.0045	4
-0.0413	-0.0113	0.0862	0.0037	4
-0.1275	-0.0083	0.141	0.0045	4
-0.1913	-0.003	0.1687	-0.0008	4.1
-0.1613	-0.012	0.171	-0.0053	3.8
-0.0878	-0.0091	0.2107	-0.006	4
-0.0863	-0.0075	0.2595	-0.0015	4
-0.0293	0.0112	0.312	0.0067	4.1
0.087	0.0105	0.309	0.0105	4.1
0.1575	-0.003	0.1365	0.0127	3.9
0.165	-0.0046	-0.2138	0.0165	4
0.1935	-0.0075	-0.4688	0.0165	4.1
0.2752	0.0105	-0.3615	0.0142	3.9
0.2512	0.0195	-0.2265	0.0112	4
0.1387	0.0082	-0.2655	0.0082	3.9
0.036	-0.0046	-0.2288	0.0015	4.1
-0.0263	-0.003	-0.1665	-0.0008	4
-0.0803	-0.0181	-0.123	-0.006	4
-0.1328	-0.027	-0.066	-0.012	4
-0.135	-0.0195	0.057	-0.0105	3.9
-0.1298	0.003	0.15	-0.006	4.1
-0.0773	0.0225	0.1612	-0.0008	4
-0.0315	0.0022	0.1987	0.0015	4.1
-0.048	0.0015	0.168	0.006	4.1
-0.0683	0.012	0.1147	0.0142	4
-0.1125	0.0052	-0.0015	0.0097	4.2
-0.117	0	-0.0968	0.003	4
-0.084	-0.0008	-0.09	0.0075	4.1
-0.0638	-0.0053	-0.0608	0.0105	3.9
-0.0443	-0.0158	-0.0548	0.0075	4
-0.054	-0.0053	-0.1665	0.0112	4.1
-0.0008	0.003	-0.1823	0.009	4
0.0877	0.006	-0.054	0.0052	4
0.0937	0.006	0.0532	0.0052	4
0.0862	-0.006	0.0787	0.003	4.1
0.1005	-0.0068	0.045	0.006	4.1
0.1312	-0.0053	-0.0495	0.0097	4
0.1237	0.0007	-0.0953	0.0082	4
0.0967	-0.0023	-0.0158	0.003	3.9
0.0615	-0.0038	0.048	0.0015	4.1
-0.0256	-0.0023	0.1057	0.0007	4
-0.108	-0.0046	0.0825	0	3.8
-0.132	0.003	-0.0023	-0.003	4
-0.1125	-0.0015	-0.024	-0.006	3.8
-0.0495	-0.012	0.0435	-0.0046	4.1
0.0075	-0.006	0.126	-0.003	4
0.021	-0.0015	0.1305	-0.0015	4
-0.003	0.0067	0.1357	0.0015	3.9
-0.0856	0.0157	0.1215	0.0022	3.9
-0.0975	0.0037	0.12	-0.0015	4.1
-0.0405	-0.0008	0.0937	-0.0038	4
-0.0143	-0.0008	-0.033	0	3.9
0.012	-0.0068	-0.177	0.003	4.1
0.0007	-0.0068	-0.1943	-0.0008	3.8
0.0157	-0.0008	-0.1028	-0.0038	3.9
0.0712	0.0022	-0.0856	-0.0053	3.8
0.1395	-0.0008	-0.108	-0.0083	3.9
0.183	-0.0023	-0.0083	-0.012	3.9
0.078	-0.0053	0.1627	-0.012	3.8
-0.0503	0.003	0.2152	-0.0105	3.9
-0.114	-0.0015	0.2407	-0.0053	3.9
-0.1155	0.0015	0.2445	0.003	4
-0.075	0.0135	0.1065	0.0082	3.8
-0.0413	0.0195	-0.0195	0.0075	4
0.0937	0.0097	-0.1478	0.003	3.9
0.1522	-0.0091	-0.3293	-0.003	3.9
0.0615	-0.0015	-0.333	-0.0046	4
-0.021	-0.0046	-0.1883	-0.0038	4
-0.093	-0.0015	-0.0706	-0.0015	3.9
-0.0803	-0.003	0.0862	-0.0023	4
-0.0488	-0.0083	0.0945	-0.0015	3.9
-0.0233	0.0045	-0.0405	0.0015	4
0.069	0.015	-0.1065	0.0007	4
0.078	0.0105	-0.0653	-0.003	4
0.018	0.0045	0.0105	-0.0023	3.9
0.0502	-0.0008	0.0187	-0.003	4
0.0165	-0.0143	0.0157	-0.0083	4.1
-0.0353	-0.0113	-0.0338	-0.0105	3.8
0.0007	-0.0015	0.0022	-0.0091	4
-0.0458	0.0052	0.144	-0.0068	3.7
-0.0706	0.0157	0.1845	-0.0015	4
-0.0315	0.0075	0.105	-0.0015	3.9
-0.0091	-0.0091	-0.0683	-0.0053	4
-0.0436	-0.0143	-0.2378	-0.0098	3.9
-0.1133	-0.0225	-0.2918	-0.012	4.1
-0.09	-0.0158	-0.1688	-0.0046	4
-0.0023	-0.0053	-0.0203	-0.0015	4.1
-0.0053	-0.0083	-0.0068	-0.0046	3.9
-0.0721	-0.0195	0.018	-0.003	4.1
-0.0038	-0.0218	0.054	-0.0008	3.9
0.1252	-0.0015	0.0082	0.0052	4
0.132	0.0262	0.0082	0.0105	4.1
0.0967	0.0442	0.0292	0.0142	3.9
0.1087	0.0202	0.0232	0.0067	4.1
0.1387	-0.0165	0.0307	-0.003	3.8
0.144	-0.0143	0.0075	-0.0068	4.1
0.1147	-0.0091	-0.0233	-0.0068	4
0.0615	-0.0008	-0.012	-0.0015	4
0.0052	0.006	0.0315	-0.0008	4.1
-0.0128	0.0022	0.0817	-0.0008	4.1
-0.024	0.0022	0.1267	-0.0015	4.1
-0.0578	-0.0068	0.117	-0.0046	3.9
-0.084	-0.0091	0.0937	-0.0046	3.9
-0.0938	-0.0091	0.0772	-0.0053	4.1
-0.0713	-0.0083	0.0862	-0.003	4
-0.0706	-0.0105	0.1065	-0.0015	4.1
-0.0983	-0.0023	0.0727	0.0015	3.7
-0.0833	0.006	0.0157	0.003	4
-0.0593	0.0105	-0.0278	0.0015	3.9
-0.03	0.0135	-0.024	-0.0008	3.8
0.0465	-0.0098	-0.0353	-0.0038	4
0.108	-0.0068	-0.0563	-0.0008	3.7
0.1147	-0.0008	-0.048	0.0007	3.9
0.1125	-0.0053	-0.0473	0.0007	4
0.072	-0.0015	-0.003	-0.0015	4
-0.015	-0.0046	0.0315	0.0022	3.9
-0.0953	0.0112	0	0.012	3.8
-0.1088	0	-0.033	0.009	4
-0.045	-0.012	-0.054	0.0075	4.1
0.0067	-0.003	-0.108	0.009	3.7
-0.0158	-0.0015	-0.1853	0.0052	4
-0.0653	-0.0008	-0.2048	0.0052	3.7
-0.0533	-0.012	-0.1298	-0.0023	4.1
-0.0361	-0.0165	-0.0578	-0.0075	3.8
-0.0143	-0.0173	0.0105	-0.0046	3.9
0.006	-0.0113	0.0915	-0.0015	4
-0.003	0.0022	0.1297	0.003	3.9
0.027	0.012	0.1605	0.0082	4
0.0495	0.0165	0.174	0.015	3.8
0.0547	0.0142	0.1297	0.0165	3.8
0.0352	0.0105	0.0345	0.0135	3.9
-0.0338	0.0052	-0.0023	0.0112	3.9
-0.0653	0.0112	0.0712	0.0105	4.1
-0.0706	0.0105	0.1147	0.0067	3.9
-0.0593	0.0015	0.078	0.0007	3.7
0.0127	0.0052	-0.0293	0.0045	3.9
0.0427	0.0075	-0.1523	0.0082	3.9
0.0315	0.0052	-0.1658	0.0097	4
0.0472	0.003	-0.084	0.0105	3.8
0.0562	-0.0015	-0.03	0.0045	3.9
0.0637	-0.003	-0.0165	0.0015	3.8
0.0607	0.0015	-0.0653	-0.0015	3.9
0.0495	0.0015	-0.1298	-0.0053	3.9
0.0525	0.003	-0.0908	-0.0008	3.8
0.0697	-0.0053	-0.0203	0.0007	3.9
0.0525	-0.0083	0.0592	0.0052	3.8
0.009	0	0.1117	0.0067	4
-0.0143	0.0022	0.1312	0.0015	3.8
-0.0158	-0.0091	0.1425	-0.0053	3.8
-0.024	-0.015	0.1162	-0.0038	3.8
-0.096	-0.006	0.0562	0.0015	4
-0.1298	-0.006	0.012	0.0037	4
-0.0675	0.0067	0.057	0.0067	4
-0.0038	0.021	0.0817	0.0075	3.9
0.003	0.0225	0.0585	0.006	4.1
-0.0375	-0.0015	0.0705	0.0007	3.7
-0.0413	-0.015	0.09	-0.003	4
-0.015	-0.0091	0.0742	-0.006	4
0.03	-0.0165	0.0577	-0.0075	3.9
0.1125	0.0007	0.021	-0.0053	4
0.1177	0.0037	0.024	-0.0068	3.9
0.0367	0.0127	0.0682	0.0015	4
-0.0023	0.0165	0.0255	0.0052	3.8
0.0142	-0.0015	-0.066	-0.003	3.9
0.0322	0.0045	-0.165	-0.0053	4
0.0307	0.0075	-0.1823	-0.0053	3.8
-0.027	0.0097	-0.09	-0.0038	4
-0.0578	0.0067	-0.003	-0.0068	4.1
0.0007	-0.0068	-0.0098	-0.012	3.8
0.0142	-0.0015	-0.027	-0.0053	4
-0.0436	-0.0015	-0.0143	-0.0046	3.7
-0.0683	-0.012	-0.033	-0.0068	3.9
-0.0691	-0.0075	0.0277	-0.0015	4
-0.0443	0	0.0652	0	4
-0.0038	0.0007	-0.0038	-0.0008	4.1
-0.0158	-0.0008	-0.0555	0.0007	3.8
-0.0353	0.0022	-0.0293	0.0037	4
-0.0098	-0.0008	-0.0068	0	4
0.0435	-0.0038	-0.054	-0.0038	4
0.0862	0.0015	-0.1485	-0.003	4
0.0975	-0.0068	-0.2378	-0.0053	3.8
0.0802	-0.0105	-0.1688	-0.0068	3.9
0.0397	-0.0143	-0.0683	-0.0113	4
-0.0233	-0.0218	-0.0068	-0.0113	4
-0.033	-0.012	0.0382	-0.0053	4.1
-0.0105	-0.0091	0.0517	-0.0083	4
-0.0023	-0.012	0.0952	-0.0105	4.1
0.0255	-0.015	0.1282	-0.0128	4
0.0105	-0.0181	0.1717	-0.0143	3.9
-0.0128	-0.0068	0.1747	-0.0105	4.1
-0.039	0.0165	0.144	-0.006	3.9
-0.1178	0.0202	0.1132	-0.006	4.3
-0.1485	0.0015	0.0517	0	4.1
-0.1021	0.0097	-0.1013	0.003	4
-0.0871	0.0105	-0.2881	-0.0038	4
-0.0638	-0.0038	-0.2813	-0.0098	4.1
0.0082	-0.0046	-0.1538	-0.015	4
0.0405	-0.0091	-0.0315	-0.0165	4
0.0052	0.0015	0.066	-0.012	4.1
-0.093	-0.0098	0.1177	-0.0128	4.1
-0.1238	-0.0203	0.1372	-0.0128	4
-0.0218	-0.0105	0.1132	-0.0083	4.1
0.0555	-0.0015	0.0945	0.0007	3.9
0.075	0.0202	0.0532	0.006	4.1
0.129	0.03	-0.0256	0.0052	3.9
0.225	0.018	-0.081	0	4
0.2437	0.0037	-0.0825	-0.0083	4.1
0.1365	-0.0068	-0.0128	-0.0143	3.9
0.048	-0.0105	0.0142	-0.0165	4.1
-0.0758	-0.006	-0.0023	-0.0143	4.2
-0.1913	0.0052	0.021	-0.0091	4
-0.114	0.0225	0.0382	-0.006	4
-0.0053	0.018	0.0427	-0.0038	4
0.0285	-0.0091	0.033	-0.0068	4.1
0.0195	-0.0158	0.042	-0.0046	4.1
0.0067	-0.0105	0.0082	0.0007	4
0.054	0.0015	-0.1635	0.003	4
0.084	-0.0015	-0.3608	-0.0008	3.8
0.06	-0.003	-0.3443	-0.003	4.3
0.0705	0.0052	-0.1898	-0.006	4.1
0.0772	-0.0053	-0.129	-0.0091	4
0.036	-0.0053	-0.0315	-0.0053	4.1
-0.0105	-0.0015	0.0652	-0.0023	4
-0.054	-0.0015	0.0825	-0.0023	4.2
-0.0458	-0.0083	0.1177	-0.0046	4.2
-0.0398	-0.0181	0.1065	-0.0068	4
-0.048	-0.0165	0.0832	-0.0091	4.2
-0.006	-0.006	0.084	-0.0053	4.3
-0.006	0.0075	0.063	-0.0008	4.2
-0.0735	-0.0083	0.0105	-0.0008	4.1
-0.0968	-0.0105	-0.0803	0.0052	4.1
-0.0503	0.0157	-0.1163	0.0082	4
-0.0143	0.0255	-0.0856	0.0022	4.1
-0.0015	0.0135	-0.0225	-0.0008	4.2
0.0307	0.0007	0.0307	0.003	4
0.0615	0.006	0.0157	0.0037	4.2
0.0532	-0.003	-0.0143	-0.0015	4.1
0.0367	-0.0068	-0.0256	0	4.1
0.027	0	-0.0128	0.0015	4.2
0	-0.003	-0.0128	0.0007	4
-0.0285	-0.0008	-0.0188	0	4.1
0.012	-0.0023	0.012	-0.0046	4.3
0.0757	-0.0083	0.033	-0.0113	4.1
0.0352	-0.0218	0.0547	-0.0143	4.2
-0.0225	-0.0278	0.069	-0.015	4
-0.0428	-0.0233	0.108	-0.012	4.1
-0.0383	-0.0053	0.1402	-0.003	4.1
-0.033	0.0135	0.1357	0.006	4
-0.1245	0.0255	0.1395	0.0135	4.1
-0.1958	0.0345	0.09	0.0202	3.9
-0.1043	0.0202	-0.0053	0.0202	4.2
0.048	0.0105	-0.078	0.0127	4
0.105	0.0067	-0.126	0.0052	4.2
0.1215	0.0022	-0.1335	0.0015	4.1
0.1177	0.0052	-0.1178	0.0007	4
0.0787	0.0045	-0.0668	0.0007	4
0.0532	0.0022	0.0457	-0.003	4.1
0.0022	-0.0068	0.1117	-0.0091	4.2
-0.1103	-0.0105	0.1522	-0.0098	4.1
-0.1958	-0.012	0.1477	-0.0053	4.3
-0.183	-0.0165	0.1147	-0.003	4.2
-0.1328	-0.0046	0.0855	0.003	4
-0.0308	0.003	0.0525	0.0052	4.1
0.0982	-0.003	0.0315	0.003	4
0.1935	0.0015	-0.0443	-0.0008	4
0.1942	0.0037	-0.0615	-0.0038	4.2
0.0975	-0.0023	0.0015	0.0015	4.1
-0.0368	0.0007	0.0502	0.015	4.1
-0.1253	0.0142	0.0727	0.0202	4.2
-0.06	0.0135	0.0382	0.0165	4.3
0.0547	0.006	-0.0668	0.0127	3.9
0.114	0.0007	-0.1365	0.0052	4.1
0.1035	-0.0091	-0.1358	-0.003	4.2
0.051	-0.0098	-0.0885	-0.0046	4.1
0.0022	-0.0075	0.033	-0.0015	4.1
-0.0578	0.0007	0.144	0.0007	4.1
-0.1193	0.0015	0.186	0.0022	4
-0.1118	-0.0046	0.1627	0.0097	4.2
-0.0181	0.0007	0.084	0.0135	4
0.0615	0.0015	-0.0203	0.0067	4.2
0.057	0.0015	-0.1215	0.0007	4.2
0.0255	-0.003	-0.1575	0.0007	4.1
0.0015	-0.0015	-0.0878	0.0037	4.1
-0.0165	-0.0008	0.018	0.0037	4.1
-0.003	-0.006	0.0892	0.0007	4.3
0.018	-0.0128	0.0457	0.0022	4.1
0.0592	-0.0098	-0.039	0.0045	4.2
0.1042	-0.0053	-0.06	0.003	4.2
0.1027	-0.0046	-0.0623	0.003	4.2
0.0315	-0.003	-0.0413	0.003	4.2
-0.0578	-0.0046	0.0195	0.0052	4.1
-0.0278	0.0022	0.0765	0.0067	4.1
0.0277	-0.006	0.1192	0.0052	4.3
-0.0278	-0.0083	0.141	0.0082	4.1
-0.1088	-0.0038	0.1275	0.012	4.2
-0.1013	-0.0008	0.099	0.012	4.1
-0.0698	0.0105	-0.0308	0.0082	4.2
-0.0533	0.0082	-0.1943	0.006	4.2
-0.0091	0.0142	-0.222	0.0112	4.1
-0.0143	0.012	-0.1485	0.012	4.3
0.0307	0.0105	-0.0353	0.009	4.1
0.0427	0.0007	0.0015	0.003	4.2
0.0097	-0.012	-0.0173	0.0007	4.1
0.0502	-0.0091	0.0007	-0.0008	4.3
0.0345	-0.012	0.0442	-0.003	4.1
0.0307	0.003	0.0892	0	4.2
0.018	-0.0053	0.1012	0.0007	4.2
0.0037	-0.0098	0.0787	0.0052	4.1
0.0262	0.0007	0.009	0.0067	4.1
0.0292	0.0007	-0.0368	0.0045	4.2
0.0277	-0.0023	-0.0998	0.0052	4.1
-0.0195	-0.0053	-0.159	0.003	4.2
-0.0653	-0.0015	-0.0728	0.0045	4.2
-0.114	0.0045	-0.012	0.0052	4
-0.1411	0.0105	-0.0293	0.0075	4.4
-0.123	0.0052	-0.0233	0.0052	4
-0.1155	-0.003	0.0082	0	4.4
-0.0975	-0.0038	0.0555	0.0037	4.2
-0.1028	0	0.0967	0.006	4.3
-0.0511	0.0007	0.093	0.0075	4.1
0.084	0.0052	0.06	0.0082	4.2
0.1635	0.0105	-0.024	0.0045	4.1
0.2032	0.012	-0.2048	0	4.1
0.189	0.009	-0.2505	-0.0053	4.3
0.1342	-0.0105	-0.108	-0.0083	4.2
0.0832	-0.012	-0.0233	-0.0046	4.1
0.0315	-0.0046	0.006	0.0007	4.4
-0.0023	0.0052	0.06	-0.0008	4.1
-0.0428	0.0082	0.0982	-0.0046	4.4
-0.0713	-0.0015	0.129	-0.0053	4.2
-0.0825	-0.0015	0.1732	0	4.3
-0.078	0.0007	0.174	0.0052	4.3
-0.0593	-0.0038	0.0547	0.0015	4.1
-0.0181	-0.0098	-0.1238	0.0007	4.3
0.0487	-0.0053	-0.2183	0.0007	4.3
0.0705	0	-0.1763	-0.003	4.3
0.087	0.003	-0.0825	-0.0038	4.2
0.057	0.0045	-0.024	-0.0015	4.3
-0.0158	0	0.0105	-0.0015	4.4
-0.0098	-0.003	0.039	-0.0023	4.2
0.0052	-0.0046	0.0577	-0.0008	4.2
0.012	-0.0098	0.0817	-0.0015	4.3
0.0172	-0.0135	0.0787	-0.0038	4.1
0.024	-0.0068	0.018	-0.0046	4.4
0.0247	0.015	-0.0713	-0.003	4.3
-0.0091	0.018	-0.1493	-0.003	4.1
-0.012	-0.0023	-0.1441	-0.0015	4.4
0.0247	-0.0015	-0.096	-0.0046	4.1
0.045	-0.0091	-0.1073	-0.0083	4.5
0.039	-0.006	-0.1163	-0.0068	4.2
0.0247	-0.0068	-0.075	-0.012	4.2
-0.027	-0.0143	0.0232	-0.0135	4.5
-0.1013	-0.0008	0.114	-0.0083	4.3
-0.132	0.0045	0.1395	-0.0023	4.3
-0.0953	-0.0046	0.1605	0.0022	4.3
-0.0578	-0.0165	0.105	0.0045	4.1
-0.075	-0.012	-0.0143	0.0097	4.4
-0.0593	-0.0068	-0.117	0.012	4.1
-0.0008	0.0202	-0.15	0.0135	4.4
0.0802	0.0375	-0.1365	0.0127	4.2
0.1897	0.0067	-0.0945	0.0037	4.4
0.207	-0.0015	-0.0721	0.003	4.2
0.144	-0.0053	-0.1088	-0.0015	4.1
0.0825	-0.0105	-0.0443	-0.0053	4.2
0.0255	-0.0008	0.03	-0.0015	4.2
-0.0075	0.0112	0.0922	-0.0053	4.4
-0.057	0.0127	0.1582	-0.0053	4.1
-0.1043	-0.0188	0.177	-0.0075	4.2
-0.1343	-0.027	0.195	-0.0046	4.2
-0.1268	-0.0113	0.135	0.0022	4.2
-0.0443	0.0127	0.078	0.0052	4.2
-0.0195	0.03	0.1072	0.009	4.3
-0.1118	0.0052	0.0825	0.0075	4.1
-0.1485	-0.012	-0.0495	0.0015	4.5
-0.0998	-0.006	-0.1148	0.0052	4.2
-0.057	0.0007	-0.1103	0.0052	4.4
-0.0165	-0.003	-0.0675	0.0015	4
-0.003	-0.0023	-0.0195	0.0015	4.1
0.0352	0.003	-0.0525	-0.0023	4.1
0.1312	0.0007	-0.0825	-0.0083	4.1
0.1627	-0.0023	-0.0533	-0.0113	4.4
0.1267	-0.0091	0.0345	-0.0135	4.1
0.069	-0.0038	0.0885	-0.0098	4.1
0.0067	-0.0015	0.0637	-0.0068	4.2
-0.0181	-0.0068	0.0412	-0.0023	4.1
0.0007	-0.0053	0.0015	0.0067	4.1
0.0337	0.009	-0.0203	0.0127	4.1
0.0067	0.024	0.0232	0.012	4.3
-0.0578	0.012	0.0457	0.0075	4.2
-0.075	0.006	0.0322	0.0037	4
-0.0511	0.003	0.0022	0.0007	4.3
-0.0233	-0.0068	-0.0218	-0.0008	4
0.0367	-0.0008	-0.0068	0.0015	4.2
0.096	-0.0008	-0.0015	0.0022	4.1
0.0922	-0.0053	-0.0083	0.0015	4.1
0.0787	-0.0098	0.0165	-0.0008	4.3
0.024	-0.012	0.0675	0.0007	4
-0.081	0.0022	0.0975	0.0037	4.1
-0.1073	0.006	0.1207	0.0037	4
-0.0578	0.0052	0.1312	0.009	4.2
-0.0638	0.006	0.1162	0.0105	4.1
-0.0893	-0.0015	0.0592	0.0067	4.2
-0.0083	-0.0015	-0.024	0.003	4.1
0.0862	-0.0008	-0.0683	-0.003	4.1
0.0795	-0.003	-0.0773	-0.0053	3.9
-0.0023	0.0007	-0.0405	-0.0023	4.1
-0.0495	0.003	-0.012	-0.0008	4
-0.0278	0.0052	-0.0165	0.0015	4.2
-0.063	-0.0023	-0.003	0.0007	4.1
-0.0525	-0.012	0.0232	0.003	4
0.0202	-0.0023	0.0457	0.015	4.3
0.099	0.0097	0.0165	0.0195	4.1
0.1852	0.0112	-0.0428	0.0142	4.3
0.165	0.006	-0.1313	0.0067	4
0.159	0.0015	-0.1328	-0.0015	4.3
0.1747	-0.0068	-0.0346	-0.0091	4.4
0.15	-0.0143	0.03	-0.012	4.4
0.0727	-0.0233	0.1125	-0.0143	4.3
-0.0788	-0.0203	0.1905	-0.012	4.2
-0.2318	-0.0053	0.2175	-0.003	4.3
-0.3203	-0.0068	0.1935	0.0082	4.4
-0.2595	0.0097	0.1335	0.0187	4.3
-0.1575	0.024	0.0577	0.0247	4.4
-0.0885	0.0037	-0.105	0.0225	4.2
-0.0105	0.0007	-0.3458	0.0195	4.2
0.0232	0.0015	-0.4673	0.0142	4.3
0.0135	0.0015	-0.3638	0.0067	4.4
0.015	0.003	-0.1688	0.0045	4.4
0.0105	-0.0091	-0.033	0.003	4.3
0	-0.0038	0.0292	0.0067	4.5
0.0202	0.0067	0.0592	0.009	4.3
0.0457	0.003	0.0292	0.006	4.4
0.093	-0.006	0.0045	0.0045	4.3
0.126	-0.0053	0.0615	0.0007	4.4
0.1012	-0.003	0.0705	-0.0008	4.5
0.0712	-0.0008	0.0165	0	4.5
-0.0038	-0.0008	0.024	-0.003	4.5
-0.1125	-0.0053	0.0532	-0.0053	4.6
-0.1553	-0.0046	0.0592	-0.006	4.4
-0.1118	-0.003	0.0637	-0.0023	4.7
-0.015	0.0015	0.0877	0	4.5
0.0435	0.0022	0.1035	-0.003	4.6
0.0247	-0.0038	0.0832	-0.0053	4.5
0.0307	-0.0015	0.0172	-0.006	4.5
0.081	0.0015	-0.0533	-0.0053	4.6
0.06	-0.0083	-0.039	-0.0075	4.4
0.012	-0.0098	0.0015	-0.0053	4.7
0.0157	0.0022	0.033	-0.0015	4.4
-0.003	0.0067	0.0345	-0.003	4.7
-0.0068	0.0075	-0.0278	-0.003	4.5
0.0435	0.0052	-0.078	-0.003	4.5
0.0922	-0.0038	-0.081	-0.0105	4.6
0.1117	-0.0128	-0.096	-0.0143	4.7
0.1192	-0.012	-0.0555	-0.0158	4.5
0.0862	-0.006	0.0352	-0.0135	4.7
0.0127	0.006	0.0765	-0.0091	4.6
-0.0285	0.009	0.096	-0.0068	4.7
-0.0691	0.0067	0.0945	0	4.6
-0.0915	0.0067	0.0915	0.0007	4.7
-0.0825	-0.006	0.0885	-0.0075	4.6
-0.108	-0.0098	0.063	-0.0128	4.5
-0.1065	-0.0008	-0.0135	-0.0165	4.6
-0.099	0.0105	-0.06	-0.0158	4.5
-0.1185	0.0097	-0.0323	-0.012	4.8
-0.0615	0.0105	0.0052	-0.0113	4.5
-0.0008	0.0015	0.0825	-0.0158	4.6
0.0127	-0.012	0.1335	-0.0158	4.7
0.0405	-0.012	0.1207	-0.0105	4.6
0.0682	-0.0195	0.0577	-0.0083	4.6
0.0697	-0.0143	-0.0023	-0.006	4.7
0.0232	-0.012	-0.0135	-0.0046	4.5
0.018	-0.0015	-0.081	0.003	4.7
0.042	0.021	-0.1388	0.0067	4.5
0.033	0.018	-0.1493	0.0022	4.8
0.0352	0.0045	-0.1485	-0.0046	4.6
0.0667	-0.0046	-0.0825	-0.0105	4.6
0.0862	-0.0053	0.0067	-0.0091	4.7
0.036	0.0015	0.084	-0.0046	4.4
-0.0458	0.0112	0.1117	0.0007	4.7
-0.1208	0.0045	0.1087	-0.0015	4.6
-0.0638	-0.0023	0.0652	-0.0075	4.7
0.0427	-0.0046	-0.0068	-0.0105	4.6
0.063	-0.0091	-0.0218	-0.0143	4.5
0.0532	-0.0083	-0.0068	-0.015	4.6
-0.0105	-0.0098	0.018	-0.0143	4.8
-0.0398	-0.0128	0.0502	-0.0105	4.5
-0.0308	-0.0143	0.039	-0.006	4.7
-0.0195	-0.0075	0.0037	-0.0008	4.5
-0.0173	-0.0023	-0.0195	-0.0008	4.7
-0.0053	-0.0038	-0.0728	-0.0046	4.6
0.0352	0	-0.0728	-0.0068	4.8
-0.027	0.0015	-0.0038	-0.0091	4.6
-0.0825	-0.0083	0.0277	-0.0128	4.5
-0.0706	-0.0083	0.0345	-0.0105	4.8
-0.0353	0.012	0.003	-0.0046	4.5
-0.0165	0.0157	0.0577	0.0015	4.8
-0.003	0.0157	0.1492	0.0052	4.4
0.0367	0.0082	0.078	0.0052	4.7
0.0502	0.0015	-0.1365	0.0022	4.6
0.0855	0.0045	-0.3705	-0.003	4.8
0.069	0	-0.327	-0.0091	4.5
0.0015	0.0075	-0.0915	-0.0083	4.6
-0.0315	0.0015	0.0307	-0.0128	4.6
-0.0338	-0.0128	0.1185	-0.0203	4.6
-0.0008	-0.0143	0.1807	-0.0165	4.6
0.009	-0.0038	0.1897	-0.0053	4.8
-0.0495	0.003	0.198	0.003	4.5
-0.1103	0.003	0.156	0.0105	4.6
-0.0428	0.009	0.0367	0.0112	4.5
0.042	0.0052	-0.162	0.0052	4.5
0.0427	0.0112	-0.2415	0.0045	4.7
0.0397	0.012	-0.1463	0.0007	4.5
0.036	-0.0015	-0.1163	-0.0046	4.8
0.009	-0.0128	-0.1553	-0.0075	4.7
-0.048	-0.0181	-0.1396	-0.0105	4.5
-0.0608	-0.0068	-0.057	-0.0053	4.5
-0.0225	0.0127	0.0442	0	4.7
0.0187	0.0195	0.0847	0	4.7
0.084	0.0037	0.1162	-0.003	4.7
0.0795	0.003	0.12	-0.0015	4.5
0.018	0.003	0.0705	-0.0023	4.7
-0.0128	-0.0091	0.0337	-0.0083	4.7
0.0022	-0.0083	-0.0165	-0.0046	4.9
0.033	-0.0128	-0.0878	-0.006	4.5
0.0015	-0.0143	-0.1388	-0.0091	4.9
-0.0323	-0.0046	-0.0653	-0.0053	4.7
-0.0248	0.006	0.0502	-0.006	4.8
0.009	0.0052	0.0727	-0.0075	4.7
0.0427	0	0.0652	-0.0046	4.7
0.0262	0.009	0.033	-0.003	4.8
-0.0008	0.003	0.0232	-0.003	4.9
-0.0195	-0.0023	0.0172	0.0007	4.7
0.0052	-0.006	-0.0428	0.0052	4.6
0.0555	-0.003	-0.1013	0.0075	4.7
0.1102	0.0015	-0.1568	0.0037	4.8
0.1657	-0.006	-0.1598	-0.0008	4.8
0.0952	-0.0015	-0.1208	-0.0023	4.6
-0.0383	-0.0046	-0.0593	-0.0053	4.7
-0.075	-0.0091	0.0157	-0.0068	4.7
-0.0443	-0.0083	0.0457	-0.006	4.9
-0.0203	-0.0091	0.0765	-0.0068	4.7
-0.0188	-0.006	0.0847	-0.0075	4.9
-0.0158	-0.006	0.0442	-0.0068	4.8
-0.0488	0.0007	0.0292	-0.0053	4.8
-0.1028	0.0045	0.054	-0.0053	4.9
-0.1028	0.003	0.0675	-0.003	4.8
-0.057	0.0007	0.0637	0.0007	4.8
-0.03	0	0.0577	0.006	4.8
-0.0908	0.0045	0.0772	0.0052	4.9
-0.1598	0.0045	0.06	0.0045	4.9
-0.1013	0.0067	-0.0023	0.0045	4.8
0.0165	0.0015	-0.0436	0.0007	4.9
0.0712	-0.003	-0.0691	0.003	4.7
0.0795	-0.0068	-0.1065	0.003	4.9
0.0697	-0.015	-0.2003	0.0015	4.9
0.0495	-0.0098	-0.165	0.003	4.7
0.018	0.0097	-0.0683	0.0045	4.8
-0.0413	0.018	-0.0503	0.0067	4.8
-0.0653	0.0067	0.0465	0.0067	4.9
0.0217	0.0045	0.129	0.0067	4.8
0.1095	-0.003	0.1215	0.0022	4.9
0.093	-0.0083	0.009	0.0015	4.7
0.0052	0.0015	-0.0923	0.0015	4.8
-0.105	0.0067	-0.0668	0.0045	4.7
-0.1118	0.0142	-0.0308	0.0067	4.8
-0.0623	0.0052	-0.0015	-0.0015	4.7
-0.0008	-0.0135	0.0045	-0.0068	5
0.0592	-0.0135	0.0427	-0.0053	4.7
0.0112	-0.012	0.099	-0.0046	4.8
0.0105	0.0022	0.099	0.0015	4.9
0.0225	0.0172	0.0862	0.0067	4.7
-0.0233	0.0097	0.0165	0.009	4.9
-0.03	0.0082	-0.0585	0.009	4.7
-0.0218	0.0045	-0.1493	0.0052	4.9
0.0367	-0.0008	-0.2243	0.003	4.9
0.1125	0	-0.162	-0.0008	4.9
0.141	-0.0075	-0.0975	-0.0053	4.8
0.1267	-0.0143	-0.0675	-0.0068	4.9
0.0825	-0.0203	-0.0225	-0.0053	4.8
0.0427	-0.0158	0.0082	-0.0053	4.8
-0.0203	-0.0046	0.06	-0.003	4.9
-0.0818	0.0082	0.0967	-0.0008	4.8
-0.0735	0.0112	0.0997	0.0007	4.9
-0.0465	-0.003	0.0907	0.0007	4.8
-0.0315	-0.0053	0.0622	0.0015	4.8
0.0075	-0.0008	0.0555	0.003	4.9
0.0502	0.0022	0.066	0.006	4.7
0.0727	0.0075	0.078	0.0082	4.7
0.0555	0.0015	0.0975	0.0022	4.9
-0.027	-0.0053	0.1102	-0.0038	4.6
-0.0915	-0.0165	0.0937	-0.0083	4.9
-0.0953	-0.0135	0.057	-0.0075	4.7
-0.0856	-0.0023	0.06	-0.003	4.8
-0.0713	0.0045	0.0675	0	4.6
-0.075	0.018	0.0352	0.0082	4.7
-0.0383	0.0187	0.0075	0.012	4.7
0.0667	0.006	-0.0181	0.009	4.7
0.1095	0.0045	-0.0675	0.0067	4.7
0.1065	0.0015	-0.0878	0.0015	4.7
0.0997	-0.0053	-0.027	-0.0015	4.6
0.0922	-0.0038	0.0315	-0.0053	4.7
0.072	-0.0023	-0.0315	-0.0053	4.5
0.0202	-0.0023	-0.0765	-0.0053	4.7
-0.0008	-0.0068	0.0202	-0.0083	4.8
0.0172	-0.0098	0.1275	-0.0053	4.7
0.0562	-0.0135	0.1545	-0.0046	4.8
0.0375	-0.012	0.1365	-0.0015	4.7
-0.0735	0.0015	0.1425	0.0045	4.8
-0.1711	0.0015	0.117	0.003	4.7
-0.1875	-0.0015	-0.0458	0.0022	4.7
-0.1178	0.003	-0.2055	0.0045	4.6
-0.0308	0.0037	-0.2018	0.0067	4.5
0.027	0.0045	-0.117	0.009	4.7
0.033	0.0075	-0.0953	0.0127	4.7
-0.0105	0.0082	-0.1568	0.0142	4.7
0.0082	-0.0046	-0.1335	0.0052	4.8
0.0652	-0.0128	-0.0668	-0.0015	4.5
0.03	-0.0113	-0.0233	-0.0023	4.9
-0.0046	-0.0023	0.0502	-0.003	4.7
0.0247	0.0142	0.048	-0.0015	4.7
0.0022	0.0142	0.0075	0	4.5
-0.006	0.012	-0.0383	0.0015	4.6
0.018	0.0135	0.0045	0.003	4.9
-0.0256	-0.0046	0.105	-0.0008	4.6
-0.0338	-0.0105	0.1065	0.0022	4.7
-0.0165	-0.0038	0.0997	0.0067	4.7
-0.0105	0.0007	0.06	0.0052	4.8
-0.0278	-0.003	-0.0135	0.0015	4.8
-0.0968	-0.0098	-0.114	-0.0008	4.7
-0.0653	-0.003	-0.0856	-0.0008	4.8
-0.0143	-0.0046	0.0637	-0.0015	4.9
-0.0158	-0.0083	0.105	-0.0053	4.7
-0.0075	-0.015	0.1447	-0.0046	4.9
-0.042	-0.0128	0.1762	0.0015	4.7
0.009	0.018	0.1335	0.015	4.8
0.0952	0.0345	0.0142	0.015	4.7
0.1027	0.0142	-0.1448	0.0097	4.8
0.0915	0.0067	-0.1973	0.0052	4.7
0.0472	-0.0023	-0.147	0.0007	4.6
0.009	-0.0128	-0.0773	-0.003	4.9
-0.0023	-0.0135	-0.033	-0.0053	4.7
0.0375	-0.012	0.012	-0.0038	4.8
0.0427	0.0067	0.0735	0.003	4.9
-0.0256	0.015	0.1005	0.003	4.7
-0.0503	0.0007	0.075	-0.0023	4.8
0.0015	-0.0053	0.0292	-0.0046	4.7
0.1117	-0.0128	-0.0008	-0.0075	4.9
0.156	-0.012	0.0142	-0.006	4.9
0.1087	0.0067	0.069	0.0015	4.8
0.0465	0.009	0.0705	0.003	4.9
-0.0038	-0.0038	0.0007	0.0045	4.6
-0.0293	-0.0083	-0.045	0.0045	4.9
-0.0735	0.003	-0.0585	0.0067	4.7
-0.1125	0.0105	-0.0458	0.0082	4.9
-0.0653	0.0015	-0.048	0.0015	4.7
0.018	-0.0015	-0.0743	0.0037	4.9
0.024	0.0015	-0.0818	0.0007	4.9
-0.0555	0.0007	-0.0593	-0.0046	4.8
-0.1245	-0.0015	0.0075	-0.0023	4.8
-0.0923	-0.0083	0.0315	-0.003	4.9
-0.0465	-0.0083	0.0217	-0.003	4.9
-0.0008	-0.006	0.0052	-0.0015	4.9
0.0502	-0.0015	0.018	0	4.8
0.036	0.0015	0.0615	-0.0008	4.8
0.0382	0.0015	0.1005	0.0007	4.9
0.051	0.0052	0.126	0.0022	4.7
0.0577	0.003	0.054	0.003	4.9
0.0247	0.0052	-0.0555	0.0045	4.7
-0.0225	-0.0008	-0.0848	0.0045	4.9
-0.057	-0.0046	-0.006	0.0045	4.9
-0.1006	-0.0023	0.0307	0.0037	4.9
-0.0368	-0.0046	-0.024	0.0052	4.8
0.0382	0.0037	-0.0818	0.0067	4.7
0.066	0.0037	-0.114	0.0052	4.9
0.0817	0.003	-0.1178	0.0007	4.9
0.0277	0	-0.1125	-0.0046	4.7
-0.0165	-0.0173	-0.0503	-0.0075	4.7
-0.015	-0.0203	0.039	-0.0091	4.8
0.03	-0.0203	0.0877	-0.0068	4.9
0.0697	-0.0091	0.1042	0.0007	4.7
0.0105	0.0022	0.099	0.006	4.9
-0.0473	0.003	0.069	0.0052	4.9
-0.0091	0.0127	0.0562	0.006	4.7
-0.0315	0.0157	0.0322	0.0075	4.8
-0.1665	0.0157	-0.0405	0.0075	4.8
-0.186	0.0105	-0.0945	0.0045	4.9
-0.0563	0.0015	-0.168	0	4.8
0.0855	-0.003	-0.2183	-0.0015	4.7
0.1725	-0.0075	-0.1215	-0.006	4.9
0.099	-0.0038	-0.0315	-0.0083	4.6
-0.0195	-0.0008	0.0195	-0.0105	4.8
-0.0728	-0.0113	0.075	-0.0128	4.7
-0.1545	-0.0218	0.0622	-0.0113	4.9
-0.159	-0.0135	0.0855	-0.0068	4.8
-0.078	0.0052	0.084	-0.0053	4.7
-0.0075	0.021	0.0675	-0.0008	4.8
0.066	0.018	0.0757	0.009	4.7
0.0787	0.0007	0.048	0.012	4.8
0.1072	0	-0.0098	0.0052	4.8
0.1777	-0.0053	-0.1021	-0.0038	4.5
0.2002	-0.0083	-0.1493	-0.0053	4.8
0.1417	-0.0015	-0.1365	-0.0046	4.5
0.0442	-0.0046	-0.0458	-0.0046	4.9
-0.0233	0.0015	0.0337	-0.0053	4.7
-0.0788	-0.0038	0.042	-0.0075	4.9
-0.0998	0.0007	0.0667	-0.0068	4.8
-0.0788	0.0067	0.0337	-0.0046	4.8
-0.0233	-0.0038	-0.0278	-0.0068	4.7
0.027	-0.0015	-0.0405	-0.0053	4.7
0.033	0.0052	-0.048	-0.0015	4.6
0.0277	0.0067	-0.0548	-0.0008	4.8
-0.0046	0.0052	-0.0533	-0.0015	4.7
-0.0488	0.0045	-0.0308	-0.0008	4.7
-0.0578	0.0007	0.0097	-0.0023	4.7
-0.0338	-0.0046	0.0397	-0.0068	4.7
-0.012	-0.0015	0.063	-0.0053	4.9
0.0022	-0.0008	0.0862	-0.0053	4.7
0.0292	-0.0046	0.1162	-0.0068	4.7
0.0345	-0.0098	0.1432	-0.0075	4.7
0.0127	-0.0128	0.168	-0.0091	4.8
-0.0203	-0.0105	0.1747	-0.0046	4.7
-0.0743	0.0015	0.1237	0.003	4.7
-0.09	0.0082	0.0442	0.003	4.8
-0.0765	-0.0046	-0.0533	0.0007	4.8
-0.0713	-0.0158	-0.135	-0.0008	4.7
-0.0181	-0.0113	-0.1741	0.0015	4.7
0.0622	0.009	-0.1965	0.0082	4.5
0.1252	0.009	-0.1411	0.0045	4.9
0.1597	-0.003	-0.0293	-0.0008	4.6
0.1477	-0.0053	0.0187	-0.0015	4.9
0.0945	-0.0098	-0.075	-0.0046	4.6
0.0307	0.009	-0.1313	-0.003	4.6
-0.0308	0.021	-0.042	-0.0046	4.7
-0.093	0.0105	0.033	-0.0038	4.8
-0.105	-0.0008	0.0705	-0.003	4.8
-0.0856	-0.0053	0.0937	-0.0038	4.7
-0.0308	-0.0091	0.114	-0.0053	4.6
0.0127	-0.0173	0.081	-0.0068	4.8
-0.0256	-0.0091	0.0367	0.0015	4.8
-0.0458	0.0105	0.0255	0.009	4.7
-0.0743	0.0232	0.0015	0.012	4.7
-0.0878	0.018	-0.003	0.0157	4.7
-0.006	0.015	0.0307	0.0142	4.9
0.0742	0.0097	0.0082	0.0067	4.6
0.099	0.0067	-0.0825	0.0045	4.8
0.1087	0.003	-0.1065	-0.0015	4.7
0.0892	-0.0128	-0.0803	-0.0053	4.8
0.0315	-0.0158	-0.0233	-0.003	4.7
-0.024	-0.0105	0.0472	-0.0046	4.8
-0.093	-0.0053	0.06	-0.0046	4.8
-0.075	0.0015	0.0232	-0.0046	4.7
0.0007	-0.0053	-0.0248	-0.0068	4.9
0.0285	-0.0158	-0.012	-0.0068	4.8
0.0315	-0.012	0.0157	-0.003	4.7
-0.024	-0.0091	0.057	0	4.8
-0.0405	-0.0068	0.1567	-0.0008	4.9
0.0232	0.0015	0.2092	0.0022	4.9
0.0112	0.0007	0.1882	0.0007	4.9
-0.105	-0.003	0.0442	0.0037	4.8
-0.129	0.006	-0.1508	0.012	4.9
-0.027	0.0082	-0.1553	0.0142	4.6
0.0705	-0.003	-0.156	0.0142	4.9
0.1275	-0.0091	-0.2115	0.009	4.7
0.09	-0.0181	-0.1441	0.0045	4.9
0.0457	-0.0165	-0.0518	0.0037	4.8
0.0255	0.0015	0.0345	0.006	4.7
0.0165	0.0195	0.063	0.0082	5
0.042	0.0255	0.0495	0.009	4.9
0.0577	0.0105	-0.0091	0.009	4.9
0.0787	-0.0075	-0.0893	0.0037	4.9
0.0727	-0.0046	-0.0803	-0.0015	4.9
0.0097	0.0007	0.0015	-0.0046	4.7
-0.0346	0.0052	0.0382	-0.0083	4.9
-0.0278	0.009	0.012	-0.012	4.8
-0.1238	-0.0105	0.0337	-0.0158	4.8
-0.2828	-0.0165	0.0757	-0.0105	4.8
-0.2828	-0.012	0.0615	-0.0038	5
-0.1515	-0.0083	0.003	0.0007	4.7
-0.0181	-0.0046	0.0022	0.0045	5
0.0667	-0.0046	0.042	0.0075	4.8
0.1012	0.0045	0.0652	0.0105	4.9
0.1372	0.0052	0.0637	0.0105	4.8
0.141	0.0022	0.0262	0.0127	4.8
0.0292	-0.0038	-0.054	0.0082	4.9
-0.0458	-0.0008	-0.0638	0.0045	4.7
-0.0383	0.0052	-0.0113	0.0045	4.9
0.0007	0	-0.075	0.0022	4.9
0.0525	0.003	-0.186	-0.0008	4.7
0.0232	0.0052	-0.1763	-0.006	4.9
-0.0053	-0.0053	-0.0263	-0.0083	4.9
0.0247	-0.0083	0.0787	-0.0046	4.8
0.0675	-0.0053	0.1012	-0.0068	4.9
0.1012	-0.0128	0.1222	-0.0091	4.8
0.108	-0.006	0.1005	-0.0008	4.9
0.0712	0.0097	0.0472	0.0045	4.8
0.0172	0.006	0.003	0.0037	4.9
0.018	-0.0023	0.0067	0.0022	4.9
0.0292	0.0007	0.0105	0.003	4.9
0.021	0.0015	-0.0465	0.0052	4.7
-0.0038	0.0105	-0.084	0.0067	4.8
-0.042	0.0075	-0.0653	0.0007	4.9
-0.0323	-0.0091	-0.0765	-0.003	4.7
-0.024	-0.0053	-0.0623	-0.0015	4.8
-0.0203	-0.0105	0.012	-0.0023	4.8
0.0075	-0.0053	0.0877	0.003	4.8
0.0142	0.0082	0.1185	0.0045	4.9
-0.0105	0.0157	0.1027	0.0037	4.7
-0.0293	0.012	0.0967	0.0037	4.8
-0.015	-0.0083	0.0457	-0.0046	4.7
0.0045	-0.0105	-0.0653	-0.0053	4.8
0.0045	-0.0091	-0.1118	-0.0053	4.7
-0.0158	-0.0053	-0.0428	-0.0053	4.7
-0.0158	-0.003	0.012	-0.0068	4.9
-0.0315	-0.0068	0.0487	-0.003	4.7
-0.0706	0.003	0.0787	-0.0015	4.7
-0.0721	0.0007	0.0727	-0.0038	4.8
-0.027	-0.0128	0.0735	-0.0046	4.6
-0.0173	-0.0091	0.048	-0.0053	4.9
-0.042	-0.0046	0.0337	-0.006	4.7
0.0202	0.0007	0.0412	-0.0023	4.7
0.0697	0.0097	0.0405	-0.0008	4.8
0.0157	0.0097	0.0427	-0.0008	4.7
-0.0653	0.006	-0.0038	0.0052	4.8
-0.0938	0.0135	-0.0863	0.012	4.7
-0.057	0.0127	-0.0856	0.0112	4.6
0.0142	0.0067	-0.0495	0.0067	4.7
0.0742	0.0082	-0.0795	0.0045	4.6
0.0562	0.006	-0.1043	0.0007	4.8
0.0142	0.0015	-0.0728	-0.0038	4.7
-0.0518	-0.0015	-0.0436	-0.0083	4.9
-0.0803	-0.0083	-0.0233	-0.012	4.7
-0.0225	-0.0181	0.0375	-0.0143	4.7
-0.0218	-0.0225	0.087	-0.015	4.9
-0.0653	-0.024	0.093	-0.012	4.8
-0.0405	-0.0188	0.1162	-0.0068	4.9
0.027	0	0.1155	-0.0008	4.7
0.0225	0.0165	0.0645	0.0015	4.7
0.0105	0.0067	0.0165	0.003	4.8
0.0172	-0.0053	0.0045	0.003	4.8
-0.0158	0.003	0.012	0	4.9
-0.033	-0.0015	0.0052	-0.0015	4.8
-0.003	0.0075	-0.0436	0.0052	4.9
0.0577	0.009	-0.066	0.009	4.8
0.0855	0.0022	-0.0458	0.0075	4.9
0.0577	0.0022	-0.0181	0.0022	5.1
0.0232	-0.0075	-0.024	-0.0008	4.6
0.03	-0.0075	-0.0465	-0.0008	4.9
0.0142	-0.006	0.0367	0	4.8
-0.0383	0.0007	0.0832	0.0045	4.9
-0.0398	0.003	0.0435	0.0075	5
-0.0015	0.0067	-0.0256	0.009	4.7
0.039	0.0135	-0.0938	0.0105	4.9
0.051	0.0067	-0.0885	0.0067	4.9
0.0532	-0.0046	-0.066	0.003	4.7
0.0517	-0.0075	-0.0428	-0.0015	4.9
0.0435	-0.0105	-0.0375	-0.0053	4.8
0.0292	-0.0158	-0.0158	-0.0068	4.9
-0.0218	-0.0113	0.0262	-0.0046	4.8
-0.039	-0.0015	0.0202	-0.0008	5
-0.0353	0.0015	-0.003	0.003	5
-0.0143	-0.0008	-0.0293	0.006	4.9
0.0405	0.012	-0.0623	0.0075	5.2
0.0465	0.0097	-0.0413	0.0052	4.8
0.0502	0.0067	0.0232	0.0037	5
0.0495	0.0142	0.0585	0.0015	5.2
0.0345	-0.003	0.042	-0.0046	4.8
0.0435	-0.0053	-0.027	-0.0053	4.9
0.0352	-0.0053	-0.0638	-0.0023	4.9
0.0052	-0.0046	-0.0203	-0.0038	4.9
-0.0105	-0.0075	0.039	-0.0068	4.9
0.003	-0.0173	0.075	-0.0083	4.9
-0.003	-0.0143	0.0052	-0.0053	5
-0.0285	-0.0008	-0.1065	0.0007	4.9
-0.0503	0.0172	-0.1298	0.006	5.1
-0.0578	0.0142	-0.0765	0.0075	5
-0.0383	0.009	-0.0203	0.0045	5
-0.0465	0.0067	-0.0308	0.003	5.1
-0.0608	-0.0008	-0.0353	0.0015	4.9
-0.0278	-0.0008	-0.0225	0.0007	5
-0.006	-0.0046	-0.003	-0.0015	4.9
0.006	-0.0068	0.0435	-0.0046	5.1
0.0315	-0.0053	0.0765	-0.0023	4.9
0.054	-0.0068	0.084	-0.0008	5.1
0.0645	-0.0083	-0.0278	0.0015	4.9
0.0585	-0.0068	-0.198	-0.0015	5.1
0.015	-0.0091	-0.225	-0.006	5
-0.0428	-0.0038	-0.1118	-0.003	5
-0.0668	0.0082	-0.0285	-0.0008	4.9
-0.0608	0.006	0.051	0.0022	5.2
-0.0443	0.0067	0.0975	0.0052	4.9
-0.054	0.0067	0.066	0.0037	5.1
-0.0443	0.0022	-0.0091	0.0052	4.9
-0.0046	0.0067	-0.1155	0.0037	5
0.0262	0.0015	-0.0795	0.0007	5
0.0202	-0.0015	0	0.003	4.9
0.0232	0	0.0352	0.0015	5.1
0.066	-0.0053	0.1012	0.0015	4.9
0.0742	-0.0008	0.1432	0.0045	4.9
0.0517	0.0007	0.1702	0.003	4.9
0.0255	0.0015	0.1387	0.0037	4.9
-0.0091	0.0007	0.0667	0	4.9
-0.0555	-0.0068	0.012	-0.0015	5
-0.0638	-0.0008	-0.0256	0.0007	4.9
-0.042	0.003	-0.0465	0.0015	5.1
-0.0338	-0.0008	-0.0945	0	4.9
-0.0225	-0.0008	-0.1088	-0.0015	4.9
-0.03	-0.0053	-0.0308	-0.003	4.7
-0.0323	-0.003	0.0292	-0.0015	4.9
-0.012	0.0015	0.0465	-0.0046	4.9
0.0067	0.0052	0.0667	-0.0053	4.9
0.0262	0.0112	0.0615	-0.006	4.9
0.0465	0.0052	0.0292	-0.0068	4.9
0.033	0.0007	0.0022	-0.0068	5
-0.024	0.0015	0.018	-0.0083	4.8
-0.057	-0.0083	0.0517	-0.0105	4.9
-0.0293	-0.0098	0.0787	-0.0105	5
0.0045	-0.0113	0.114	-0.0113	4.9
-0.0188	0.0015	0.1297	-0.0053	4.8
-0.0713	0.0217	0.1335	0	4.9
-0.0706	0.012	0.1222	-0.0008	4.7
-0.033	-0.003	0.0502	-0.0008	5
-0.0068	-0.0008	-0.0518	-0.0015	4.7
0.0202	-0.0075	-0.0548	-0.0083	5
0.024	-0.0075	0.0232	-0.0068	4.9
0.0345	-0.0015	0.0622	-0.0053	4.9
0.057	0.006	0.1132	-0.003	4.9
0.0322	0.012	0.1447	-0.0015	4.8
0.0502	-0.0038	0.0465	-0.0015	5.1
