File Name: 7Nmar.log
Channel 4: 'Recto Femoral', 8147 values, engineering units: mV, no filters.
Channel 5: 'Biceps Femoral', 8147 values, engineering units: mV, no filters.
Channel 6: 'Vasto Medial', 8147 values, engineering units: mV, no filters.
Channel 7: 'EMG Semitendinoso', 8147 values, engineering units: mV, no filters.
Channel 8: 'Flexo-Extension', 8147 values, engineering units: deg, no filters.

-0.0135	0.0067	0.012	-0.105	15.8
-0.012	0.018	-0.0083	-0.0465	15.3
-0.0143	0.0075	-0.0143	0.012	15.3
-0.0181	0.0015	-0.0195	0.0412	15.3
-0.0203	-0.0053	-0.024	0.0442	15.1
-0.024	-0.0046	-0.0203	0.054	15.1
-0.0263	-0.0015	-0.0173	0.0697	15
-0.0293	0.0007	-0.0181	0.0772	14.7
-0.0323	0.006	-0.0218	0.0847	14.8
-0.0293	0.0022	-0.0233	0.0697	14.4
-0.024	-0.0038	-0.027	0.0652	14.6
-0.0143	-0.0083	-0.027	0.0555	14.4
-0.0046	-0.0083	-0.0218	0.0465	14.4
0.0015	-0.0113	-0.0143	0.0382	14.2
0.0067	-0.024	-0.0083	0.0217	14.1
0.0112	-0.0315	-0.0083	0.018	14
0.0157	-0.0346	-0.0098	0.0082	13.7
0.015	-0.0443	-0.0173	0.0067	13.9
0.0202	-0.0398	-0.0308	0.012	13.8
0.021	-0.0143	-0.0405	0.0202	13.7
0.0232	0.018	-0.0465	0.0217	13.7
0.0232	0.0517	-0.0518	0.015	13.8
0.0187	0.0802	-0.0585	0.012	13.4
0.018	0.09	-0.06	0.0052	13.5
0.0112	0.0817	-0.0638	-0.0195	13
0.006	0.0825	-0.066	-0.0803	13.3
0.0045	0.0682	-0.0608	-0.0983	12.9
0.0045	0.0165	-0.0548	-0.0495	13.2
0.0052	-0.0623	-0.048	-0.0091	12.8
0.0075	-0.1275	-0.0398	0.0615	13
0.0082	-0.1073	-0.0346	0.0735	12.6
0.0097	-0.0495	-0.0383	0.0015	12.7
0.0157	0.0232	-0.0338	0.009	12.6
0.0202	0.0592	-0.03	0.0045	12.7
0.0247	0.0495	-0.027	-0.0023	12.5
0.0262	0.0292	-0.0225	0.009	12.3
0.0307	-0.0503	-0.0225	-0.0068	12.3
0.039	-0.0856	-0.024	0.0007	12.3
0.0442	-0.0653	-0.0315	-0.0075	12.3
0.0412	-0.0405	-0.0285	-0.0068	12.1
0.0397	-0.0233	-0.0225	-0.006	12.2
0.0367	-0.0256	-0.0143	-0.0105	12.1
0.0382	0.0007	0.0007	-0.0098	12.1
0.039	0.018	0.0135	-0.0195	11.9
0.0322	0.021	0.0262	-0.0233	11.8
0.0255	0.0217	0.042	-0.0308	11.8
0.0195	0.012	0.0412	-0.0383	11.7
0.0165	0.0015	0.0315	-0.0473	11.6
0.0105	-0.0068	0.024	-0.045	11.6
0.0097	0.0007	0	-0.033	11.6
0.0127	0.0165	-0.0256	-0.012	11.5
0.0127	0.027	-0.0555	0.0592	11.4
0.018	0.015	-0.0818	0.1057	11.1
0.0202	0.012	-0.096	0.0817	11.3
0.0285	0.0217	-0.111	0.0705	11.2
0.0397	0.0195	-0.1103	0.0262	11
0.0495	0.0142	-0.1103	0.0337	11
0.0517	-0.0098	-0.0975	0.0735	10.7
0.048	-0.0128	-0.0721	0.0457	10.9
0.0405	-0.0015	-0.033	0.1005	10.8
0.0165	-0.0083	0.018	0.0832	10.7
-0.0195	-0.0046	0.0615	-0.1193	10.6
-0.0256	0.0045	0.105	-0.333	10.4
-0.0256	0.012	0.1402	-0.3406	10.5
-0.0383	0.0007	0.165	-0.1418	10.3
-0.0368	-0.0075	0.1822	0.045	10.6
-0.0533	-0.0008	0.1852	0.096	10.4
-0.0503	0.0022	0.174	0.0022	10.2
-0.0525	-0.0075	0.1642	-0.027	10.1
-0.0518	-0.0105	0.159	0.1447	10.2
-0.0458	-0.0098	0.156	0.2617	10.2
-0.0488	-0.0293	0.1575	0.0675	9.8
-0.0315	-0.0361	0.1597	-0.2041	9.9
-0.0293	-0.0428	0.147	-0.2085	9.7
-0.0158	-0.0353	0.1237	-0.033	9.6
-0.0091	-0.0083	0.1072	0.0067	9.7
0	0.0157	0.075	-0.0533	9.5
0.0067	0.0157	0.0495	-0.054	9.5
0.0015	0.03	0.0307	-0.0578	9.3
0.0045	0.0502	0.0082	-0.042	9.7
0.0037	0.0367	-0.0008	-0.1028	9.1
0.0097	0.0232	-0.0165	-0.1118	9.2
0.0007	0.0195	-0.024	0.0892	9.2
0.0007	0.024	-0.0278	0.1785	9.2
0.0007	0.0277	-0.0338	-0.0015	9
-0.0068	0.0225	-0.033	-0.0765	9
-0.0098	0.0165	-0.0361	0.0232	9
-0.0113	0.027	-0.0353	0.1162	8.8
-0.0113	0.033	-0.033	0.204	9.1
-0.0158	0.0427	-0.0233	0.186	8.7
-0.0038	0.0337	-0.0098	0.201	9
0.0052	-0.0263	-0.003	0.0675	8.5
0.0067	-0.0623	-0.0068	-0.105	8.7
0.0052	-0.0645	-0.012	-0.0465	8.4
0.0082	-0.075	-0.0158	-0.0608	8.4
0.0195	-0.0638	-0.0218	-0.039	8.3
0.0195	-0.0315	-0.0263	-0.0375	8.4
0.018	-0.0023	-0.0256	-0.0173	8.4
0.0195	0.0165	-0.024	0.1695	8.3
0.0112	0.0045	-0.0158	0.21	8.4
-0.0008	-0.0091	-0.0091	0.0495	8.1
0.0007	-0.0158	-0.0038	0.0532	8.2
-0.0053	-0.0368	0.0022	0.1237	8.1
-0.015	-0.0398	-0.0008	-0.024	8.1
-0.012	-0.0353	-0.0068	-0.1245	8.1
-0.0091	-0.0233	-0.012	-0.1733	7.8
-0.0068	0.0427	-0.0165	-0.1298	8.1
-0.0053	0.0637	-0.0165	-0.0555	8
0.0067	0.039	-0.0173	-0.0945	7.8
0.015	0.0217	-0.021	-0.0706	7.7
0.0097	0.0157	-0.0285	-0.0188	7.9
0.0052	0.0277	-0.0315	0.0367	7.8
-0.0008	0.0247	-0.0323	0.0555	7.7
-0.0075	0.012	-0.033	0.0352	7.9
-0.0128	-0.0293	-0.0308	-0.0518	7.8
-0.015	-0.063	-0.0278	-0.0405	7.7
-0.0218	-0.0706	-0.024	0.0675	7.7
-0.0256	-0.0346	-0.021	-0.0053	7.6
-0.0225	0.0157	-0.0173	-0.0758	7.6
-0.024	0.0375	-0.0195	-0.0765	7.6
-0.0218	0.0547	-0.0225	0.0082	7.6
-0.0195	0.0472	-0.0256	0.0345	7.6
-0.0143	0.009	-0.0278	-0.015	7.6
-0.0098	-0.039	-0.0285	0.0532	7.3
-0.0091	-0.0518	-0.0323	0.027	7.7
-0.0046	-0.0436	-0.0285	0.0052	7.4
-0.0008	-0.0473	-0.027	0.0517	7.4
0.0045	-0.0346	-0.0233	0.033	7.6
0.0135	-0.0181	-0.0068	-0.0203	7.5
0.009	-0.0098	0.009	0.0067	7.5
-0.0046	-0.0218	0.0195	-0.0353	7.6
-0.003	-0.0008	0.0195	-0.1628	7.5
0.003	0.078	0.0195	-0.1441	7.3
0.0015	0.1035	0.0232	-0.0856	7.3
0.0007	0.0517	0.0202	0.042	7.5
-0.0008	0.039	0.018	0.0727	7.2
-0.0053	0.084	0.0165	0.0945	7.5
-0.0083	0.069	0.0127	0.1065	7.2
-0.0068	-0.0218	0.0007	-0.0293	7.3
-0.0083	-0.0825	-0.0256	0	7.1
-0.006	-0.0953	-0.0195	-0.015	7.5
-0.0091	-0.0691	0.0187	-0.1148	7.1
-0.0083	-0.0173	0.0307	-0.1163	7.4
-0.0015	-0.042	0.0202	-0.0068	7.1
0.0022	-0.0525	-0.0023	0.0457	7.2
0.0105	-0.003	-0.0068	-0.033	7.1
0.0165	0.018	-0.0046	0.0127	7
0.0195	0.018	-0.0218	0.0592	7
0.0127	0.0015	-0.0323	0.054	6.9
0.0082	0.0022	-0.039	0.0502	6.8
0.0135	0.0075	-0.0293	0.057	6.7
0.0112	0.0127	-0.0225	0.1492	6.7
0.0097	0.0255	-0.0203	0.0292	6.4
0.0105	0.0232	-0.0113	-0.0945	6.5
0.0105	0.0045	-0.003	0.0892	6.3
0.0165	-0.0105	0.009	0.0997	6.3
0.0232	-0.0053	0.0157	0.021	6.2
0.0255	-0.0046	0.0105	0.0067	5.9
0.0232	-0.003	0.0112	-0.0698	5.8
0.027	0.0165	0.0202	-0.0503	5.6
0.0165	0.045	0.0262	-0.0181	5.7
0.009	0.0705	0.0262	-0.075	5.4
0.0142	0.0675	0.0247	-0.0495	5.3
0.0112	0.03	0.0015	0.0315	5.2
0.0112	-0.0068	-0.0278	-0.114	5.1
0.0067	-0.0233	-0.0495	-0.1178	5
0.003	-0.0233	-0.075	0.0315	4.9
-0.0038	-0.0233	-0.0983	0.006	4.9
-0.0181	-0.0233	-0.1185	0.0337	4.7
-0.0218	-0.0218	-0.1223	0.015	4.7
-0.0188	-0.021	-0.1006	0.0015	4.6
-0.0143	-0.015	-0.0615	0.0165	4.4
-0.0128	-0.0008	-0.0128	-0.0023	4.5
-0.0068	0.0142	0.0315	0.018	4.2
-0.0008	0.0225	0.06	0.0045	4.4
0.0052	0.033	0.069	0.0082	3.9
0.0157	0.03	0.06	-0.003	4.1
0.024	0.012	0.0322	-0.0068	3.9
0.036	-0.0068	0.0015	-0.0233	3.9
0.0382	-0.0225	-0.024	-0.0645	3.9
0.036	-0.0323	-0.0465	-0.0278	3.7
0.039	-0.0315	-0.0511	0.0787	3.7
0.042	-0.027	-0.0361	0.1762	3.6
0.0427	-0.0098	-0.0008	0.1717	3.8
0.0457	0.0127	0.0465	0.0217	3.6
0.0495	0.0142	0.09	-0.0885	3.6
0.0592	0.003	0.1252	-0.042	3.5
0.0435	0.0187	0.1485	-0.0165	3.4
-0.0015	0.0382	0.1552	0.057	3.5
-0.012	0.0337	0.144	0.0427	3.3
0.0067	0.0277	0.123	-0.0128	3.5
0.0127	-0.0068	0.0997	0.1147	3.3
0.0067	-0.0645	0.075	0.2295	3.6
0.009	-0.09	0.0555	0.2085	3.2
0.024	-0.0615	0.0382	-0.0413	3.2
0.0232	-0.0188	0.0277	-0.0788	3.3
0.0157	-0.006	0.027	0.0142	3.2
0.0082	0.0037	0.0255	-0.2213	3.2
0.006	0.018	0.024	-0.4875	3
-0.0023	0.0345	0.0277	-0.4096	3.2
-0.0143	0.0307	0.03	-0.1178	3
-0.0263	0.0127	0.021	-0.1028	3.2
-0.0346	0.0082	0.012	-0.1208	3.2
-0.027	0	0.0045	0.012	3.2
-0.0203	-0.0068	0.0007	0.0727	3.2
-0.0158	-0.015	0.0015	0.0832	3.1
-0.027	-0.0195	0.0007	0.0157	3.1
-0.045	-0.0143	-0.003	-0.0706	3.1
-0.0443	-0.0143	-0.0098	-0.0758	3.2
-0.042	-0.0105	-0.0083	0.0007	3.1
-0.0383	0.0045	-0.0023	0.0825	3.2
-0.0368	0.0165	-0.0008	0.0862	3.2
-0.0428	0.0187	-0.006	0.0322	3
-0.057	0.0157	-0.0158	0.1132	3.1
-0.0856	0.009	-0.0158	0.1725	3.1
-0.081	0.0045	-0.0218	0.0862	3.1
-0.0668	0.0097	-0.0308	0.1035	3.1
-0.0713	0.0165	-0.0405	0.1665	3.1
-0.0758	0.0075	-0.0518	0.12	3.1
-0.0706	-0.0075	-0.0645	-0.0158	3.2
-0.0555	-0.03	-0.075	-0.0105	3.2
-0.0555	-0.0436	-0.0863	0.0277	3.2
-0.0608	-0.0218	-0.0998	0.0255	3.2
-0.057	-0.0083	-0.1058	0.0645	3.3
-0.0495	-0.0091	-0.114	-0.0158	3.5
-0.0398	-0.0046	-0.1238	-0.0188	3.2
-0.0233	-0.0091	-0.1268	-0.012	3.4
-0.0218	-0.0083	-0.126	-0.039	3.5
-0.042	-0.0053	-0.1208	-0.0203	3.6
-0.0293	-0.0053	-0.1118	-0.0495	3.6
0.0142	-0.0038	-0.0923	-0.0293	3.5
0.0142	-0.0023	-0.0706	-0.0203	3.6
0.015	0.0045	-0.0533	-0.0353	3.5
0.0322	0.0135	-0.0383	-0.0555	3.6
0.0442	0.0195	-0.024	-0.0645	3.4
0.0727	0.0202	-0.0075	-0.042	3.4
0.0922	0.0187	0.003	-0.0256	3.6
0.1215	0.015	0.0187	-0.0053	3.3
0.1252	0.0097	0.0345	0.069	3.6
0.1012	-0.0015	0.045	0.1552	3.5
0.102	-0.0143	0.0517	0.0712	3.6
0.0975	-0.0218	0.0577	-0.0098	3.2
0.0795	-0.0158	0.0727	-0.0293	3.5
0.0705	-0.0128	0.078	0.0142	3.4
0.0607	-0.0015	0.0802	0.1417	3.3
0.0592	0.0217	0.0847	0.0457	3.3
0.054	0.012	0.087	-0.0503	3.2
0.0405	-0.0046	0.0907	-0.1006	3.3
0.0255	-0.0008	0.09	-0.1598	3
0.0157	0.0045	0.0907	-0.0218	3.3
0.03	0.0067	0.0952	0.0352	3.1
0.03	0.0135	0.1027	-0.0015	3.2
0.024	0.0352	0.1005	-0.0023	3.1
0.0247	0.0525	0.093	0.0517	3.1
0.0157	0.0442	0.0802	0.084	3.1
0.0652	0.0345	0.0652	0.036	3
0.0675	0.0225	0.0615	0.0322	3
0.0322	-0.033	0.0555	-0.0713	3
0.063	-0.096	0.042	-0.177	2.8
0.0405	-0.0893	0.0292	-0.1665	2.8
0.0165	-0.0428	0.0217	-0.1313	2.9
0.009	-0.0015	0.015	-0.1088	2.8
-0.0143	0.0142	0.0022	-0.0675	2.7
-0.0225	-0.003	-0.0113	0.0855	2.8
-0.0375	-0.003	-0.0188	0.1282	2.6
-0.0233	-0.0083	-0.027	0.093	2.8
-0.0135	-0.012	-0.0346	-0.078	2.5
-0.0165	0.006	-0.0315	-0.3915	2.6
-0.0128	0.018	-0.0256	-0.2543	2.6
-0.0323	0.012	-0.0165	0.075	2.6
-0.0645	0.0082	0.003	0.087	2.6
-0.0938	0.0165	0.0225	0.0285	2.5
-0.12	0.0045	0.0277	-0.0495	2.5
-0.0968	0.0142	0.0382	-0.0278	2.4
-0.078	0.0345	0.0472	0.1995	2.4
-0.0735	-0.0008	0.0517	0.2362	2.4
-0.042	-0.0615	0.057	0.1282	2.4
-0.0353	-0.0578	0.0555	0.0195	2.4
-0.0233	-0.0098	0.0532	-0.0188	2.4
-0.024	0.0045	0.0435	0.018	2.4
-0.0383	-0.0023	0.027	0.0067	2.2
-0.0555	0.0022	0.0037	0.0232	2.4
-0.0653	0.0187	-0.0203	0.0405	2.1
-0.0518	0.009	-0.0428	0.0255	2.3
-0.0278	-0.003	-0.0615	0.0112	1.9
-0.0188	0.0007	-0.0765	0.0877	2.2
-0.0188	0.0015	-0.0938	0.0877	2
-0.0405	0.0052	-0.1103	0.0277	2.2
-0.0653	-0.003	-0.1253	0.0405	2.1
-0.054	-0.0091	-0.1298	-0.0113	2
-0.054	-0.012	-0.1313	-0.042	1.9
-0.0555	-0.0015	-0.135	-0.0315	2
-0.1028	0.0157	-0.1298	-0.0038	2
-0.1328	0.027	-0.1253	-0.0346	2
-0.096	0.0367	-0.1223	-0.063	1.9
-0.06	0.0457	-0.117	-0.042	1.9
-0.006	0.0442	-0.1103	-0.0128	2
0.0472	0.0165	-0.1013	0.027	2
0.099	-0.0361	-0.0915	0.0015	1.9
0.1605	-0.09	-0.0765	-0.0158	1.9
0.2655	-0.084	-0.0645	-0.0691	1.6
0.4095	-0.0233	-0.048	-0.0383	2.1
0.4867	0.0322	-0.0278	0.0907	1.8
0.4065	0.0337	-0.0128	0.069	1.9
0.2167	0.003	-0.0015	0.009	1.7
0.0817	-0.0015	0.0067	0.0502	2
0.0495	0.0007	0.0157	0.0495	1.8
0.0127	0.012	0.0195	-0.0068	1.9
-0.0015	0.0277	0.0262	0.012	1.8
-0.0038	0.027	0.0315	0.0157	1.9
-0.033	0.018	0.0352	0.0097	2
-0.045	0.0067	0.036	-0.0165	1.7
-0.0653	0.0022	0.0367	-0.033	2
-0.0953	-0.0038	0.0405	0.009	1.8
-0.1328	-0.0091	0.0412	0.0037	2
-0.1433	-0.0128	0.0405	-0.042	1.8
-0.1208	-0.0091	0.042	-0.0548	2.1
-0.1193	-0.003	0.0442	0.0255	1.9
-0.114	0.0015	0.0435	0.0577	1.8
-0.0856	-0.0008	0.039	-0.0128	2
-0.0436	-0.0053	0.0405	-0.0413	1.8
0.0135	-0.0008	0.0405	-0.0735	2
0.0427	-0.0008	0.0352	-0.039	1.8
0.048	-0.003	0.0285	0.042	1.9
0.0337	-0.0038	0.0217	0.0052	2
0.0487	0.0007	0.0187	0.0285	1.9
0.0495	0.003	0.0135	0.0277	2.1
-0.0203	-0.0023	0.0127	-0.099	1.9
-0.0293	-0.0015	0.0142	-0.1411	2.1
0.0157	0.0067	0.0105	-0.0735	1.8
0.0577	-0.0008	0.0067	-0.0015	2
0.075	-0.0075	0.003	-0.045	2
0.063	-0.0023	-0.0023	-0.0998	1.8
0.0382	-0.0091	-0.0098	0.018	1.9
0.033	-0.0203	-0.0105	0.0682	1.8
0.069	-0.0181	-0.0083	-0.0465	1.9
0.0787	-0.0068	-0.0015	0.0292	1.9
0.078	-0.0008	0.0082	0.159	2.2
0.0802	0.0022	0.0127	0.0802	2
0.0825	0.006	0.0157	-0.0293	1.9
0.0937	0.0075	0.018	-0.0128	2
0.075	0.0165	0.0202	0.0435	2.1
0.0675	0.0225	0.0232	0.0315	2.1
0.0517	0.0105	0.021	-0.0278	1.9
-0.0293	-0.0008	0.0172	-0.063	2.1
-0.0765	-0.0015	0.0195	0.0277	1.9
-0.0713	-0.0046	0.0195	0.1297	2.2
-0.078	-0.0158	0.018	0.1605	1.9
-0.0818	-0.0188	0.0127	0.0457	2.1
-0.0818	-0.0068	0.0105	-0.0278	2
-0.1088	0.0015	0.0217	0.0495	2
-0.1868	0.0082	0.0375	0.0532	1.9
-0.2235	0.0015	0.042	0.003	2
-0.0938	-0.0075	0.039	-0.1253	1.9
-0.0105	-0.0046	0.0367	-0.1223	1.9
-0.0046	-0.0068	0.0352	-0.0383	1.9
0.0465	-0.0068	0.0307	-0.0691	1.9
0.0165	-0.003	0.0277	-0.1898	1.9
0.0142	0.0052	0.0315	-0.1853	2
0.018	0.0105	0.0315	0.0817	1.9
0.021	0.0082	0.0307	0.0712	2
0.0502	0.0112	0.0292	-0.0938	1.8
0.048	0.0015	0.0247	-0.1013	2.2
0.078	-0.012	0.0232	-0.0458	1.8
0.0885	-0.0105	0.0142	-0.0015	2.1
0.09	-0.003	0.0045	-0.0248	1.8
0.0855	-0.0023	-0.003	0.123	2.2
0.0855	-0.0046	-0.0068	0.1582	1.8
0.0705	0.003	-0.0083	0.0067	2
0.0442	0.0082	-0.0046	0.0172	2
0.039	0.0082	-0.0008	0.0517	2.1
0.0202	0.0007	0.0045	0.1057	1.9
0.0045	-0.0098	0.018	0.1117	2
-0.0158	-0.0046	0.0345	0.0427	2
-0.033	-0.0068	0.0555	0.0825	2.1
-0.0413	-0.0068	0.081	0.084	2
-0.042	-0.003	0.1042	0.0405	2
-0.0668	-0.0075	0.129	-0.0863	1.8
-0.1373	0.003	0.15	-0.147	2
-0.2003	0.0097	0.1665	-0.0008	1.8
-0.1658	0.0015	0.1762	-0.0735	2
-0.0555	0	0.177	-0.0503	1.9
-0.0105	0.0045	0.1725	0.0615	1.9
0.009	0.0082	0.1665	-0.0053	1.8
0.0555	0.009	0.1522	0.0187	2.1
0.0645	0.0082	0.135	-0.0195	1.9
0.0847	0.0015	0.1125	-0.0218	2.1
0.105	-0.006	0.087	-0.0795	1.9
0.1027	-0.0053	0.0637	-0.1426	2
0.1065	-0.003	0.0367	-0.0443	1.9
0.0915	-0.0015	0.0105	-0.0555	2.1
0.0682	-0.0015	-0.0128	-0.0503	1.8
0.0585	-0.0068	-0.0368	-0.06	2
0.0652	-0.012	-0.0578	-0.0825	1.8
0.054	-0.0203	-0.0773	0.0315	2.1
0.0352	-0.0256	-0.0968	0.2227	1.8
0.027	-0.027	-0.108	0.273	2
0.018	-0.0165	-0.1103	0.114	1.9
-0.0015	0.0007	-0.1088	0.1155	2
-0.0338	0.015	-0.1118	0.069	1.8
-0.0563	0.0247	-0.12	-0.1095	1.9
-0.057	0.0165	-0.1298	-0.0893	2
-0.0578	0.009	-0.1328	-0.0181	2
-0.0563	0.0097	-0.135	0.087	1.9
-0.0533	0.0015	-0.1441	0.009	1.8
-0.057	0.009	-0.1568	-0.1343	1.9
-0.0668	0.0165	-0.1688	-0.075	1.9
-0.0765	0.009	-0.1726	-0.1125	1.9
-0.0758	-0.0105	-0.1703	-0.0938	1.8
-0.0691	-0.0263	-0.1703	-0.0263	1.9
-0.0638	-0.0218	-0.1688	-0.0008	1.9
-0.0668	-0.0135	-0.1628	0.0142	1.8
-0.0818	0	-0.1568	-0.0008	1.9
-0.0945	0.0112	-0.1478	0.066	1.8
-0.0975	0.0142	-0.1388	0.054	2.1
-0.0795	0.009	-0.1275	-0.0645	1.7
-0.0495	-0.0023	-0.1178	-0.135	1.9
-0.0263	-0.0083	-0.1125	-0.075	1.5
-0.0091	-0.003	-0.1058	-0.0181	1.9
0.0082	0.0067	-0.0968	0.0202	2
0.0217	0.0045	-0.0833	0.0517	1.9
0.0307	0.0105	-0.0728	0.0502	2
0.0412	0.012	-0.0698	0.1357	1.8
0.069	-0.0083	-0.063	0.099	2
0.111	-0.0143	-0.0533	0.1042	1.8
0.1927	-0.0046	-0.0443	0.1995	1.8
0.3615	0.0052	-0.0368	0.1297	1.8
0.351	0.012	-0.0338	0.063	1.8
0.0045	0.018	-0.027	-0.0788	1.8
-0.237	0.0165	-0.0173	-0.0848	1.7
-0.3023	0.003	-0.0038	0.006	2
-0.273	0	0.0142	-0.0908	1.8
-0.1688	0	0.0202	-0.0256	1.9
-0.1703	-0.006	0.0225	-0.0308	1.8
-0.0923	-0.012	0.0195	-0.2543	1.8
-0.0165	-0.0165	0.0165	-0.2955	1.8
-0.0053	-0.012	0.0202	-0.1065	1.8
-0.0143	-0.0068	0.0232	0.0337	1.8
-0.039	-0.0023	0.0262	0.0855	1.8
-0.0368	-0.0091	0.0315	0.171	1.9
-0.0428	-0.0075	0.0405	0.0825	1.7
-0.0248	0.012	0.0382	0.0742	1.9
-0.0285	0.0067	0.0367	0.042	1.8
-0.0233	0.0052	0.0405	-0.1448	1.7
-0.0135	0.0007	0.045	-0.0128	1.8
0.0015	-0.0181	0.054	0.2092	1.7
0.018	-0.0173	0.0547	0.225	1.9
0.033	-0.0015	0.054	0.1537	1.7
0.0645	0.0067	0.0502	0.09	1.8
0.0787	0.003	0.0457	-0.033	1.6
0.0825	-0.0008	0.0412	-0.1426	1.8
0.0667	-0.0075	0.0345	-0.0713	1.6
0.0562	-0.0143	0.0382	0.0412	1.8
0.0502	-0.0158	0.0405	0.0322	1.6
0.0465	-0.003	0.042	-0.1313	1.5
0.0442	0.0097	0.048	-0.2385	1.8
0.0307	0.0127	0.0457	-0.1703	1.5
0.0255	0.018	0.0427	-0.1665	1.6
0.0202	0.0127	0.0412	-0.1403	1.6
0.0165	0.009	0.0367	-0.084	1.6
0.0067	0.0045	0.0352	-0.0803	1.7
-0.0015	-0.0023	0.0292	-0.0181	1.5
-0.012	-0.003	0.027	-0.0038	1.8
-0.0195	-0.0015	0.0232	0.0052	1.5
-0.0256	0.0007	0.0232	-0.0473	1.8
-0.0353	-0.0053	0.0225	-0.1673	1.5
-0.0428	-0.003	0.0202	-0.2198	1.6
-0.0525	0.0052	0.0172	-0.2198	1.5
-0.0638	0.0045	0.0142	-0.1095	1.7
-0.054	-0.0008	0.0195	0.084	1.6
-0.0165	-0.0158	0.0202	0.1875	1.6
0.0112	-0.0278	0.0202	0.129	1.9
0.0195	-0.0383	0.018	0.1155	1.5
0.0307	-0.0375	0.0165	0.1425	1.9
0.03	-0.0218	0.018	0.0847	1.5
0.021	-0.0098	0.0172	0.0322	1.8
0.0232	-0.0128	0.0165	-0.0691	2.1
0.0337	-0.0091	0.018	-0.0645	2.1
0.054	0.0075	0.018	0.0787	1.6
0.0682	0.0142	0.0247	0.0705	1.6
0.0667	0.0165	0.0345	0.087	1.8
0.057	0.0255	0.0352	0.1297	1.7
0.0292	0.018	0.0307	0.0007	1.8
0.0082	-0.0083	0.0202	0.0592	1.8
0.0067	-0.0173	0.0157	0.2055	1.8
0.012	-0.012	0.0172	0.1125	1.7
0.0195	0	0.0112	-0.0053	1.5
0.0195	0.012	0.0082	-0.1373	1.7
0.0142	0.0022	0.0067	-0.0765	1.6
0.003	-0.0165	0.009	0.1245	1.9
-0.0113	-0.0308	0.0082	0.2032	1.8
-0.027	-0.0315	0.0015	0.2722	2.1
-0.039	-0.0308	0.0045	0.216	1.9
-0.0443	-0.0143	0.0037	-0.0346	1.8
-0.0465	0.0105	0.003	-0.2333	1.8
-0.0443	0.009	0.0015	-0.1328	1.9
-0.0375	0.003	0	-0.0563	2.1
-0.0188	0.0105	0.0082	-0.114	1.9
0.0007	0.0142	0.0135	-0.042	1.9
0.018	0.0127	0.0157	-0.0158	2.1
0.0292	0.0247	0.0232	0.0142	2.1
0.0232	0.0142	0.0307	0.0727	2.1
0.0112	-0.0015	0.0277	0.057	2
-0.0008	-0.0038	0.0232	0.0405	2.2
-0.0053	-0.0038	0.024	0.0225	2.1
-0.0015	0.018	0.0202	0.0142	2.3
0.0052	0.0217	0.0172	0.0022	2.1
0.009	0.0232	0.0217	0.009	2.4
0.0022	0.0277	0.0217	0.009	2
-0.0158	0.0225	0.0187	0.0105	2.3
-0.0413	0.0217	0.0165	0.0195	2.2
-0.0585	0.0157	0.0135	0.0172	2.3
-0.0615	0.0142	0.012	0.0255	2.2
-0.0488	0.0157	0.012	0.0195	2.2
-0.0278	0.0157	0.0127	0.0217	2.2
-0.012	0.0165	0.012	0.0172	2.3
0.0015	0.0157	0.0127	0.0045	2.3
0.0052	0.0157	0.0105	-0.0038	2.3
0.0052	0.021	0.009	-0.0128	2.3
0.009	0.0217	0.0052	-0.0203	2.4
0.0187	0.0165	0.0052	-0.0181	2.2
0.033	0.018	0.0052	0.0412	2.4
0.0427	0.0112	0.0067	0.1005	2.2
0.0487	0.0015	0.0045	0.0517	2.5
0.0517	0	0.003	-0.021	2.1
0.0502	0.003	0.0015	-0.0405	2.4
0.0487	0.0015	0.0007	-0.0188	2.1
0.045	-0.0053	0.0045	0.006	2.2
0.0405	-0.0046	0.0052	-0.006	2.3
0.0307	-0.003	0.0045	0.018	2.2
0.021	-0.0023	0.0082	0.0142	2.1
0.0127	0.0007	0.0105	0.0045	2.1
0.0037	0.0037	0.009	0.0127	2
-0.0015	-0.0023	0.0052	-0.024	2.1
-0.0038	-0.0173	-0.0046	-0.0173	2
-0.0038	-0.0225	-0.0091	-0.0248	1.8
-0.0008	-0.0308	-0.0098	-0.0083	1.8
0.0015	-0.0368	-0.0113	0.0262	1.8
0.0015	-0.0315	-0.0098	0.0157	1.8
0.0037	-0.0225	-0.0091	-0.012	1.8
0.0052	-0.0046	-0.0046	-0.0893	1.8
0.0105	0.0052	-0.0015	-0.0653	2
0.018	-0.0068	-0.0053	0.0232	1.8
0.024	-0.0233	-0.0068	-0.078	1.8
0.0285	-0.0233	-0.0068	-0.1703	1.7
0.0292	-0.0195	-0.0091	-0.1883	1.8
0.0292	-0.0233	-0.0075	-0.0998	1.8
0.0292	-0.021	0.0007	0.0645	2.1
0.0255	-0.0218	0.0045	0.0262	2.1
0.021	-0.0195	-0.0015	0.0165	2.1
0.015	-0.0128	-0.0068	0.0262	1.9
0.0082	-0.015	-0.0105	0.0195	1.9
0.0022	-0.0113	-0.0165	0.0255	1.9
-0.0008	-0.0075	-0.0203	-0.027	1.8
-0.0046	-0.0105	-0.0233	-0.0128	1.9
-0.0053	-0.0128	-0.024	-0.0158	2
-0.0046	-0.012	-0.027	-0.0105	1.8
-0.0046	-0.012	-0.0263	-0.0143	2.1
-0.0046	-0.012	-0.0256	-0.0315	1.8
-0.0023	-0.0105	-0.024	-0.0218	2.1
-0.0008	-0.0105	-0.0203	-0.0263	1.7
0.0015	-0.006	-0.0203	-0.0691	1.9
0.0037	0.0037	-0.0218	-0.099	1.8
0.0045	0.0195	-0.0218	0.0217	1.8
0.0052	0.0187	-0.0181	0.0465	1.8
0.0045	0.009	-0.0135	-0.0195	1.8
0.0007	0.0172	-0.015	0.114	1.9
0	0.0045	-0.0113	0.1755	1.8
0.0007	-0.0143	-0.0046	0.0142	2
-0.0023	0.0097	-0.0008	-0.0278	1.8
-0.0053	0.0277	0.0045	0.0285	2
-0.006	0.0307	0.0037	0.0435	1.6
-0.0046	0.03	-0.0015	0.0787	1.9
-0.0046	0.0165	-0.006	0.0382	1.9
-0.006	0.0082	-0.0105	-0.0158	1.8
-0.0091	0.0045	-0.0158	-0.1133	1.8
-0.0083	0.0127	-0.012	-0.1635	1.6
-0.0068	0.0082	-0.0075	-0.0361	1.9
-0.0053	-0.0143	-0.0098	0.0675	1.7
-0.0053	-0.015	-0.0083	0.0945	1.8
-0.003	-0.0105	-0.006	0.0495	1.9
0.0015	-0.0143	-0.0068	-0.0233	1.8
0	-0.0091	-0.0068	-0.0653	2
0	0.0082	-0.0046	-0.1125	1.6
0	0.0217	0.0007	-0.1793	1.8
-0.0008	0.0127	0.0045	-0.0675	1.8
0.0007	-0.0091	0.0007	0.0352	2
0	-0.0113	0	-0.048	1.8
0.0007	-0.0038	0.0015	-0.0436	1.9
-0.0008	0.0082	0.003	-0.0728	1.7
-0.0038	0.0082	0.0052	-0.0878	1.9
-0.0083	0	0.0075	0.0015	1.8
-0.0091	0.0007	0.0082	0.0285	1.9
-0.012	-0.0015	0.0052	0.039	1.9
-0.0135	0.0015	0.003	0.075	1.8
-0.0158	0.0045	0	0.069	1.8
-0.0143	0.0037	-0.0008	0.0255	1.8
-0.0143	0.0045	-0.0015	0.045	1.9
-0.0143	-0.0015	-0.0015	0.0195	1.9
-0.012	-0.0008	0.0007	-0.1845	1.7
-0.0105	0.0082	0.0015	-0.2813	1.8
-0.0068	-0.0098	0.0052	-0.0353	1.8
-0.0008	-0.042	0.0105	0.1155	2
0.0007	-0.0315	0.0172	0.0195	1.8
0.0052	-0.0091	0.0202	0.0862	2
0.0067	-0.0008	0.0165	0.1087	1.7
0.0067	0.0105	0.0172	0.105	1.9
0.0075	0.006	0.012	0.1537	1.7
0.006	-0.0023	0.0052	0.0217	1.7
0.0067	-0.0053	0.0007	-0.1696	1.6
0.0075	-0.0105	-0.003	-0.21	1.7
0.0082	-0.0165	-0.0015	0.003	1.7
0.009	-0.0143	0.0015	0.0052	1.8
0.0082	-0.0083	-0.0015	0.0375	1.8
0.0067	-0.0091	-0.003	0.162	1.8
0.0052	-0.0091	-0.003	0.1035	1.7
0.0052	-0.0135	-0.0008	0.1815	1.8
0.0052	-0.0113	0.0015	0.048	1.7
0.0045	-0.0091	0.0015	-0.1943	1.7
0.0007	-0.0143	-0.0008	-0.2325	1.4
-0.003	-0.0098	0.0007	-0.111	1.7
-0.0053	-0.0128	0.0015	-0.0346	1.5
-0.0023	-0.0293	0.006	-0.0165	1.6
0.0007	-0.027	0.0045	0.075	1.5
0.0007	-0.0181	-0.0023	0.0615	1.5
0.0015	-0.0195	-0.003	0.1117	1.5
0.0015	-0.0181	-0.0023	0.1132	1.5
0.0015	-0.0083	0.003	0.1132	1.5
0.0015	0.0082	0.006	0.1522	1.4
0.0045	0.0195	0.0052	0.0525	1.5
0.006	0.0277	0.0052	-0.0165	1.3
0.0075	0.0382	0.0007	-0.0368	1.3
0.0067	0.0412	0.0007	0.0127	1.3
0.0067	0.0375	0.0007	0.0105	1.3
0.0052	0.0352	-0.0008	0.0187	1.4
0.0067	0.036	-0.003	0.0457	1.3
0.0082	0.0352	-0.003	0.0045	1.5
0.009	0.0352	-0.003	-0.0135	1.2
0.0172	0.039	-0.006	-0.0293	1.3
0.0315	0.0375	-0.0053	0.0292	1.2
0.0465	0.0232	-0.003	0.0517	1.4
0.0562	0.0142	-0.0038	0.0345	1.2
0.0555	0.012	-0.0038	0.069	1.3
0.048	0.009	-0.0053	0.0555	1.2
0.0345	0.0157	-0.0068	-0.0953	1.2
0.0165	0.0195	-0.0023	-0.156	1.3
0.0015	0.006	-0.0008	0.0075	1.2
-0.0113	-0.0105	-0.0008	-0.0046	1.3
-0.0181	-0.0091	-0.0015	-0.1441	1
-0.0218	0.0112	-0.0023	-0.0563	1.2
-0.0203	0.0202	-0.0046	0.1192	1.3
-0.0195	0.0165	-0.006	0.078	1.2
-0.0195	0.0225	-0.0053	-0.0083	1.1
-0.0203	0.009	-0.0015	0.012	1.2
-0.0203	-0.0015	0	-0.003	1.3
-0.0203	0.003	0.0022	-0.0113	1
-0.0181	-0.006	0.0067	-0.003	1.3
-0.0128	-0.0015	0.0127	0.0165	1.2
-0.0105	-0.0053	0.0067	0.0202	1.4
-0.0083	-0.0068	0.0045	0.0465	1.1
-0.0068	-0.0098	0.006	0.039	1.2
-0.0105	-0.0203	0	-0.0143	1.1
-0.0143	-0.0218	-0.003	0.0037	1.2
-0.0128	-0.024	-0.006	-0.0165	1.1
-0.0135	-0.0165	-0.0091	-0.0233	1.1
-0.015	-0.0143	-0.0075	-0.0203	1.1
-0.0135	-0.0113	-0.0053	-0.0173	1.1
-0.0128	-0.0083	-0.0023	0.0007	1.2
-0.0128	-0.0083	-0.0046	-0.0203	1.2
-0.0128	-0.0068	-0.0053	-0.033	1
-0.0143	-0.0083	-0.0046	-0.0765	1.2
-0.0128	-0.0128	-0.003	-0.0885	1
-0.012	-0.012	-0.003	-0.0346	1.3
-0.0098	-0.0128	-0.003	0.006	1
-0.0075	-0.0165	-0.003	0.0442	1.3
-0.0046	-0.0083	-0.0008	0.0562	1.1
0	-0.0008	0.0037	-0.0038	1.1
0.0037	0.0015	0.003	-0.0248	1.1
0.0082	0.0015	0.0037	-0.0353	0.9
0.0105	0.0022	0.003	-0.0998	1.2
0.0142	0.0007	0.0045	-0.0165	1.1
0.018	-0.0015	0.003	0.114	1.2
0.0157	-0.0015	0	0.1672	1.1
0.0157	-0.0068	0.0067	0.2347	1.1
0.018	-0.0091	0.0067	0.0742	1
0.0202	-0.0008	0.006	-0.2821	0.9
0.0195	0.0165	0.0067	-0.2985	1
0.0187	0.0105	0.0052	-0.0578	1
0.0165	-0.0143	0.0082	-0.057	1.2
0.0127	-0.0218	0.0075	-0.1208	0.9
0.0097	-0.0195	0.0045	-0.0225	1.2
0.009	-0.0091	0	0.0217	1.3
0.0097	-0.0038	-0.003	0.012	1.1
0.0082	-0.003	-0.0046	0.033	1.1
0.006	0.0022	-0.0015	0.0225	1.2
0.0052	0.0045	-0.0008	0.033	1.1
0.003	0.003	0	0.0195	0.9
0.0007	-0.0015	0.003	0.0195	1.3
0.0007	-0.0046	0.0015	0.0465	0.9
-0.0015	-0.0083	-0.0023	0.0277	1.3
-0.0046	-0.0091	-0.0038	0.0232	1.1
-0.003	-0.003	-0.0053	0.0277	1.3
-0.0038	-0.0023	-0.0068	0.078	1
-0.003	-0.0105	-0.0068	0.144	1.3
0	-0.027	-0.0053	0.18	1.3
0.0045	-0.0353	-0.0046	0.1657	1.2
0.0112	-0.0338	-0.0038	0.069	1.2
0.0157	-0.0256	-0.0038	-0.0533	1.3
0.0165	-0.0046	-0.0046	-0.1665	1.2
0.018	0.0112	-0.0068	-0.1741	1.2
0.0195	0.003	-0.0068	-0.1343	1.1
0.0172	-0.0023	-0.003	-0.192	1.2
0.0142	-0.012	0.003	-0.1635	1.2
0.0105	-0.0203	0.0097	-0.1478	1.3
0.0052	-0.0008	0.0135	-0.1823	1.2
0.0022	0.0015	0.009	-0.0008	1.4
0.0015	-0.0023	0.0015	0.042	1.3
0.0015	-0.003	-0.0015	0.0277	1.4
0.0022	-0.0038	0.0007	0.0855	1.2
0.0007	0.0067	0.0007	0.0337	1.4
0.0022	0.0105	0.0015	0.0652	1.5
0.0015	0.0165	0.003	0.0555	1.3
0.0015	0.012	0.0015	0.075	1.5
0.003	0.006	0.0007	0.0802	1.5
0.006	0.0067	0	0.0435	1.4
0.0052	0.0052	-0.0015	0.057	1.4
0.0045	0.0075	-0.0015	0.0435	1.3
0.0075	0.0075	-0.0023	0.0667	1.3
0.0067	0.0045	-0.003	0.0435	1.5
0.0067	0.0045	-0.0008	0.0097	1.5
0.0082	0.0157	0.003	0.003	1.4
0.0037	0.0157	0.0037	-0.0233	1.5
0	0.0045	0.0015	-0.0735	1.2
0.0007	-0.0046	0.0007	-0.075	1.5
0.0015	-0.0105	-0.0008	0.0255	1.3
0.0045	-0.0143	-0.0008	0.0735	1.6
0.0045	-0.012	-0.0015	0.123	1.4
0.0075	-0.006	0.003	0.2137	1.7
0.0075	-0.006	0.0045	0.1005	1.3
0.0037	0.0045	-0.0015	-0.093	1.3
-0.003	0.021	0.0007	-0.2108	1.4
-0.0083	0.033	0.0067	-0.1238	1.3
-0.0105	0.027	0.009	0.0435	1.3
-0.0105	0.012	0.0082	-0.0691	1.4
-0.0075	0.0052	0.0037	0.003	1.5
-0.0046	0.0045	0.0015	0.0562	1.4
-0.0008	0.015	0.0007	-0.0308	1.5
-0.0015	0.0082	-0.0023	0.0157	1.7
-0.0015	-0.0046	0.0007	-0.0765	1.3
-0.0008	-0.0053	0	-0.0885	1.5
-0.0008	-0.0105	0.0022	-0.0181	1.3
0	-0.0143	0.0067	0.0712	1.6
0.0007	-0.0173	0.0037	0.0712	1.3
0.003	-0.0098	0.0007	0.0202	1.5
0.003	-0.006	-0.0015	0.0502	1.3
0.006	-0.003	-0.0015	0.0397	1.5
0.0052	-0.0075	-0.0008	0.033	1.5
0.0052	-0.0143	-0.0023	-0.0436	1.5
0.0052	-0.0083	0	-0.081	1.4
0.0037	-0.0068	0.0007	-0.0578	1.3
0.0022	0	0.0015	-0.0293	1.6
-0.0015	0.0105	-0.0008	-0.0105	1.5
-0.0068	0.0082	-0.0008	-0.0143	1.5
-0.0083	0.0052	-0.0015	0.0015	1.5
-0.0091	0.0037	-0.0023	-0.0135	1.6
-0.006	-0.0015	-0.003	-0.0053	1.5
-0.0015	-0.003	-0.0023	0.0067	1.5
0	-0.0038	-0.0023	0.0382	1.7
-0.0015	-0.0015	-0.003	0.036	1.5
-0.0015	0.0007	-0.0015	0.0015	1.6
-0.003	0.0015	0.0015	0.0127	1.5
-0.0046	0.003	0.0015	-0.0023	1.5
-0.006	0.0007	0.0015	-0.003	1.6
-0.0068	0.0007	0.0045	-0.0015	1.5
-0.0053	0.0015	0.0007	-0.0008	1.5
-0.0046	0.003	0	0.0082	1.6
0.0022	0.0015	-0.0008	0.0037	1.8
0.0082	-0.0015	-0.003	0.006	1.7
0.0082	-0.0053	-0.0046	-0.003	1.6
0.006	-0.0113	-0.006	-0.0128	1.5
0.0022	-0.0135	-0.0053	-0.021	1.5
0.003	-0.0075	-0.0046	-0.0165	1.5
0	0.0015	-0.0015	-0.0181	1.4
0.0015	0.0052	-0.0015	0.0052	1.7
0.0022	0.0067	-0.0015	0.0802	1.5
0.003	-0.003	0.003	0.063	1.6
0.0052	-0.0098	0.0075	-0.0143	1.3
0.0067	0.0015	0.009	-0.0413	1.6
0.0067	0.0052	0.0082	-0.0473	1.5
0.006	-0.0038	0.0067	0.0157	1.5
0.012	-0.0091	0.0052	0.0015	1.5
0.0127	-0.0046	0.0052	-0.0368	1.5
0.0165	-0.0015	0.0045	0.009	1.8
0.0225	-0.003	0.0037	-0.0143	1.5
0.0217	0.0007	0.003	-0.0015	1.7
0.0202	-0.0008	0.0015	0.0045	1.5
0.018	-0.0008	-0.0015	-0.0053	1.6
0.0165	0	-0.003	0.0105	1.5
0.0165	0.0007	-0.003	0	1.7
0.0157	-0.0008	-0.0046	0.009	1.6
0.0142	-0.0015	-0.003	-0.0008	1.6
0.0112	0.0007	-0.003	0.0007	1.7
0.0067	0	-0.003	-0.0015	1.7
0.003	0.0045	-0.0015	-0.0053	1.6
0.006	0.0067	-0.0046	-0.0023	1.6
0.0105	0.006	-0.003	-0.0046	1.6
0.0165	0.003	-0.0008	-0.003	1.8
0.0112	0.0007	-0.0008	-0.0181	1.5
0.0052	0	0.0015	-0.0173	1.8
0.0037	0.0007	0.0015	-0.0218	1.6
-0.0008	0.0022	0.0022	-0.0203	1.9
0.0015	0.0037	0.003	-0.0015	1.7
0.0045	0.0015	0.0045	0.0052	1.7
0.0075	-0.0015	0.0045	0.0105	1.7
0.0082	0.0007	0.003	0.0075	1.8
0.0052	0	0.0037	0.027	1.8
0.0022	-0.0105	0.006	0.0442	1.9
-0.0023	-0.0105	0.0045	0.0105	1.8
-0.0038	-0.0038	0.0037	-0.0068	1.8
-0.0075	-0.003	0.0022	-0.0023	1.8
-0.0105	-0.0015	0.0007	-0.015	1.6
-0.0113	0.0007	-0.0038	-0.012	1.6
-0.012	0	-0.003	-0.0158	1.8
-0.0135	-0.0015	0	-0.015	1.8
-0.0128	-0.0008	0.0015	-0.0068	1.8
-0.0128	0.0015	0.0015	-0.0091	1.8
-0.0113	0.0007	0.0007	0.0015	1.9
-0.006	0.0015	0.0007	0.0217	1.8
-0.0015	-0.0015	0	0.0375	1.9
0.0007	-0.0008	-0.0008	0.0337	1.8
0.0022	0.0022	-0.0008	0.0165	1.9
-0.0008	0.0015	-0.0015	-0.0346	1.8
-0.0068	0.0015	0	-0.1215	1.8
-0.0068	-0.0015	0.0007	-0.0953	1.8
-0.0091	-0.0098	0.0007	0.06	1.9
-0.0105	-0.0195	0.0007	0.1252	1.9
-0.0135	-0.0128	-0.0008	0.1117	1.9
-0.0165	0.0105	0	0.1297	2
-0.015	0.03	0.003	-0.0346	1.8
-0.0128	0.0292	0.0052	-0.2385	1.8
-0.0075	0.0202	0.006	-0.198	2.1
-0.0046	0.0142	0.0052	-0.1155	1.9
-0.0023	0.0022	0.003	-0.0353	2.2
-0.0023	-0.0038	0.0015	0.0127	1.9
-0.0053	-0.006	-0.0046	0.0015	2.1
-0.0038	-0.0053	-0.0068	0.0015	1.8
0	0.0022	-0.0053	-0.012	2.1
0.003	0.0045	-0.003	0.0487	1.9
0.0067	-0.0015	0.0007	0.0855	2.2
0.0067	-0.0015	-0.0008	0.015	2.1
0.0052	-0.0015	-0.0046	0.003	2
0.0067	-0.0023	-0.006	0.042	2.2
0.006	0.0052	-0.003	0.0532	2.2
0.0037	0.006	0	0.042	2.2
0.0052	0.0007	0.0007	0.0187	2.1
0.0075	-0.0053	0.0007	0.0127	2.3
0.0067	-0.0068	0.003	0.009	2.4
0.0045	-0.006	-0.0008	-0.0008	2.2
0.0082	-0.0083	-0.0008	-0.0023	2.4
0.0067	-0.0068	0	0.0015	2.1
0.0052	-0.0068	0.0007	0.0007	2.4
0.0075	-0.0083	0.0007	0.0052	2.2
0.0082	-0.0075	-0.0008	0.0277	2.4
0.009	-0.0053	0.0022	0.0285	2.2
0.0127	-0.0008	0.0007	0.0165	2.5
0.018	0.0052	-0.0015	0.0195	2.4
0.0165	0.0067	-0.0015	-0.0098	2.5
0.012	0.0007	-0.003	-0.0533	2.3
0.0067	0	0	-0.024	2.5
0	0.0015	-0.0015	0.0015	2.6
-0.0046	0	-0.0015	-0.012	2.5
-0.006	0.0015	0.0007	0.003	2.6
-0.003	0.0015	0.0007	-0.0023	2.6
0.0007	0.003	-0.0008	0.0007	2.6
0.0045	0.0045	0	0.003	2.6
0.006	0.0007	0.0037	-0.003	2.6
0.003	0	0.0015	0.0045	2.7
-0.0023	-0.0023	-0.0008	-0.003	2.6
-0.0083	-0.0015	0	0	2.6
-0.0165	-0.0015	-0.0008	-0.0068	2.6
-0.0233	-0.0015	-0.0008	-0.012	2.7
-0.0256	-0.003	-0.0015	-0.012	2.9
-0.0256	-0.003	-0.0015	-0.0158	2.7
-0.0218	-0.0046	0.0007	-0.0143	2.9
-0.0181	-0.0068	0.0015	-0.0158	2.8
-0.0158	-0.0046	0.0022	-0.0128	2.8
-0.0113	-0.0038	0.0015	-0.0143	2.9
-0.0091	-0.0046	0.0007	-0.0143	2.8
-0.0075	-0.003	0.0007	-0.0083	3.1
-0.0091	-0.0023	0.0007	-0.0023	2.9
-0.0075	-0.0023	0.003	0.0015	3.1
-0.0046	-0.003	0.0022	0.006	2.8
-0.0046	0	-0.0008	0.0067	3.1
-0.0046	0.0015	0.0015	0.0067	2.9
-0.0023	-0.0008	0.0022	0.0097	3.1
-0.0008	0	0.003	0.009	3.1
-0.0038	0.0007	0.0022	0.0097	3.1
-0.006	-0.0008	0.0022	0.0097	3.1
-0.0053	0	-0.0008	0.0127	3.1
-0.0038	0.0007	-0.0023	0.0165	3.3
0.0015	0	-0.0015	0.0217	3.3
0.003	0.0007	-0.003	0.0232	3.3
0.0045	0	-0.003	0.0232	3.3
0.0022	-0.0008	-0.0046	0.0277	3.3
-0.0023	-0.0008	-0.0053	0.0255	3.6
-0.0008	-0.0008	-0.0046	0.0157	3.5
-0.0023	-0.0023	-0.003	0.0037	3.8
-0.0015	-0.0023	-0.003	-0.0083	3.4
-0.0046	-0.0038	-0.003	-0.0128	3.7
-0.0053	-0.0046	-0.0008	-0.015	3.6
-0.0008	-0.0046	-0.003	-0.0181	3.8
0.0037	-0.0068	-0.003	-0.0218	3.6
0.0082	-0.006	-0.0023	-0.0218	3.8
0.0127	-0.006	-0.0008	-0.0181	3.9
0.012	-0.0068	0.0015	-0.0188	3.9
0.0045	-0.0068	-0.0015	-0.0233	3.8
-0.0075	-0.0068	-0.0015	-0.0263	4
-0.0128	-0.0046	-0.003	-0.027	4.1
-0.0105	-0.0046	-0.0015	-0.0293	4.1
-0.0083	-0.0038	-0.0008	-0.0293	4.1
-0.0008	-0.003	0.0015	-0.027	4.1
0.0015	-0.0046	0.0037	-0.0308	4.1
0.0007	-0.003	0.0007	-0.033	4.4
-0.0015	-0.0023	0.0015	-0.0315	4.3
-0.0046	-0.0015	0.0015	-0.03	4.4
0.0007	-0.0015	0.003	-0.033	4.3
0.0045	-0.0008	0.0045	-0.0346	4.6
0.0067	0.0007	0.003	-0.0293	4.6
0.009	0.0007	0.0015	-0.0165	4.7
0.006	-0.0008	0.0007	0.0052	4.8
0.0045	-0.0008	0.0015	0.0225	4.7
0.012	0.0007	0.0037	0.039	4.8
0.018	0.0015	0.0045	0.0487	4.7
0.021	0.0015	0.003	0.0502	4.9
0.0277	0.0007	0.0045	0.051	4.9
0.027	0.0022	0.003	0.0525	4.9
0.0187	0.0015	0.0015	0.0547	5.3
0.0165	0.0022	0.0015	0.0525	4.9
0.018	0.0052	0.0037	0.054	5.3
0.0225	0.0067	0.0045	0.0502	5.1
0.0277	0.0082	0.0037	0.0435	5.3
0.0292	0.0082	0.0037	0.0412	5.3
0.027	0.0067	0.0037	0.0367	5.4
0.0225	0.0067	0.0037	0.03	5.5
0.0202	0.0045	0.0052	0.018	5.5
0.0195	0.0015	0.0052	0.006	5.8
0.0165	0.003	0.0045	-0.0008	5.7
0.0127	0.003	0.003	-0.003	5.8
0.015	0.0022	0.0045	-0.0075	5.8
0.015	-0.0008	0.0052	-0.0105	5.9
0.012	0.0007	0.0045	-0.012	6
0.0097	-0.003	0.0067	-0.0143	6
0.0037	-0.0046	0.006	-0.0143	6.1
-0.0038	-0.0015	0.0045	-0.0165	6.1
-0.0083	0	0.0045	-0.0218	6.5
-0.0068	0.0015	0.0007	-0.0218	6.3
-0.0023	0.0007	0.0015	-0.0188	6.6
0.0007	0.0015	0.0007	-0.0165	6.4
0.003	0.0015	-0.0015	-0.0158	6.8
0	0.0015	-0.0008	-0.0165	6.7
-0.0015	0.0007	0.0007	-0.0165	6.9
-0.0023	-0.0023	-0.0008	-0.0181	7
-0.0023	-0.003	-0.0015	-0.0203	7
0.0052	-0.003	-0.0015	-0.024	7.2
0.012	-0.0015	-0.0015	-0.024	7.3
0.0142	-0.0008	-0.0015	-0.0203	7.3
0.0157	-0.0015	-0.003	-0.0203	7.6
0.0172	-0.0015	0	-0.0188	7.5
0.0195	0	0.0007	-0.0181	7.8
0.0202	0.0007	0.0015	-0.0181	7.8
0.0157	0.0022	0.0045	-0.0165	8.1
0.012	0.0052	-0.0008	-0.0158	7.8
0.0067	0.0045	-0.003	-0.0143	8.1
0.0045	0.0052	-0.0008	-0.012	8.1
0.0007	0.0045	-0.0015	-0.0105	8.4
-0.006	0.0045	-0.0015	-0.0091	8.6
-0.0083	0.0052	-0.0023	-0.0098	8.5
-0.0083	0.0037	-0.0023	-0.0091	8.9
-0.0068	0.006	-0.0015	-0.0075	8.6
-0.0068	0.0075	-0.0015	-0.0053	9
-0.012	0.0067	0	-0.0023	9.1
-0.0188	0.0067	0.0015	0.0015	9.2
-0.0218	0.0037	0.0015	0.003	9.3
-0.0218	0.0007	-0.0008	0.0015	9.4
-0.0248	-0.003	-0.0046	0.0052	9.6
-0.0293	-0.0083	-0.0046	0.0045	9.5
-0.0346	-0.0091	-0.0015	0.003	9.9
-0.0346	-0.0105	0.0007	0.0007	9.9
-0.0353	-0.0113	-0.0008	-0.0038	10.2
-0.0353	-0.0083	0	-0.006	10.1
-0.0315	-0.0053	0	-0.0075	10.4
-0.0233	-0.003	-0.0008	-0.0143	10.4
-0.0173	-0.0046	-0.0015	-0.0195	10.7
-0.015	-0.0008	-0.003	-0.0203	10.7
-0.0113	0.0075	-0.0053	-0.0218	10.7
-0.0053	0.0045	-0.0083	-0.0203	11
-0.0046	0.0007	-0.0128	-0.0188	11
-0.0008	0.0007	-0.0143	-0.0195	11.2
0.009	-0.0068	-0.0203	-0.0158	11.3
0.015	-0.006	-0.021	-0.0128	11.5
0.0247	-0.003	-0.0203	-0.0105	11.8
0.0307	-0.0008	-0.024	-0.0091	11.7
0.033	-0.003	-0.0278	-0.0128	12.1
0.033	-0.0053	-0.0346	-0.0158	12
0.0307	-0.0091	-0.0338	-0.0173	12.4
0.0277	-0.0128	-0.0308	-0.0181	12.3
0.018	-0.0105	-0.0293	-0.0181	12.5
0.0082	-0.0091	-0.0256	-0.0091	12.7
-0.0008	-0.0113	-0.0218	0.0165	12.9
-0.0068	-0.012	-0.0165	0.027	13
-0.0091	-0.0068	-0.0135	-0.0098	13.2
-0.0083	0	-0.0083	-0.024	13.5
-0.0046	0.0037	0.0007	-0.0015	13.5
0.0007	0.003	0.0082	0.006	13.8
0.0052	0.0045	0.0082	0.018	13.8
0.0082	0.0037	0.0135	0.0262	13.9
0.006	0.003	0.018	0.033	14.3
0.0052	0.009	0.0165	0.039	14.3
0.0045	0.0082	0.0195	0.0405	14.6
0.003	0.0045	0.0202	0.0502	14.5
0.0015	0.0052	0.021	0.0487	14.8
-0.0008	0.0052	0.0217	0.0442	15
-0.0008	0.0052	0.024	0.0382	15.1
-0.0008	0.0052	0.024	0.0352	15.2
-0.003	0.0112	0.0187	0.0397	15.3
-0.0083	0.0135	0.0142	0.0502	15.6
-0.0128	0.0075	0.012	0.0592	15.4
-0.015	0	0.0127	0.0592	15.7
-0.0113	-0.003	0.012	0.063	15.8
-0.0053	-0.0023	0.0112	0.0525	16.2
-0.0053	-0.0008	0.012	0.0382	16.2
-0.0046	-0.0008	0.0225	0.036	16.3
-0.0008	-0.0068	0.0292	0.0495	16.5
0.0052	-0.0046	0.0187	0.0292	16.6
0.0075	0.012	0.0187	-0.012	16.8
0.0075	0.0187	0.021	-0.003	16.9
0.0105	0.0195	0.0232	-0.0008	17
0.0097	0.0105	0.0232	0.0007	17.3
0.0127	0.003	0.0142	0.003	17.2
0.0135	0.0007	0.009	0.0037	17.6
0.012	-0.0098	0.003	0.0217	17.6
0.0082	-0.0188	-0.0023	0.018	17.9
0.0045	-0.024	-0.0015	0.0172	17.9
0	-0.027	0.003	0.0142	18.3
-0.0053	-0.027	0.0075	0	18.3
-0.0091	-0.0203	0.0127	-0.0083	18.4
-0.0098	-0.0128	0.018	-0.015	18.6
-0.0083	-0.0075	0.0165	-0.0091	18.7
-0.006	-0.0008	0.0157	-0.0143	19
-0.0038	0.009	0.009	-0.0181	18.9
0	0.024	0.0007	-0.0098	19.4
0.0067	0.0367	-0.0053	0.0022	19.3
0.0097	0.0442	-0.0128	0.0157	19.7
0.0105	0.0405	-0.0256	0.0195	19.8
0.0112	0.0315	-0.045	0.018	20
0.0165	0.0292	-0.0615	0.012	20.2
0.0202	0.024	-0.0706	0.0082	20.2
0.0217	0.0195	-0.084	-0.0015	20.7
0.0262	0.015	-0.0893	-0.0181	20.7
0.0292	0.0112	-0.084	-0.0346	21.1
0.033	0.012	-0.0743	-0.0518	21.2
0.0375	0.0052	-0.0593	-0.0653	21.3
0.039	-0.0075	-0.0361	-0.0803	21.6
0.0442	-0.0293	-0.0023	-0.0825	21.7
0.0457	-0.0428	0.0195	-0.078	21.9
0.0345	-0.045	0.0255	-0.0833	22.2
0.0232	-0.048	0.0255	-0.075	22.5
0.0142	-0.0465	0.012	-0.0233	22.7
0.0052	-0.0533	0.0082	0.0165	22.6
-0.003	-0.0585	0.0165	-0.039	23.2
-0.0105	-0.0623	0.0232	-0.0863	23.1
-0.0158	-0.0645	0.0217	-0.0833	23.6
-0.024	-0.0668	0.0105	-0.1021	23.5
-0.0368	-0.0818	0.006	-0.1028	24
-0.045	-0.0878	-0.0008	-0.0968	24.2
-0.0511	-0.0735	-0.003	-0.084	24.4
-0.0563	-0.0518	0.0045	-0.054	24.6
-0.0645	-0.0315	0.015	-0.0083	24.8
-0.0728	-0.0218	0.0217	0.033	25.2
-0.0773	-0.0128	0.0225	0.0075	25.3
-0.084	0.009	0.0255	-0.0195	25.7
-0.0856	0.0277	0.0277	-0.0173	25.9
-0.0721	0.0382	0.0307	-0.0098	26.1
-0.0615	0.045	0.0345	0.0082	26.4
-0.054	0.0405	0.036	0.0045	26.5
-0.0533	0.0352	0.0345	0.0082	26.9
-0.054	0.0375	0.0307	0.0165	27
-0.0458	0.0382	0.0277	0.0225	27.5
-0.0293	0.0397	0.0262	0.048	27.4
0.0112	0.0412	0.027	0.06	27.9
0.069	0.0367	0.0262	0.0607	27.9
0.1162	0.0315	0.0247	0.0555	28.3
0.129	0.0307	0.021	0.0442	28.4
0.1155	0.0352	0.0127	0.0367	28.7
0.0892	0.0352	0.0082	0.0375	29
0.0712	0.0352	0	0.0345	29.1
0.0742	0.0352	-0.003	0.033	29.5
0.0892	0.03	-0.0023	0.0375	29.5
0.1065	0.0255	0.0007	0.0375	29.9
0.1072	0.0217	0.0015	0.0382	30.1
0.1095	0.0202	-0.0038	0.033	30.3
0.1102	0.018	-0.0023	0.03	30.7
0.0937	0.0135	0.003	0.033	30.8
0.0802	0.0105	0.009	0.0352	31.1
0.0472	0.0112	0.0165	0.0352	31.2
-0.0053	0.0105	0.0225	0.0277	31.6
-0.0495	0.0067	0.0292	0.0202	31.8
-0.078	0.003	0.033	0.0187	32.2
-0.0856	-0.0023	0.036	0.0217	32.2
-0.0615	-0.0091	0.0367	0.0202	32.4
-0.0278	-0.0105	0.036	0.018	32.7
-0.003	-0.0083	0.0345	0.0202	32.9
0.012	-0.0091	0.0322	0.0255	33.2
0.0292	-0.0105	0.0315	0.0637	33.3
0.0457	-0.015	0.0277	0.0975	33.5
0.0435	-0.0165	0.0255	0.0622	33.8
0.0457	-0.0158	0.0217	0.024	33.7
0.0495	-0.0143	0.0202	0.0285	33.5
0.042	-0.0128	0.0187	0.018	33.3
0.0405	-0.015	0.0165	0.009	33.6
0.042	-0.0181	0.0165	0.0022	34.2
0.0352	-0.0128	0.009	-0.0113	35
0.0322	-0.0098	-0.0068	-0.015	35.3
0.033	-0.0098	-0.027	-0.0158	35.5
0.0292	-0.0053	-0.048	-0.0098	35.4
0.0232	-0.0046	-0.0691	-0.0083	35.5
0.027	-0.0015	-0.0945	-0.006	35.5
0.0255	-0.0008	-0.1148	-0.0046	35.6
0.015	0.0007	-0.1155	-0.0083	35.8
0.0105	0.003	-0.1073	-0.0083	36
-0.0091	-0.0008	-0.0878	-0.0091	36.2
-0.024	-0.0046	-0.0638	-0.0105	36.5
-0.0338	-0.0038	-0.0525	-0.0165	36.5
-0.0511	0	-0.0346	-0.0158	36.9
-0.0608	0.003	0.003	-0.0218	36.9
-0.0728	0.0015	0.0307	-0.027	37.3
-0.084	0.0007	0.0435	-0.024	37.1
-0.0795	0.003	0.0562	-0.0278	37.6
-0.0706	0.003	0.0622	-0.027	37.6
-0.0623	0.0045	0.06	-0.0225	38
-0.0638	0.0045	0.0577	-0.0143	38
-0.0713	0	0.0577	-0.0098	38.2
-0.0765	-0.0023	0.0555	-0.0113	38.2
-0.084	-0.0083	0.0465	-0.0143	38.5
-0.0953	-0.0098	0.0352	-0.0218	38.6
-0.1028	-0.0105	0.0232	-0.0293	38.7
-0.1095	-0.0068	0.012	-0.0398	39
-0.126	-0.0023	0.0007	-0.0458	39.2
-0.1253	-0.006	-0.0098	-0.042	39.3
-0.12	-0.003	-0.0181	-0.0346	39.8
-0.1065	-0.0023	-0.0293	-0.0346	40
-0.0968	0	-0.0398	-0.0353	40.2
-0.1013	0.003	-0.0465	-0.0285	40.5
-0.0788	0.0037	-0.0518	-0.0293	40.7
-0.0533	0.003	-0.0533	-0.0293	40.9
-0.0405	0.0022	-0.0533	-0.027	41.1
-0.0233	0.0075	-0.054	-0.024	41.5
0	0.006	-0.0533	-0.0195	41.5
0.009	0.0022	-0.054	-0.0203	41.9
0.0157	0.0007	-0.0503	-0.0188	42.2
0.0217	0	-0.0458	-0.0203	42.3
0.0412	0.003	-0.045	-0.024	42.9
0.0532	0.003	-0.045	-0.0233	42.7
0.057	0.006	-0.0413	-0.0263	43.2
0.0742	0.0082	-0.039	-0.0233	43.2
0.0802	0.0082	-0.0383	-0.0158	43.9
0.0862	0.0075	-0.0346	-0.0068	43.9
0.0772	0.0045	-0.0323	0.003	44.2
0.084	0.0045	-0.0308	0.0112	44.4
0.0892	0.0015	-0.027	0.0195	44.7
0.072	0.0007	-0.0256	0.024	45
0.0667	0.0007	-0.0233	0.0277	45.1
0.0637	-0.0008	-0.0195	0.0322	45.3
0.0517	-0.003	-0.0143	0.0375	45.5
0.0255	-0.0038	-0.0083	0.0427	45.7
0.0172	-0.0053	-0.003	0.042	46.3
0.0142	-0.0053	0.0022	0.0397	46.2
0.0037	-0.0053	0.0075	0.0405	46.7
-0.0038	-0.0053	0.0142	0.0435	46.5
-0.0023	-0.0075	0.0232	0.0457	47.1
0.006	-0.0091	0.0315	0.045	47
-0.0008	-0.0083	0.036	0.048	47.6
-0.0091	-0.006	0.039	0.0525	47.6
-0.003	-0.0075	0.042	0.0547	47.9
0.006	-0.0083	0.0427	0.057	48
0.0127	-0.0068	0.0405	0.0502	48.3
0.018	-0.0068	0.0397	0.0315	48.5
0.0165	-0.0068	0.0442	0.0082	48.5
0.0045	-0.0068	0.0502	-0.0083	48.6
-0.0015	-0.0053	0.0532	-0.027	49
0.0045	-0.003	0.0577	-0.066	49.3
0.0067	-0.0008	0.0592	-0.0691	49.4
0.0015	0.0015	0.06	-0.0233	49.5
0.0127	0.003	0.063	-0.0008	49.9
0.0232	0.0045	0.0637	0.0037	49.8
0.024	0.0045	0.0637	-0.0046	50.3
0.0255	0.003	0.06	-0.0181	50.4
0.0202	0	0.0585	-0.0143	50.6
0.018	-0.0038	0.0637	-0.0195	50.7
0.0172	-0.0053	0.0645	-0.0083	50.9
0.0157	-0.0068	0.0555	0.012	51.2
0.0195	-0.0068	0.036	0.0195	51.1
0.0315	-0.0053	0.018	0.027	51.5
0.0277	-0.003	0.0105	0.0352	51.5
0.0105	-0.0008	0.0135	0.039	51.7
0.0052	0.0015	0.0135	0.0315	51.9
0.0097	0.0022	0.0097	0.0307	52.2
0.0127	0.0015	0.0075	0.024	52.5
0.0112	0.0015	0.0045	0.0015	52.3
0.0082	0.0007	-0.0053	-0.0188	52.6
0	0.003	-0.0128	-0.0518	52.5
-0.0075	0.0045	-0.0173	-0.0721	52.9
-0.012	0.0052	-0.0203	-0.0788	52.8
-0.012	0.0052	-0.0195	-0.1065	53.1
-0.0083	0.0052	-0.0188	-0.1508	53.2
-0.0053	0.0045	-0.0195	-0.1726	53.4
-0.0105	0.0045	-0.0181	-0.135	53.4
-0.0098	0.0022	-0.0181	-0.114	53.5
-0.003	0.0007	-0.0158	-0.114	53.7
0.003	0	-0.0165	-0.0615	53.7
-0.0008	0.0015	-0.0195	-0.0203	54
-0.0128	0.0045	-0.0173	-0.0046	54
-0.0218	0.0045	-0.0173	0.021	54.4
-0.027	0.0052	-0.021	0.0555	54.4
-0.0218	0.006	-0.0195	0.0765	54.3
-0.0128	0.0037	-0.0181	0.084	54.6
0.0045	0.0022	-0.0165	0.093	54.4
0.0127	0.0015	-0.0181	0.0765	54.9
0.006	0.0007	-0.0158	0.042	54.6
0.0037	0	-0.0181	-0.0068	54.9
0.0007	-0.0015	-0.021	-0.048	55
0.006	-0.003	-0.0195	-0.0608	55.1
0.0202	-0.0038	-0.0158	-0.0593	55.3
0.0187	-0.0046	-0.0143	-0.0518	55.2
0.0232	-0.003	-0.012	-0.0473	55.4
0.018	-0.0015	-0.0091	-0.0458	55.3
0.0045	-0.0046	-0.0068	-0.0608	55.4
-0.0008	-0.0053	-0.0053	-0.0803	55.6
-0.0263	-0.0023	-0.006	-0.0983	55.7
-0.0518	-0.0046	-0.0091	-0.108	55.9
-0.0848	-0.003	-0.0105	-0.1095	55.9
-0.1006	-0.0038	-0.003	-0.1178	56.2
-0.0788	-0.003	0.0067	-0.1133	56.2
-0.054	0.0007	0.009	-0.0975	56.5
-0.0398	0.0015	0.0022	-0.0706	56.4
-0.0285	0.003	-0.0158	-0.0405	56.5
-0.0173	0.0037	-0.0436	-0.0181	56.7
0.0045	0.0037	-0.0691	0.0045	56.6
0.0397	0.003	-0.0856	0.0232	56.9
0.0712	0.0015	-0.0953	0.042	56.7
0.0937	-0.0023	-0.093	0.0502	57.2
0.1042	-0.0046	-0.0773	0.0607	57.1
0.1042	-0.0053	-0.0383	0.0727	57.3
0.1005	-0.0053	0.0457	0.0832	57.3
0.1005	-0.006	0.195	0.0877	57.4
0.0952	-0.0068	0.3622	0.0885	57.4
0.09	-0.0053	0.4845	0.0877	57.4
0.0945	-0.0068	0.5392	0.0862	57.6
0.084	-0.0046	0.516	0.0855	57.6
0.0652	-0.0046	0.4545	0.0862	57.8
0.0517	-0.0046	0.3525	0.09	57.6
0.0367	-0.0015	0.2272	0.0922	57.7
0.0195	0.0007	0.12	0.0952	57.6
0.0015	0.0015	0.018	0.0975	57.8
-0.0181	0.003	-0.057	0.0945	57.7
-0.0293	0.0037	-0.1155	0.0922	57.6
-0.0083	0.003	-0.1665	0.0877	57.9
0.0405	0.0052	-0.2026	0.0832	57.6
0.0892	0.006	-0.2265	0.0772	57.7
0.1155	0.0067	-0.2393	0.0712	57.7
0.123	0.0052	-0.246	0.063	57.6
0.1312	0.0045	-0.252	0.0562	57.9
0.126	0.0052	-0.2618	0.0532	57.5
0.0975	0.0045	-0.27	0.048	57.8
0.0607	0.0037	-0.2685	0.045	57.5
0.0277	0.0037	-0.249	0.042	57.7
0.0052	0.003	-0.2145	0.039	57.7
-0.0195	0.003	-0.1778	0.0367	57.8
-0.0398	0.0015	-0.1403	0.0292	57.6
-0.0458	0.003	-0.1035	0.0255	57.6
-0.0511	0.003	-0.0735	0.0202	57.8
-0.054	0.003	-0.0503	0.0165	57.6
-0.0443	0.003	-0.0383	0.0142	57.6
-0.0368	0.0015	-0.0368	0.0142	57.6
-0.0315	0.0007	-0.0458	0.0157	57.6
-0.012	-0.0015	-0.0675	0.018	57.6
0.0157	-0.003	-0.099	0.0165	57.7
0.0472	-0.0038	-0.1305	0.0112	57.7
0.0712	-0.0038	-0.1635	0.0052	57.7
0.0825	-0.003	-0.189	0	57.8
0.0997	-0.003	-0.1935	-0.003	57.6
0.105	-0.0046	-0.177	-0.0046	57.7
0.0915	-0.0015	-0.1411	-0.0015	57.6
0.0607	0.0007	-0.0975	-0.0015	57.8
0.0232	0.0007	-0.0533	-0.003	57.8
0.0135	0.0007	-0.012	-0.0046	57.7
0.018	0.0007	0.0247	-0.006	58
0.0045	0	0.0457	-0.0008	57.9
-0.0143	-0.0015	0.0532	0.0007	58.1
-0.0218	-0.0015	0.057	-0.0113	58
-0.024	-0.003	0.0555	-0.033	58
-0.033	-0.003	0.0562	-0.033	58
-0.0495	-0.0046	0.0502	-0.0293	57.9
-0.0555	-0.0046	0.0465	-0.0615	57.9
-0.0443	-0.0015	0.0495	-0.0735	58
-0.0233	0.0007	0.0465	-0.0428	58
-0.0143	-0.0008	0.0517	-0.0256	57.8
-0.0361	-0.0046	0.0592	-0.0233	58
-0.063	-0.0083	0.066	-0.0083	57.9
-0.0706	-0.0105	0.0697	0.0022	57.8
-0.0743	-0.0181	0.0697	0.033	58
-0.1013	-0.0188	0.0705	0.0405	57.6
-0.1185	-0.0158	0.069	0.0127	57.9
-0.1448	-0.015	0.0667	0.006	57.6
-0.1538	-0.0128	0.063	-0.003	57.8
-0.1523	-0.0105	0.057	-0.0083	57.6
-0.1628	-0.0105	0.0502	-0.0113	57.5
-0.1305	-0.0113	0.0442	-0.0181	57.6
-0.1013	-0.0128	0.0412	-0.0233	57.3
-0.0878	-0.012	0.0382	-0.0368	57.2
-0.066	-0.0098	0.0367	-0.0458	57.3
-0.054	-0.0083	0.0367	-0.0555	57.3
-0.045	-0.0075	0.0442	-0.0623	57.2
-0.0353	-0.0046	0.048	-0.0668	57.1
-0.0346	-0.0023	0.0502	-0.066	57
-0.0195	-0.0008	0.0532	-0.0638	57
0.0007	0.0007	0.0517	-0.0645	56.9
-0.0015	0.0007	0.0487	-0.066	56.6
-0.0188	0.0015	0.0435	-0.0728	56.7
-0.048	0.0015	0.039	-0.0743	56.5
-0.0443	0.0015	0.0352	-0.0728	56.5
-0.0278	-0.0008	0.0307	-0.075	56.3
-0.042	0	0.0262	-0.0698	56.2
-0.0533	0.003	0.0202	-0.0608	56.1
-0.0698	0.003	0.018	-0.0548	56.1
-0.078	0	0.0165	-0.0473	56
-0.0915	0.0007	0.015	-0.0443	55.8
-0.0953	-0.0015	0.0082	-0.0405	55.7
-0.0818	-0.0038	-0.0023	-0.0308	55.7
-0.0533	-0.0015	-0.0083	-0.0203	55.4
-0.0143	-0.0015	-0.0105	-0.0113	55.3
0.0105	-0.0015	-0.0098	-0.0053	55.2
0.0532	0.0007	-0.0038	0	55.2
0.1057	0	0.0045	0.0045	54.9
0.141	-0.0015	0.0142	0.009	55
0.1432	-0.0023	0.024	0.0157	54.8
0.1395	0.0007	0.0307	0.0187	54.8
0.123	0.0037	0.0345	0.0225	54.6
0.084	0.006	0.0315	0.0247	54.5
0.0495	0.0082	0.0352	0.0255	54.4
0.0195	0.0105	0.039	0.0307	54.3
0.009	0.0157	0.0382	0.0345	54
0.0097	0.0165	0.039	0.0382	54
0.0142	0.018	0.0367	0.0442	53.9
0.0195	0.0195	0.033	0.0495	53.8
0.0045	0.0195	0.0307	0.0517	53.5
-0.0203	0.0202	0.0307	0.0465	53.6
-0.0465	0.0195	0.0292	0.0367	53.3
-0.0668	0.0195	0.0262	0.024	53.3
-0.0878	0.018	0.027	0.0157	53.1
-0.108	0.0157	0.0262	0.012	53.1
-0.153	0.0127	0.0225	0.0105	52.9
-0.2026	0.0112	0.0142	0.0105	52.6
-0.1995	0.0097	0.0045	0.0082	52.6
-0.1785	0.009	-0.0068	0.0075	52.4
-0.156	0.0097	-0.0195	0.0082	52.2
-0.1298	0.0112	-0.0285	0.0105	52.1
-0.1178	0.0105	-0.0308	0.0105	51.9
-0.1028	0.0097	-0.027	0.0067	51.7
-0.0856	0.0082	-0.021	0.0015	51.7
-0.0653	0.0067	-0.0165	0.0007	51.7
-0.0533	0.0045	-0.0173	0.0007	51.3
-0.048	0.0015	-0.0218	0	51.3
-0.033	-0.0015	-0.027	0.0007	51
-0.0008	-0.0068	-0.0338	-0.0008	51.1
0.0322	-0.0128	-0.0413	-0.0008	50.7
0.0532	-0.0165	-0.0458	0.0015	50.6
0.0787	-0.0203	-0.0465	-0.0008	50.3
0.12	-0.021	-0.0413	-0.0008	50.3
0.1545	-0.0203	-0.0346	0	50.2
0.1672	-0.021	-0.027	-0.003	49.9
0.171	-0.0203	-0.0218	-0.0053	49.7
0.1665	-0.0188	-0.0143	-0.0083	49.6
0.1597	-0.0181	-0.0098	-0.0091	49.4
0.147	-0.0158	-0.0105	-0.0098	49.4
0.129	-0.015	-0.0091	-0.0091	48.9
0.1012	-0.0158	-0.0098	0.0015	49.1
0.0885	-0.0143	-0.0075	0.0255	48.5
0.1005	-0.0143	-0.003	0.0262	48.8
0.099	-0.0105	-0.003	0.0105	48.5
0.087	-0.0075	-0.0015	0.012	48.4
0.0742	-0.0046	-0.003	0.0052	48
0.075	-0.003	-0.0083	0.0052	47.9
0.0825	-0.0015	-0.0128	0.0112	47.7
0.0817	0.0007	-0.0128	0.0022	47.6
0.0607	-0.003	-0.0158	-0.0038	47.7
0.0442	-0.0038	-0.0158	0.0007	47.2
0.0577	-0.0038	-0.0143	0.0052	47.1
0.0765	-0.0023	-0.0105	-0.0038	46.8
0.0855	-0.0046	-0.0083	-0.0015	46.5
0.0682	-0.0083	-0.0083	0.0015	46.6
0.0382	-0.0098	-0.0046	0	46.2
0.03	-0.0113	0.003	0.0015	46.3
0.0195	-0.0091	0.0075	-0.003	45.7
-0.0015	-0.0091	0.0082	-0.003	45.9
0.0015	-0.0075	0.0082	-0.0053	45.4
0.0022	-0.0068	0.009	-0.0068	45.4
-0.003	-0.0023	0.0105	-0.0091	45
-0.0008	0.006	0.0112	-0.0195	45
0.0022	0.0112	0.0142	-0.0248	44.8
0.0127	0.009	0.0135	-0.0315	44.6
0.018	-0.0015	0.0135	-0.033	44.5
0.0255	-0.0046	0.0142	-0.0218	44.4
0.0315	-0.0068	0.0127	0.0097	43.9
0.0367	-0.0128	0.0127	0.0472	44
0.0405	-0.0008	0.0127	0.0742	43.6
0.0457	0.0142	0.0142	0.081	43.5
0.0472	0.0187	0.0112	0.0555	43.1
0.0345	0.0157	0.0067	0.0352	43.1
0.0277	0.0127	0.006	0.018	42.8
0.018	0.0052	0.0052	0.0187	42.8
0.0037	-0.0046	0.003	0.0345	42.4
-0.0053	-0.0008	0.0022	-0.033	42.3
-0.0135	0.0045	0.0022	-0.0938	42.1
-0.0143	0.0015	0.003	-0.0218	41.8
-0.0225	-0.003	0.003	0.0082	41.8
-0.0308	-0.0015	0.0015	-0.1155	41.4
-0.033	0	0.0015	-0.1815	41.4
-0.033	-0.0015	0.0052	-0.0975	41
-0.0218	0.0082	0.0045	0.0307	41
-0.0098	0.0412	0.009	0.1275	40.7
0.0007	0.051	0.0142	0.0802	40.4
0.006	0.0135	0.0165	-0.0068	40.3
0.0112	0.0007	0.0172	0.0202	40
0.0247	0.003	0.0127	0.0007	40.1
0.0375	-0.0038	0.0112	0.0015	39.5
0.0525	0	0.0112	0.0082	39.6
0.0705	-0.0053	0.0067	-0.0173	39.2
0.084	0.0007	0.006	0.0045	39.1
0.0787	0.0037	0.006	-0.0038	38.8
0.0742	0.03	0.0067	-0.003	38.6
0.0645	0.0697	0.0075	-0.0225	38.5
0.0345	0.0345	0.0045	-0.0181	38.1
0.0045	-0.0046	0.0052	-0.0091	38.2
-0.0263	-0.0128	0.0037	-0.042	37.8
-0.0495	-0.0256	0.0037	-0.0165	37.6
-0.063	-0.0323	0.0052	0.003	37.4
-0.0758	-0.0398	0.0045	0.003	37.2
-0.0825	-0.033	0.0045	0.009	37.1
-0.0975	-0.0098	-0.0008	0.003	36.8
-0.1065	0.0045	-0.0046	0.0067	36.5
-0.1155	-0.003	-0.003	0.0157	36.3
-0.1125	-0.0068	-0.0046	0.0277	36.3
-0.0953	-0.0083	-0.003	0.0405	35.9
-0.0863	-0.0046	-0.0023	0.0675	35.8
-0.075	0.0022	-0.0023	0.09	35.3
-0.0623	0.0045	-0.003	0.0315	35.2
-0.0525	0.0105	-0.0015	-0.1088	35
-0.0413	-0.0053	0.0015	-0.1163	34.6
-0.0346	-0.024	0.0015	0.0052	34.5
-0.024	-0.0135	0	-0.0706	34.2
-0.0165	0.003	-0.0015	-0.0668	33.9
-0.012	0.009	0.0007	0.0705	33.8
-0.0053	0.0082	0.0015	-0.1733	33.5
0.0037	-0.0046	0.0007	-0.2821	33.3
0.0112	-0.0308	0.0007	-0.0143	33.1
0.0172	-0.042	0.0007	0.024	33
0.0217	-0.0361	0.0015	0.1837	32.6
0.0232	-0.0233	0	0.2445	32.5
0.027	0.033	-0.0015	-0.1088	32
0.0315	0.0555	0	-0.108	31.9
0.0375	0.006	0.0015	0.078	31.9
0.0442	-0.0158	0.003	0.2085	31.3
0.0525	-0.0091	0	0.1402	31.3
0.057	0.003	-0.0068	-0.0091	30.8
0.0555	0.0105	-0.0068	0.066	30.9
0.051	-0.0008	-0.0046	0.0045	30.3
0.0457	-0.0143	-0.0091	0.0255	30.1
0.0375	-0.0218	-0.0105	0.0292	30.1
0.027	-0.0091	-0.0113	-0.0248	29.7
0.018	-0.0023	-0.0143	0.0097	29.6
0.0165	-0.0053	-0.0165	-0.0158	29.2
0.0202	0.0022	-0.0195	0.045	29.1
0.0202	0.0045	-0.0218	0.018	28.8
0.0202	0.0067	-0.024	-0.0525	28.5
0.0247	0.0052	-0.0248	-0.0195	28.3
0.0262	0.0045	-0.0233	0.0052	28.1
0.0262	0	-0.0203	0.006	27.9
0.0217	-0.0068	-0.0165	0.0105	27.5
0.018	-0.0053	-0.015	-0.0008	27.6
0.0127	-0.0015	-0.0105	-0.0158	27
0.0007	0.0052	-0.0068	-0.027	27
-0.0143	0.009	-0.006	-0.0938	26.6
-0.0233	0.0082	-0.003	-0.1163	26.5
-0.0278	-0.006	0	-0.0203	26.4
-0.0315	-0.0113	0.0015	0.063	26.2
-0.0293	-0.0068	0.0022	0.0742	26.1
-0.0308	-0.0053	0.0015	0.0345	25.7
-0.0308	-0.0053	0.0045	0.0067	25.7
-0.03	-0.012	0.0052	0.0112	25.4
-0.027	-0.0128	0.003	-0.0608	25.1
-0.0173	-0.0046	-0.0008	-0.1148	24.9
-0.012	0.0157	0.0007	-0.081	24.9
-0.0083	0.048	0.0007	-0.0578	24.7
-0.0053	0.078	0	-0.0721	24.3
0.0015	0.0877	0.0022	-0.0638	24.3
0.0045	0.0675	0	0.0292	23.9
0.012	0.018	0.0015	0.1095	24
0.0202	-0.0233	0.0022	0.0727	23.6
0.0165	-0.0353	0.0022	0.0202	23.5
0.012	-0.0308	0.0052	0.0322	23.3
0.0015	-0.0128	-0.0008	0.0135	23
-0.012	-0.012	-0.0053	0.0045	22.9
-0.021	-0.0256	-0.0046	-0.0668	22.5
-0.024	-0.0368	-0.0023	-0.1365	22.4
-0.0293	-0.0225	0.0007	-0.0436	22.1
-0.0361	-0.0023	0.0037	-0.0195	22
-0.0428	-0.0046	0.0097	-0.0015	21.8
-0.039	0.0067	0.015	0.042	21.5
-0.0361	0.0247	0.0157	0.0292	21.5
-0.0346	0.0367	0.0142	0.0465	21
-0.0315	0.0232	0.0052	0.0037	21
-0.024	-0.0075	-0.0113	-0.0465	20.6
-0.0083	-0.0105	-0.0248	-0.0953	20.4
0.0127	-0.0075	-0.0368	-0.0743	20.2
0.0195	-0.0181	-0.048	0.0262	19.9
0.0075	-0.0015	-0.0511	0.0052	19.6
-0.0105	0.009	-0.0465	-0.0233	19.3
-0.0173	-0.0098	-0.0428	-0.0158	19.1
-0.0128	-0.0105	-0.0383	0.0255	18.9
-0.0143	0.0232	-0.0293	0.0637	18.8
-0.0195	0.0757	-0.0285	0.003	18.4
-0.027	0.0862	-0.0256	0.0157	18.1
-0.0315	0.0825	-0.0195	0.0352	18.1
-0.033	0.0862	-0.0165	0.039	17.6
-0.0353	0.0232	-0.0158	0.063	17.8
-0.0308	-0.0413	-0.0128	0.0427	17.3
-0.0315	-0.0593	-0.012	0.036	17.5
-0.0323	-0.0668	-0.0128	-0.0091	17
-0.027	-0.0675	-0.012	-0.0593	17.1
-0.0105	-0.0555	-0.0053	-0.0181	16.7
0.0007	-0.0338	0	0.057	16.6
0.0067	-0.0323	0.0015	0.063	16.5
0.0187	-0.0555	0.003	0.078	16.4
0.024	-0.0713	0.003	0.0765	16.2
0.0232	-0.0638	0.006	-0.0878	16.1
0.0232	-0.039	0.009	-0.1928	15.9
0.0127	0.015	0.009	-0.0645	15.9
-0.0008	0.0502	0.0052	-0.0046	15.7
-0.0046	0.0472	0.0015	-0.012	15.6
0.0007	0.045	0.0082	0.0472	15.5
0.0052	0.021	0.012	0.0255	15.5
0.0067	-0.0008	0.012	0.0195	15.1
0.015	-0.0091	0.0112	0.0127	15.2
0.0172	-0.0278	0.012	0.0045	15
0.0127	-0.0398	0.0142	0.0345	14.8
0.0142	-0.027	0.018	0.0397	14.8
0.0187	-0.0015	0.0202	0.0712	14.6
0.0202	0	0.021	0.0727	14.4
0.0157	-0.0008	0.0232	0.039	14.4
0.0075	0.0157	0.0277	-0.0346	14.4
-0.0023	0.0195	0.0285	-0.1215	14.1
-0.0091	0.018	0.027	-0.0555	13.9
-0.0113	0.0195	0.0315	0.0787	14
-0.0098	0.0255	0.0367	0.045	13.7
-0.012	0.0442	0.0337	0.0202	13.8
-0.0068	0.063	0.0322	0.0517	13.5
-0.003	0.057	0.03	0.033	13.5
0.003	0.0255	0.0247	0.0187	13
0.0097	-0.0105	0.0217	-0.0256	13.2
0.012	-0.0473	0.0202	-0.0225	12.9
0.0067	-0.0803	0.0195	-0.0218	12.8
-0.0008	-0.0833	0.018	-0.0278	12.5
0.006	-0.078	0.0165	-0.0105	12.6
0.009	-0.0578	0.0157	-0.0075	12.4
0.0097	-0.0405	0.0135	0.0127	12.3
0.0142	-0.0458	0.009	0.012	12.1
0.0127	-0.039	-0.006	0.0232	11.9
0.009	-0.0465	-0.0218	0.024	11.6
-0.0038	-0.0458	-0.0278	-0.0023	11.4
-0.0181	-0.0436	-0.033	-0.0443	11.2
-0.03	-0.0405	-0.0495	-0.084	11.2
-0.03	-0.0458	-0.0706	-0.039	10.9
-0.0256	-0.0675	-0.09	-0.0008	10.8
-0.0256	-0.0713	-0.105	-0.0046	10.7
-0.0308	-0.0593	-0.1155	0.003	10.6
-0.0308	-0.0338	-0.1006	0.0105	10.6
-0.0195	-0.0068	-0.054	0.0285	10.4
-0.0068	0.0195	0.0165	-0.0181	10.2
-0.0015	0.0442	0.1035	-0.021	10.1
-0.003	0.0667	0.1627	0.0637	10.1
-0.0053	0.0682	0.1762	0.057	10
-0.0053	0.0345	0.174	0.0795	9.6
-0.0046	-0.0181	0.1402	0.147	9.7
0.0007	-0.0428	0.0975	0.1027	9.5
0.0045	-0.0443	0.0637	-0.0856	9.5
0.0045	-0.0638	0.0367	-0.3428	9.1
0.003	-0.039	0.0232	-0.2933	9.3
0.0007	0.0127	0.0135	-0.075	9.1
-0.0015	0.0615	0.0075	-0.0518	9.1
-0.0083	0.1117	0.0007	-0.0091	8.9
-0.0083	0.1282	-0.0046	-0.0195	8.7
-0.0091	0.1117	-0.0053	-0.0188	8.8
-0.003	0.0727	-0.003	0.066	8.6
0.009	0.0502	0.003	-0.0008	8.5
0.0232	0.0232	0.0112	-0.0563	8.5
0.0435	0.0292	0.018	0.102	8.5
0.063	0.0465	0.0202	0.1822	8.4
0.081	0.0495	0.0262	0.0607	8.2
0.0967	0.0855	0.0277	0.075	8.3
0.1147	0.0967	0.0277	0.048	8.1
0.1327	0.0787	0.027	0.0232	8.2
0.1417	0.063	0.0255	0.0142	7.8
0.1462	0.042	0.0165	-0.0915	8.1
0.1507	0.009	-0.0105	-0.0413	7.7
0.1537	-0.0368	-0.0353	-0.0158	7.8
0.1567	-0.063	-0.039	0.0592	7.6
0.1545	-0.0608	-0.0436	0.192	7.6
0.1455	-0.048	-0.039	0.1852	7.6
0.1417	-0.0105	-0.0256	0.1065	7.4
0.1342	-0.0008	-0.006	0.0322	7.5
0.1117	-0.048	0.0127	-0.0398	7.5
0.087	-0.0465	0.015	-0.1748	7.2
0.0645	-0.012	0.0082	-0.2618	7.2
0.0457	0.0255	-0.0046	-0.2041	7
0.03	0.0712	-0.0143	-0.075	7.3
0.0225	0.072	-0.0188	-0.0195	6.9
0.0202	0.0607	-0.0233	0.0255	7.2
0.0157	0.0397	-0.024	0.0345	6.7
0.0105	-0.0233	-0.024	-0.1441	6.9
-0.003	-0.0915	-0.021	-0.2483	6.9
-0.0128	-0.1043	-0.0158	-0.0578	7
-0.021	-0.0743	-0.0128	0.15	6.9
-0.0375	-0.039	-0.012	0.174	6.7
-0.0511	-0.003	-0.012	0.0727	6.7
-0.0578	0.0067	-0.0098	0.0345	6.6
-0.0593	0.0015	-0.003	0.1402	6.7
-0.063	-0.0233	-0.0008	0.1102	6.7
-0.0721	-0.0383	-0.0046	-0.066	6.6
-0.0856	-0.0263	-0.0053	-0.1193	6.6
-0.1013	-0.0105	-0.0083	-0.0346	6.3
-0.111	-0.021	-0.0165	0.0187	6.6
-0.1133	-0.0495	-0.0181	0.0472	6.6
-0.1118	-0.0278	-0.0181	0.093	6.5
-0.105	0.006	-0.0195	0.0855	6.4
-0.1013	0.0112	-0.0165	0.0667	6.4
-0.0968	0.0007	-0.015	0.0345	6.4
-0.0915	0.0037	-0.0143	0.0232	6.3
-0.0848	0.018	-0.0128	0.027	6.4
-0.0803	0.0142	-0.0128	-0.0578	6.3
-0.081	0.0157	-0.0165	-0.132	6.4
-0.0765	0.0142	-0.021	-0.1193	6.1
-0.0721	0.0097	-0.027	-0.156	6.3
-0.0638	0.009	-0.0308	-0.1373	6.3
-0.0518	0.0007	-0.0323	-0.0713	6.2
-0.042	-0.0053	-0.0323	-0.0053	6.3
-0.0353	-0.0038	-0.033	0.0457	6.2
-0.0256	-0.0038	-0.0315	0.0202	6.4
-0.0135	-0.0128	-0.0308	0.1957	6
-0.0053	-0.0143	-0.0308	0.348	6.2
-0.0008	-0.0113	-0.0278	0.2895	6.1
0.0022	-0.0015	-0.0308	0.0615	6.2
0.0022	0.0142	-0.0346	-0.1403	6.1
0.0022	0.027	-0.0315	-0.1125	5.9
-0.0023	0.0427	-0.0285	-0.114	6.2
-0.0091	0.0405	-0.0278	-0.0795	5.8
-0.0105	0.015	-0.0278	-0.0008	6.1
-0.0083	-0.0046	-0.0278	0.0427	5.8
-0.003	-0.0218	-0.0263	0.0457	5.9
-0.0008	-0.024	-0.0195	-0.039	6
0.0015	-0.012	-0.0165	-0.0923	5.8
0.0052	-0.0053	-0.0195	0.0142	5.8
0.0015	0.0045	-0.0233	0.0337	5.7
-0.0015	0.0232	-0.0203	-0.0113	5.8
-0.0015	0.0322	-0.0098	0.0967	5.7
-0.012	0.0262	-0.0008	-0.0046	5.8
-0.0218	0.021	0.0082	0.012	5.8
-0.0195	0.006	0.009	0.1612	5.7
-0.021	-0.0128	0.006	0.0727	5.8
-0.0158	-0.0068	0.0052	0.015	5.7
-0.0105	-0.003	0.0045	-0.1838	5.7
-0.0083	0.0105	0.0015	-0.27	5.5
-0.003	0.0285	-0.0008	-0.1298	5.6
-0.006	0.033	-0.0023	-0.1905	5.4
-0.0015	0.0495	-0.0083	-0.1365	5.5
0.0015	0.0307	-0.0368	0.0202	5.4
0.0015	-0.0248	-0.0533	0.0105	5.2
0.0015	-0.0555	-0.003	-0.0165	5.1
0.0015	-0.042	0.0157	-0.0053	4.9
0.0045	-0.0105	0.0007	0.012	4.9
0	0.0097	0.0007	-0.0008	4.6
-0.0083	0.0195	-0.0158	0.045	4.4
-0.0128	0.0217	-0.0091	0.0292	4.1
-0.021	0.0097	-0.0128	-0.0218	4
-0.0256	-0.0368	-0.0181	0.0127	3.8
-0.0263	-0.06	-0.012	0.018	3.5
-0.0233	-0.0346	-0.0105	0.0457	3.5
-0.0256	-0.012	-0.0075	0.0742	3.1
-0.0293	0.003	-0.0015	0.108	3.2
-0.0233	0.0135	0.0195	0.1087	2.8
-0.0098	0.0067	0.0405	0.0742	2.7
0.0075	-0.0083	0.0652	0.0367	2.5
0.0202	-0.0046	0.0825	-0.0008	2.3
0.033	0.0112	0.0982	-0.0181	2.1
0.0472	0.0165	0.1057	-0.1238	1.8
0.0615	0.0067	0.0967	-0.1223	1.9
0.0705	-0.0015	0.084	0.0075	1.8
0.0727	-0.0128	0.06	-0.0105	1.7
0.0675	-0.024	0.0262	-0.03	1.5
0.0592	-0.0315	-0.012	-0.0503	1.5
0.0487	-0.0405	-0.0346	-0.1073	1.4
0.045	-0.0225	-0.033	-0.0623	1.3
0.0457	-0.0038	-0.0218	0.0495	1.5
0.0502	-0.003	0.0217	0.1305	1.3
0.0592	0.0015	0.0885	0.1312	1.6
0.0615	0.003	0.141	0.1237	1.2
0.0532	0.0015	0.1672	-0.012	1.3
0.0435	-0.0023	0.165	-0.1088	1.3
0.0345	-0.0053	0.1432	0.0292	1.3
0.027	-0.003	0.1185	0.1117	1.2
0.0255	-0.0008	0.0982	0.0382	1
0.0217	0.0007	0.0705	0.0787	1.3
0.015	-0.0015	0.0532	0.1552	1.2
0.0067	-0.0053	0.0622	-0.1485	1
-0.0038	0.0015	0.0705	-0.192	1.2
-0.0181	0.0052	0.0712	0.0615	1.2
-0.024	-0.0046	0.0555	0.0367	1.3
-0.0203	-0.0046	0.0345	0.048	1.4
-0.024	-0.0098	0.0195	0.0255	1.5
-0.0181	-0.0165	0.0127	0.0015	1.4
-0.0068	-0.0113	0.0142	0.0157	1.7
0.003	0.0105	0.021	-0.0346	1.5
0.0075	0.0165	0.0442	-0.06	1.8
0.0022	-0.0023	0.0697	-0.0263	1.8
-0.012	-0.0068	0.0832	-0.0765	1.8
-0.0413	0.0097	0.09	-0.183	2
-0.0578	0.0255	0.0825	-0.045	2.1
-0.0765	0.0165	0.0615	0.1447	2.3
-0.084	-0.003	0.0262	0.1462	2.2
-0.0803	0.0105	-0.0158	-0.0308	2.4
-0.081	0.057	-0.0458	-0.0638	2.5
-0.0511	0.0817	-0.0721	-0.0413	2.7
-0.0458	0.0675	-0.0968	-0.1545	2.7
-0.0668	0.0187	-0.1133	-0.2048	2.5
-0.0825	-0.0473	-0.126	-0.1478	3.1
-0.1185	-0.1088	-0.1328	0.0285	3
-0.1433	-0.1298	-0.1388	0.0307	3.3
-0.15	-0.0818	-0.1433	0.0532	3.2
-0.15	-0.0436	-0.135	0.09	3.6
-0.1403	0	-0.12	0.0435	3.4
-0.1073	0.0172	-0.1103	0.0697	3.6
-0.066	0.0045	-0.1125	0.045	3.6
-0.039	0.0067	-0.135	0.0652	3.6
-0.0135	-0.0015	-0.162	-0.0091	3.8
0.0157	0.009	-0.195	0.003	3.7
0.0315	0.0075	-0.2205	0.042	3.9
0.0277	0.0082	-0.2295	0.0082	3.9
0.0217	0.0082	-0.2258	0.039	4
0.018	0.0037	-0.2011	0.0105	4
0.0195	0.0067	-0.1658	0.0285	3.7
0.0345	0.0052	-0.1133	0.0165	3.8
0.0442	0.009	-0.0443	0.0097	3.9
0.0285	0.0082	0.0195	0.0157	4
0.0232	0.0082	0.072	0.0015	3.6
0.0397	0.006	0.1005	0.0142	3.8
0.0772	0.0052	0.1162	0.003	3.7
0.117	0.0052	0.1192	0.0157	3.8
0.1335	0.0067	0.1117	0.0187	3.5
0.1485	0.0052	0.1035	0.036	3.5
0.1462	0.0022	0.0817	0.0375	3.7
0.15	0.0045	0.063	0.024	3.4
0.174	0.003	0.0457	0.0225	3.5
0.2062	0.0045	0.0315	-0.0046	3.4
0.2242	0.006	0.0262	-0.0511	3.6
0.2235	0.009	0.0262	-0.1088	3.3
0.2182	0.0127	0.033	-0.0735	3.4
0.2145	0.0127	0.036	-0.0256	3.4
0.2287	0.012	0.0382	-0.0308	3.2
0.2257	0.0082	0.0412	-0.0046	3.5
0.2122	0.003	0.0465	0.0075	3.2
0.1935	-0.0015	0.0502	0.0292	3.7
0.1695	-0.0091	0.0517	0.084	3.4
0.1515	-0.0181	0.0555	0.1297	3.4
0.1327	-0.0195	0.06	0.105	3.4
0.1162	-0.012	0.0607	0.0015	3.3
0.09	0.0022	0.0615	-0.06	3.3
0.0817	0.0135	0.0622	-0.078	3.1
0.063	0.0202	0.0615	-0.075	3.3
0.039	0.0247	0.0532	-0.0525	3.2
0.0517	0.0232	0.039	-0.0653	3.3
0.063	0.0165	0.0307	-0.0405	3.1
0.057	0.0112	0.0202	0.0345	3.3
0.0375	0.006	0.0067	0.03	3.2
0.0105	0.0045	-0.003	0.0217	3
-0.0105	0.003	-0.0181	0.0607	3
-0.0315	-0.0046	-0.0308	0.0547	3
-0.0428	-0.0135	-0.0398	-0.003	3
-0.0436	-0.0105	-0.0473	-0.0165	3
-0.0548	-0.0038	-0.054	0.0045	2.9
-0.0706	0	-0.0555	-0.0608	2.8
-0.0825	0.003	-0.0533	-0.0706	2.7
-0.0893	0.003	-0.0518	-0.0323	2.9
-0.1006	-0.0023	-0.0458	-0.0218	2.6
-0.1058	-0.0068	-0.0375	-0.042	2.6
-0.1118	-0.0091	-0.0256	-0.0195	2.6
-0.126	-0.0128	-0.0173	0.1207	2.6
-0.1426	-0.0105	-0.0083	0.0157	2.5
-0.1696	-0.0015	0.0045	-0.0803	2.5
-0.1958	-0.0015	0.0105	-0.0203	2.6
-0.219	-0.0008	0.018	0.0142	2.4
-0.237	-0.0008	0.0255	0.0555	2.6
-0.2483	-0.006	0.0277	0.0052	2.2
-0.249	-0.0083	0.0352	0.0082	2.5
-0.2423	-0.0015	0.0465	-0.09	2.2
-0.2393	0.0082	0.0547	-0.126	2.3
-0.2438	0.0075	0.0555	0.0352	2.2
-0.2535	0.003	0.0577	0.009	2
-0.2565	-0.0015	0.0622	-0.0023	2.2
-0.2393	-0.006	0.0577	0.0382	1.8
-0.2175	-0.006	0.0442	0.0457	2.2
-0.1815	-0.0083	0.0307	0.078	1.8
-0.1463	-0.0038	0.0157	0.0082	2.1
-0.1065	-0.0023	0.0007	-0.0038	1.7
-0.0623	-0.0068	-0.015	-0.0046	1.8
-0.027	-0.012	-0.027	-0.0225	1.7
0.009	-0.0181	-0.0361	-0.0083	1.8
0.018	-0.0128	-0.0428	-0.0383	1.8
0.0405	-0.0098	-0.0443	-0.0046	1.6
0.0457	-0.0158	-0.0473	0.0247	1.5
0.006	-0.012	-0.0533	-0.0233	1.5
0.0255	0.0015	-0.0615	-0.048	1.5
0.06	0.012	-0.0675	-0.012	1.4
0.0802	0.0142	-0.0683	-0.0053	1.3
0.1275	0.0075	-0.0713	0.015	1.4
0.165	-0.003	-0.0765	0.0495	1.3
0.198	-0.015	-0.0953	0.0442	1.3
0.2212	-0.0203	-0.1155	0.108	1.2
0.2242	-0.0181	-0.0878	0.105	1.4
0.186	-0.0113	-0.0353	-0.0285	1.2
0.1387	0.0015	-0.0158	-0.0675	1.3
0.1155	0.0007	-0.0308	-0.0323	1.3
0.099	-0.0008	-0.0713	-0.039	1.3
0.0765	0	-0.0968	-0.0285	1.3
0.0637	-0.0008	-0.096	-0.0256	1.2
0.0862	0.0007	-0.084	-0.0308	1.4
0.09	-0.0008	-0.0645	-0.0256	1.3
0.078	0.0007	-0.0555	-0.0315	1.2
0.0592	0.0015	-0.0495	-0.0218	1.3
0.039	0.003	-0.0405	-0.0158	1.3
0.045	0.0045	-0.03	-0.0008	1.3
0.0592	0.0067	-0.0225	0.0082	1.3
0.0465	0.006	-0.0188	0.0007	1.5
0.0397	0.0007	-0.015	0.0022	1.3
0.0547	0	-0.0091	-0.0008	1.5
0.0352	-0.0015	0	-0.0008	1.3
0.0465	0	0.0105	0.0037	1.6
0.0772	-0.0008	0.0195	0.0195	1.3
0.0675	-0.0015	0.0187	0.033	1.6
0.0585	0.0015	0.0187	0.0285	1.4
0.0637	0	0.0165	0.0105	1.5
0.093	-0.0015	0.0142	-0.0143	1.5
0.087	-0.0038	0.0187	-0.0405	1.5
0.0442	-0.006	0.0285	-0.0825	1.5
-0.0038	-0.0091	0.0405	-0.0698	1.5
-0.0503	-0.0091	0.057	0.0697	1.5
-0.0405	-0.0068	0.0802	0.1312	1.5
-0.0075	-0.0008	0.099	0.024	1.4
0.0352	0.0097	0.1132	0.0165	1.6
0.066	0.0165	0.1237	0.0952	1.4
0.057	0.0127	0.126	0	1.5
0.024	0.0007	0.1335	-0.1845	1.3
-0.0083	-0.003	0.135	-0.1253	1.6
-0.0128	0.0015	0.1372	0.0532	1.5
-0.0233	0.0045	0.1447	0.06	1.6
-0.042	0.0105	0.1462	0.0157	1.5
-0.057	0.009	0.1402	0.0142	1.5
-0.057	-0.0008	0.1372	0.0472	1.5
-0.0608	-0.006	0.1372	0.0225	1.4
-0.084	-0.003	0.1297	-0.0083	1.3
-0.1125	0.0037	0.12	-0.042	1.4
-0.123	0.0045	0.1072	-0.105	1.4
-0.1125	0.003	0.0945	-0.0503	1.3
-0.1065	0.0007	0.0817	-0.0128	1.5
-0.0878	-0.0053	0.0675	0.0142	1.4
-0.0593	-0.0135	0.06	0.138	1.4
-0.0398	-0.0181	0.0555	0.1447	1.5
-0.039	-0.015	0.0502	0.1012	1.4
-0.054	-0.0158	0.042	0.0952	1.5
-0.0555	-0.012	0.0337	0.0705	1.4
-0.0458	-0.0113	0.024	0.111	1.6
-0.033	-0.0143	0.018	0.0412	1.4
-0.0346	-0.0053	0.009	-0.1523	1.4
-0.042	0.003	0.0007	-0.3915	1.3
-0.039	0.0172	-0.0015	-0.4125	1.3
-0.0353	0.0232	-0.0015	-0.0915	1.5
-0.027	0.0135	0.0022	-0.006	1.4
0.0022	0.0105	0.0067	-0.0428	1.3
0.0517	0.012	0.009	0.0405	1.5
0.0855	0.0045	0.012	0.0367	1.5
0.0795	0.0022	0.0135	0.0465	1.7
0.0592	0.003	0.0202	0.0555	1.4
0.0615	-0.0008	0.0255	0.0375	1.6
0.1155	0.0015	0.0285	-0.003	1.4
0.1635	0.0022	0.0307	-0.0353	1.5
0.18	0.0007	0.0292	-0.021	1.4
0.1837	-0.0023	0.0225	-0.0083	1.5
0.1635	-0.0053	0.0142	0.0487	1.6
0.1312	-0.0068	0.0052	0.1207	1.6
0.093	-0.0128	-0.0068	0.174	1.5
0.0427	-0.0165	-0.0165	0.1192	1.6
0.0157	-0.0083	-0.0256	0.024	1.5
0	-0.0038	-0.0368	-0.0308	1.6
-0.0195	0.0045	-0.0511	-0.1448	1.5
-0.0353	0.009	-0.066	-0.099	1.5
-0.0458	0.0052	-0.0795	0.072	1.7
-0.045	0.0037	-0.0938	0.0945	1.8
-0.048	-0.0038	-0.1088	0.069	1.6
-0.039	-0.0068	-0.1253	0.0592	1.8
-0.0368	-0.0105	-0.1358	0.0487	1.5
-0.0428	-0.0068	-0.1411	0.0337	1.7
-0.0443	-0.0053	-0.1478	0.0142	1.5
-0.042	-0.006	-0.1485	0.027	1.7
-0.0293	-0.0008	-0.1485	-0.0165	1.6
-0.0233	0.0052	-0.1485	-0.0668	1.8
-0.0225	0.012	-0.15	-0.0593	1.6
-0.0233	0.0135	-0.1538	-0.0848	1.6
-0.027	0.0165	-0.15	-0.0645	1.7
-0.042	0.0165	-0.1426	-0.0308	1.7
-0.063	-0.003	-0.1411	-0.0436	1.7
-0.0691	-0.0218	-0.1403	-0.0818	1.7
-0.066	-0.0158	-0.1365	-0.0361	1.6
-0.0593	-0.0135	-0.129	0.051	1.7
-0.0503	-0.012	-0.1215	0.0015	1.7
-0.048	-0.0075	-0.117	0.021	1.8
-0.0315	-0.0015	-0.1065	0.0855	1.8
-0.012	0.0127	-0.0915	0.0532	1.7
-0.003	0.015	-0.0758	-0.0495	1.5
-0.0053	0.015	-0.0578	-0.0465	1.8
-0.0128	0.0127	-0.042	0.0352	1.7
-0.0233	0.009	-0.0248	0.0067	1.7
-0.0323	0.0052	-0.0053	-0.0105	1.8
-0.0533	0.003	0.0165	0.033	1.8
-0.0975	-0.0008	0.039	0.0787	1.7
-0.0893	-0.012	0.054	0.0247	1.7
-0.0338	-0.0098	0.0675	0.0067	1.7
-0.0098	-0.012	0.0787	0.0427	1.7
-0.0015	-0.0105	0.0877	0.024	1.7
-0.0203	-0.0053	0.0915	0.018	1.7
-0.0465	-0.0053	0.09	-0.003	1.7
-0.0488	0	0.0885	-0.0008	1.9
-0.0495	0.0015	0.0855	0.018	1.7
-0.0465	0.003	0.0825	0.036	1.9
-0.0398	0.0052	0.0817	0.0555	1.6
-0.0323	0.0082	0.0727	0.03	1.9
-0.0315	0.0105	0.0615	0.0165	1.8
-0.033	0.0112	0.051	0.0067	1.8
-0.0285	0.0105	0.0427	-0.0195	1.9
-0.027	0.0082	0.0382	-0.0308	1.8
-0.0203	0.009	0.0277	-0.0218	2
-0.0158	0.009	0.015	-0.012	1.9
-0.0113	0.0075	0.0067	-0.0128	1.9
-0.0046	0.0082	-0.0015	-0.0038	1.9
0.006	0.0105	-0.0105	0.0105	1.9
0.0195	0.0045	-0.0181	0.0157	1.9
0.0315	-0.0038	-0.0256	-0.0128	2.1
0.039	-0.0053	-0.03	-0.0593	2.1
0.0412	-0.0008	-0.0346	-0.057	1.8
0.0345	-0.0008	-0.0346	-0.0653	2.3
0.0277	-0.0075	-0.033	-0.093	1.9
0.0217	-0.0143	-0.0293	0.0367	2.3
0.0172	-0.0083	-0.0256	0.1042	2.1
0.0195	0.0037	-0.0233	-0.0105	2.2
0.0232	0.003	-0.015	-0.0825	2.1
0.03	0.0135	-0.0068	-0.0443	2.2
0.0307	0.0277	-0.006	0.075	2.1
0.0307	0.0075	-0.0098	-0.0691	2.1
0.0307	0.003	-0.0098	-0.135	2.2
0.0292	-0.0015	-0.0091	-0.012	2.1
0.0352	-0.012	-0.006	-0.0105	2.4
0.0375	-0.0105	-0.0083	0.0847	2.1
0.0345	-0.0128	-0.0068	0.0495	2.4
0.0307	-0.006	-0.0068	0.0277	2.4
0.027	0	-0.0083	-0.0046	2.2
0.0277	0.012	-0.0053	-0.126	2.4
0.0322	0.0247	0.0015	-0.0346	2.3
0.0405	0.0135	0.009	0.093	2.6
0.0435	-0.0053	0.0082	0.1365	2.3
0.0457	-0.0083	0.0037	0.0165	2.4
0.0465	-0.0098	0.0022	-0.084	2.4
0.0427	-0.0195	0.0007	-0.0983	2.5
0.0397	-0.0233	0.0007	-0.1013	2.6
0.0345	-0.0135	0.009	-0.1163	2.5
0.033	-0.012	0.0195	-0.1313	2.5
0.0382	-0.03	0.0225	0.0652	2.6
0.0465	-0.0188	0.0172	0.1372	2.6
0.0555	0.0052	0.0217	0.0292	2.5
0.0607	0.009	0.0225	0.018	2.6
0.0562	0.009	0.0157	0.0382	2.6
0.048	0.0045	0.0127	0.018	2.5
0.0382	0.003	0.0105	-0.0465	2.6
0.0255	0.0067	0.0135	0.003	2.5
0.0112	-0.0053	0.018	0.024	2.8
-0.0008	-0.0113	0.0187	-0.0405	2.5
-0.0098	-0.0105	0.0187	0.0352	2.7
-0.0203	-0.0181	0.0202	0.0502	2.6
-0.0278	-0.0195	0.0195	-0.0143	2.6
-0.0346	-0.0143	0.015	-0.0105	2.6
-0.039	-0.0083	0.015	-0.033	2.6
-0.0413	-0.0023	0.015	-0.0443	2.9
-0.0436	0.0015	0.015	-0.0525	2.6
-0.0443	0	0.0135	-0.0653	2.7
-0.0443	-0.0143	0.0112	-0.0458	2.6
-0.0405	-0.0218	0.0127	-0.0181	2.7
-0.033	-0.024	0.0135	0.0195	2.7
-0.024	-0.0256	0.0165	0.0427	2.8
-0.0113	-0.0233	0.0202	0.0367	2.8
-0.0015	-0.0053	0.0195	0.003	2.6
0.0007	0.0165	0.018	-0.0878	2.7
0.0015	0.0135	0.0195	-0.2033	2.6
0.0015	0.021	0.0195	-0.1411	2.7
0	0.0307	0.0247	-0.0248	2.5
-0.003	0.024	0.0315	0.0442	2.8
-0.0195	0.0127	0.0322	0.18	2.8
-0.0593	0.0157	0.0352	0.1575	2.7
-0.0983	0.0345	0.0322	0.1087	2.8
-0.1185	0.0285	0.0255	0.0975	2.6
-0.114	0.024	0.0195	0.012	2.8
-0.0893	0.0195	0.0157	-0.0083	2.6
-0.0593	0.009	0.0142	-0.0825	2.6
-0.03	0.009	0.015	-0.081	2.7
-0.0091	0.0165	0.0157	0.0592	2.6
0.003	0.018	0.021	0.1702	2.7
0.0127	0.006	0.0285	0.2242	2.6
0.018	0.0007	0.0255	0.078	2.6
0.0165	-0.0053	0.0202	-0.0653	2.4
0.0112	-0.012	0.0165	-0.099	2.7
0.009	-0.0091	0.015	-0.048	2.5
0.0067	-0.0008	0.015	0.051	2.7
0.0067	0.0075	0.0165	-0.0068	2.6
0.0105	0.0067	0.0195	-0.0413	2.4
0.015	-0.0008	0.018	-0.0165	2.6
0.0187	-0.0091	0.0135	0.0255	2.5
0.024	-0.0158	0.015	0.2092	2.6
0.0255	-0.0143	0.015	0.2362	2.4
0.0307	-0.0068	0.0105	0.0975	2.4
0.0307	0.0015	0.0082	0.1005	2.6
0.0322	0.0007	0.0075	0.1125	2.5
0.0315	-0.0068	0.0052	0.0622	2.6
0.0277	-0.012	0.0007	0.0495	2.3
0.0232	-0.0181	-0.0015	0.0592	2.6
0.0157	-0.0188	-0.0015	0.1042	2.4
0.0075	-0.0188	-0.003	0.1702	2.6
0.0015	-0.0203	-0.006	0.141	2.3
-0.003	-0.0181	-0.0068	0.0052	2.4
-0.006	-0.0083	-0.0053	-0.2085	2.3
-0.0038	-0.0023	-0.0038	-0.369	2.3
-0.003	0.003	-0.003	-0.0983	2.4
0	-0.006	-0.0023	0.153	2.4
0.006	-0.024	-0.0015	-0.012	2.4
0.0082	-0.0091	-0.0008	-0.0848	2.3
0.0127	0.0067	-0.0008	-0.1275	2.3
0.018	0.0037	-0.003	-0.216	2.2
0.0232	0.0067	-0.0008	-0.1808	2.3
0.027	0.0082	-0.0008	-0.0698	2.4
0.03	0.0052	-0.0015	-0.0233	2.2
0.033	-0.0023	-0.003	0.027	2.5
0.0352	-0.015	-0.0046	0.1267	2.2
0.039	-0.0091	-0.0068	-0.0098	2.2
0.0397	0.0045	-0.0113	-0.1028	1.9
0.0405	-0.0008	-0.0105	-0.2258	2.1
0.042	0.003	-0.0091	-0.27	2.1
0.0427	0.0015	-0.0113	-0.021	2.2
0.0427	-0.0023	-0.012	-0.057	2.1
0.0405	-0.0008	-0.0075	-0.0653	2
0.0367	-0.0046	-0.0068	-0.0308	2.2
0.033	-0.0091	-0.0083	-0.0653	1.9
0.0277	-0.015	-0.0083	0.0345	2.3
0.0225	-0.0195	-0.0068	0.054	1.9
0.018	-0.0173	-0.0091	0.0367	2
0.015	-0.0083	-0.0113	-0.0383	2
0.0097	-0.0038	-0.012	-0.0728	2
0.0067	0.003	-0.0091	-0.12	1.9
0.0045	0.0067	-0.0046	-0.0938	2.1
0.003	0.003	-0.0053	0.033	2
0.0015	-0.0038	-0.0053	0.0382	2
-0.0015	-0.0143	-0.006	0.0352	1.9
-0.0046	-0.0181	-0.0068	0.0157	1.9
-0.0053	-0.021	-0.0083	0.0255	1.9
-0.0053	-0.0181	-0.0068	0.0045	1.8
-0.0046	-0.0158	-0.0046	-0.0346	1.8
-0.003	-0.0128	-0.0046	0.0187	2
0.0015	-0.0083	-0.0023	0.063	1.8
0.0045	-0.0068	0.0007	0.0232	1.8
0.0067	-0.0091	-0.0008	-0.0668	1.8
0.0075	-0.015	-0.0015	-0.0593	1.8
0.0075	-0.0158	-0.0008	-0.0091	1.8
0.0105	-0.0128	0.0037	0.0187	1.8
0.0105	0.0015	0.006	-0.0203	1.8
0.0082	0.0157	0.006	0.0082	1.6
0.006	0.0127	0.0045	0.114	1.9
0.0067	0.0127	-0.0008	0.0435	1.7
0.0075	0.0165	0.0007	0.0682	1.8
0.0075	0.0187	-0.0015	0.0915	1.6
0.006	0.0277	-0.0053	-0.0165	1.5
0.0045	0.0277	-0.0068	0.0202	1.8
0.0045	0.0285	-0.0046	0.0877	1.6
0.003	0.0262	0.0007	0.1635	1.8
0.003	0.0142	0.0045	0.1657	1.6
0.0045	0.0217	0.0052	0.0787	1.9
0.0052	0.0255	0.0022	0.1335	1.8
0.003	0.0105	0.0007	0.1372	1.9
0.0022	0.0082	0	-0.0128	1.8
0	0.0142	-0.0046	-0.078	1.8
-0.0023	0.0105	-0.0053	-0.0945	1.7
-0.0075	0.0142	-0.0053	-0.0818	1.6
-0.0113	0.0307	0.0007	0.0082	1.8
-0.0143	0.0382	0.0022	-0.0098	1.6
-0.021	0.0427	0.0007	-0.0608	1.8
-0.0225	0.0442	0.003	-0.0165	1.8
-0.0233	0.0315	0.0045	-0.0165	1.8
-0.0225	0.0067	0.0045	-0.0181	1.8
-0.0188	-0.0083	0.0007	-0.0023	1.6
-0.0195	0.0007	0.0007	-0.0533	1.9
-0.0195	0.0007	0.0007	-0.0248	1.5
-0.0158	0.0067	0.0007	-0.0361	1.8
-0.0105	0.018	-0.0015	-0.105	1.5
-0.0091	0.0172	-0.0053	-0.0555	1.8
-0.0083	-0.0068	-0.0053	-0.0038	1.6
-0.0075	-0.0518	-0.0053	0.042	1.8
-0.0075	-0.0653	-0.003	0.1065	1.7
-0.0091	-0.0405	-0.0008	0.1102	1.7
-0.0105	-0.0195	0.0015	0.027	1.8
-0.0105	-0.006	0.0015	0.0075	1.6
-0.0143	0.0037	0	0.0405	1.7
-0.0143	0.0105	-0.0046	-0.0038	1.7
-0.0135	0.0165	-0.0053	-0.0818	1.4
-0.012	0.0105	-0.0053	-0.0645	1.5
-0.0091	-0.0023	-0.0053	0.0817	1.5
-0.0091	-0.0135	-0.0053	0.0952	1.5
-0.0068	-0.012	-0.0068	0.0487	1.5
-0.0053	-0.0068	-0.0046	0.0472	1.7
-0.0015	-0.0135	-0.0083	0.006	1.5
0.0007	-0.0158	-0.0128	0.0067	1.6
0	-0.015	-0.0098	-0.0135	1.5
-0.0015	-0.015	-0.0105	-0.024	1.5
-0.0008	-0.0165	-0.0098	-0.0285	1.6
0.0022	-0.0181	-0.0075	-0.033	1.5
0.0067	-0.0181	-0.0083	-0.0015	1.6
0.0097	-0.0165	-0.0053	0.0195	1.5
0.0112	-0.012	-0.003	0.024	1.6
0.0142	-0.0135	-0.0008	0.0135	1.6
0.0127	-0.0165	-0.0023	0	1.6
0.0142	-0.0113	-0.0023	-0.0975	1.7
0.018	0.0007	-0.0023	-0.213	1.3
0.021	0.0127	-0.003	-0.156	1.7
0.024	0.0172	-0.0023	-0.0668	1.7
0.0255	0.0142	-0.003	-0.0436	1.8
0.0247	0.009	-0.003	0.0367	1.5
0.0255	0.0007	0.0007	0.1267	1.9
0.0225	-0.0105	0.003	0.1747	1.6
0.0202	-0.0128	0.0045	0.0577	1.6
0.0172	0.0067	0.0045	-0.096	1.5
0.0135	0.0315	0.0067	-0.1433	1.6
0.0112	0.042	0.0097	-0.1988	1.7
0.009	0.0315	0.0097	-0.0563	1.3
0.0045	0.0217	0.0082	0.0555	1.6
-0.0008	0.0075	0.0082	0.0397	1.8
-0.006	-0.0075	0.009	0.0967	1.4
-0.0105	-0.0075	0.0052	-0.0083	1.6
-0.0113	-0.003	0.003	-0.0691	1.6
-0.0068	0.0045	0.0022	0.048	1.8
-0.0015	0	0.0015	0.0195	1.3
0.0007	-0.0068	0.003	-0.1088	1.6
0.0045	-0.003	0.0015	-0.1575	1.5
0.0037	-0.0083	-0.0008	-0.093	1.8
0.0007	-0.0165	-0.003	-0.0308	1.4
-0.0046	-0.015	-0.0053	-0.048	1.6
-0.012	-0.0105	-0.0038	0.0202	1.5
-0.0173	-0.006	-0.0023	0.0532	1.7
-0.024	-0.0038	0	0.1267	1.7
-0.0308	-0.0195	0.0045	0.276	1.7
-0.0346	-0.0225	0.0067	0.1942	1.5
-0.0353	-0.0083	0.0075	0.1507	1.6
-0.0338	-0.0053	0.009	0.1155	1.8
-0.0256	-0.0068	0.0075	-0.1426	1.6
-0.0173	-0.0046	0.0045	-0.3015	1.3
-0.0143	-0.012	0.0022	-0.1426	1.7
-0.0128	-0.0353	0.0045	-0.0015	1.6
-0.0128	-0.0375	0.0045	-0.0728	1.6
-0.015	-0.0083	-0.0015	-0.0488	1.7
-0.0135	0.0015	-0.0038	0.021	1.8
-0.0091	-0.0053	-0.006	0.0802	1.7
-0.003	-0.0128	-0.0046	0.0915	1.5
0.0022	-0.0068	-0.003	0.003	1.7
0.006	-0.006	-0.0038	-0.003	1.6
0.009	-0.0188	-0.0053	0.0045	1.8
0.0097	-0.0128	-0.0105	0.0442	1.5
0.0075	-0.0068	-0.0091	0.0937	1.8
0.009	-0.0091	-0.0068	0.141	1.8
0.0105	-0.0015	-0.0083	0.171	1.6
0.0105	0.012	-0.0068	0.0292	1.7
0.0105	0.0135	0	-0.1125	1.6
0.0097	0.0105	0.0052	-0.1898	1.8
0.0067	0.024	0.009	-0.267	1.4
0.0037	0.03	0.006	-0.0878	1.8
0.0015	0.0082	0.0052	0.0607	1.6
-0.003	0	0.0052	-0.033	1.9
-0.0023	0.0127	0	0.0082	1.7
-0.003	0.015	-0.0038	0.024	1.7
-0.003	0.0127	-0.0015	0.042	1.8
-0.0008	0.0075	0.0015	0.0405	1.7
0.0015	0.0015	0.003	0.009	1.9
0.003	-0.0008	-0.0008	0.024	1.6
0.0015	-0.003	0.0007	-0.0181	1.8
0.0007	-0.0038	-0.0008	-0.0195	1.7
-0.0015	0.0007	-0.0008	-0.0361	1.6
-0.0038	0.0052	-0.0008	-0.0128	1.7
-0.0046	0.0045	-0.0015	-0.0098	1.6
-0.0053	0.0045	-0.0023	-0.0285	1.8
-0.0023	0.0052	0	0.0232	1.5
-0.0008	0.0045	0.0007	0.0277	1.8
-0.0015	0.0037	-0.003	0.0682	1.5
-0.0015	-0.006	-0.003	0.1762	1.7
0	-0.0308	-0.0008	0.2107	1.5
0.0022	-0.03	-0.003	0.123	1.7
0.003	-0.0113	-0.003	0.1597	1.8
0.0045	0.0007	-0.0008	0.1665	1.5
0.0037	0.0135	0.003	-0.0803	1.7
0.003	0.0105	0.0097	-0.2866	1.5
0.0045	0.0082	0.0112	-0.3436	1.5
0.0052	0.0112	0.0127	-0.1388	1.7
0.0082	0.0022	0.0105	0.0015	1.5
0.0082	0.0052	0.006	-0.027	1.6
0.0097	0.0022	0.0037	0.0442	1.6
0.012	0.0007	0.0007	0.0202	1.8
0.0142	0.0052	-0.0008	0.0405	1.6
0.015	0.0007	-0.0023	0.051	1.7
0.015	0.0045	-0.003	0.0097	1.7
0.0157	-0.003	-0.0046	-0.0338	1.6
0.0165	-0.0068	-0.006	-0.0825	1.4
0.0157	0.0007	-0.006	-0.0068	1.6
0.0127	-0.0053	-0.0038	0.0052	1.8
0.0082	-0.0113	-0.0008	0.0322	1.5
0.0067	-0.0105	-0.0008	0.0742	1.7
0.0067	-0.003	0.003	0.0607	1.5
0.0067	0.0052	0.0045	0.0457	1.6
0.0052	0.0037	0.003	-0.0256	1.5
0.0037	0	0.0007	-0.0068	1.5
0.0045	-0.0053	0.0007	0.0105	1.5
0.006	-0.0105	0.0007	-0.0173	1.5
0.009	-0.0105	0.0015	-0.0023	1.7
0.009	-0.0046	0.003	-0.0195	1.3
0.006	0.0022	0.0007	-0.0225	1.6
-0.0008	0.0075	0	0.0127	1.6
-0.0053	0.012	-0.0008	0.1012	1.6
-0.0083	0.0052	-0.0008	0.129	1.7
-0.012	0.0075	0	0.0622	1.5
-0.0143	0.0142	-0.0008	0.1027	1.8
-0.0165	0.009	0.0015	0.069	1.5
-0.0203	0.0082	0.0015	-0.066	1.6
-0.0263	0.006	0.0015	-0.0825	1.4
-0.0278	0.0052	-0.0008	-0.0848	1.6
-0.0278	0.0067	-0.0023	-0.1043	1.5
-0.0278	0.0105	-0.0015	-0.1208	1.6
-0.0233	0.0195	-0.0015	-0.2415	1.5
-0.0165	0.0195	-0.0046	-0.309	1.3
-0.0083	0.0105	-0.0023	-0.0428	1.6
0.0007	0.0037	0.0022	0.2025	1.6
0.009	0.0015	0.0022	0.1462	1.8
0.0165	-0.0038	0.0007	0.105	1.4
0.0292	-0.0068	0.003	0.06	1.6
0.0472	0.0007	0.0075	-0.012	1.5
0.0765	-0.006	0.0045	-0.0008	1.6
0.1372	-0.0113	0.0052	-0.0578	1.5
0.2265	0.0007	0.0045	-0.0608	1.6
0.351	0.012	0	-0.003	1.8
0.438	0.0225	0	-0.0188	1.5
0.3855	0.0292	0.0022	-0.0675	1.7
0.2835	0.024	0.0075	-0.033	1.7
0.2062	0.0045	0.009	0.1575	1.7
0.1192	-0.015	0.0105	0.2085	1.7
0.0405	-0.0181	0.0082	0.1335	1.6
-0.0256	-0.0091	0.003	0.0082	1.7
-0.0728	0.0067	0.0022	-0.1006	1.7
-0.0938	0.009	0.0015	-0.0218	1.8
-0.0975	-0.0053	0	0.0052	1.6
-0.1035	-0.0091	-0.0015	-0.0338	1.8
-0.1215	-0.0038	-0.0038	-0.006	1.8
-0.1298	-0.0083	-0.003	0.0112	1.8
-0.129	-0.0053	-0.0038	0.0157	1.8
-0.1215	-0.0053	-0.0075	0.006	1.6
-0.1163	-0.0083	-0.0068	-0.0128	1.8
-0.108	-0.0083	-0.006	-0.0091	1.5
-0.093	-0.0158	-0.006	-0.0008	1.9
-0.078	-0.0181	-0.0053	0.0405	1.7
-0.0706	-0.0203	-0.0046	0.0247	1.8
-0.0608	-0.0195	-0.003	-0.0181	1.8
-0.057	-0.0203	-0.003	0.003	1.8
-0.0465	-0.0233	-0.003	-0.012	2
-0.0353	-0.0218	-0.003	-0.0083	1.8
-0.0323	-0.0203	-0.0046	-0.0105	2
-0.0315	-0.0181	-0.0046	-0.0195	1.7
-0.033	-0.015	-0.0038	-0.0083	2
-0.0308	-0.0143	-0.0053	-0.0165	2
-0.0181	-0.0128	-0.0038	-0.0068	2.1
-0.0195	-0.0098	-0.0046	-0.003	2
-0.033	-0.0068	-0.0038	0.0037	1.9
-0.039	-0.0038	-0.0008	0.0045	2.1
-0.0511	-0.0023	-0.0008	-0.0008	1.9
-0.0675	-0.0008	-0.0008	0.0007	2
-0.0773	0.0007	0	-0.0038	2.1
-0.0743	0.0022	0.0015	-0.0046	2
-0.0653	0.0052	-0.0008	-0.012	2.1
-0.063	0.0067	0.0007	-0.0098	2
-0.0615	0.006	0.0045	-0.0105	2.3
-0.0563	0.0037	0.0015	-0.0068	2
-0.0495	-0.0008	0.0015	0.0097	2.2
-0.0443	-0.0046	0.003	0.0142	2.1
-0.042	-0.0046	0.0015	0.0015	2.1
-0.0405	-0.0008	-0.0008	-0.0075	2.1
-0.039	-0.0008	-0.0008	-0.0068	2.2
-0.0315	0.0007	0.0007	-0.0098	2.3
-0.0278	-0.0008	0.003	-0.0083	2.2
-0.0181	-0.0015	0.0015	-0.0105	2.4
-0.0046	-0.0015	0.0007	-0.0128	2.2
0.0045	-0.003	0.0015	-0.012	2.3
0.012	-0.0015	0.003	-0.0105	2.2
0.0157	-0.0008	0.003	-0.0091	2.2
0.0157	0	0.003	-0.0098	2.4
0.0195	-0.0015	0.0007	-0.0068	2.4
0.024	-0.0023	0.0015	-0.0053	2.4
0.0292	-0.0015	0.0007	-0.0038	2.3
0.0345	-0.0015	-0.0008	-0.0015	2.4
0.039	-0.0008	-0.0008	-0.0023	2.4
0.0375	-0.0015	0.0022	-0.0008	2.5
0.0367	0	0.0052	0.0007	2.6
0.0405	0.0007	0.0067	0.0007	2.4
0.042	0.0015	0.006	0.003	2.6
0.0427	0.0015	0.0045	0.006	2.5
0.0397	0.003	0.0037	0.009	2.8
0.0405	0.0045	0.0045	0.0127	2.4
0.0487	0.0045	0.0052	0.0105	2.8
0.0532	0.0052	0.0067	0.0052	2.6
0.0517	0.0052	0.0045	0.003	2.8
0.0465	0.0045	0.0037	0.0015	2.6
0.0375	0.0022	0.0015	0.0007	2.6
0.0277	0.0022	0.0015	-0.0015	2.9
0.0165	0.003	0.0015	-0.0015	2.7
0.012	0.003	-0.0015	-0.0046	2.9
0.0067	0.0037	-0.003	-0.0075	2.9
0.0052	0.003	-0.003	-0.0105	2.9
0.0112	0.003	-0.0053	-0.0098	3
0.0217	0.0015	-0.0068	-0.0068	2.8
0.0292	-0.0008	-0.0075	-0.0083	2.9
0.0285	-0.0008	-0.0091	-0.0105	2.8
0.0292	0.0015	-0.0083	-0.015	3.1
0.0277	0.0052	-0.0068	-0.0143	3
0.0232	0.0067	-0.0053	-0.012	3.2
0.0202	0.0045	-0.0008	-0.0113	3.2
0.015	0.0015	0	-0.0083	3.1
0.012	-0.0008	0.003	-0.0068	3.1
0.012	-0.0015	0.003	-0.0053	3.1
0.0082	-0.0015	0	-0.0068	3.4
0.0015	-0.0015	0	-0.0053	3.2
-0.0046	-0.0015	-0.0015	-0.003	3.5
-0.0105	-0.0008	-0.0053	-0.0008	3.1
-0.021	0	-0.0091	0	3.2
-0.0293	0.0007	-0.0105	-0.0015	3.4
-0.0315	0.0007	-0.012	-0.003	3.3
-0.0256	0.0015	-0.0068	-0.0075	3.5
-0.0181	0.003	-0.0046	-0.0083	3.4
-0.0105	0.0045	-0.0053	-0.0083	3.6
-0.0038	0.003	-0.0015	-0.0105	3.4
0.0105	0.0015	-0.003	-0.0098	3.6
0.0135	0.0037	0.0007	-0.0098	3.6
0.0015	0.0052	-0.0008	-0.0068	3.6
-0.003	0.0067	-0.0008	-0.0046	3.6
-0.0105	0.0082	0.0007	-0.0008	3.6
-0.0158	0.006	0.0015	0.0067	3.9
-0.0225	0.003	0.003	0.0082	3.7
-0.0293	0.0007	0.0045	0.0075	3.9
-0.027	-0.0008	0.0075	0.0075	3.8
-0.0218	0.0015	0.009	0.006	3.8
-0.0165	0.003	0.009	0.0067	3.9
-0.015	0.0007	0.009	0.0112	3.9
-0.0158	-0.0015	0.0105	0.0142	4.1
-0.0181	-0.0038	0.0105	0.0187	3.8
-0.0165	-0.0053	0.012	0.0217	4.1
-0.0158	-0.0053	0.0142	0.024	3.9
-0.0181	-0.0046	0.0135	0.0337	4.3
-0.0143	-0.006	0.0135	0.042	4.2
-0.0105	-0.0083	0.012	0.0502	4.1
-0.0068	-0.0083	0.012	0.0592	4.2
-0.0038	-0.0083	0.0105	0.0562	4.1
-0.0008	-0.0091	0.0075	0.0465	4.3
-0.0015	-0.0083	0.0067	0.0337	4.1
0.0022	-0.0091	0.0045	0.021	4.4
0.003	-0.0105	0.0015	0.0067	4.3
-0.0008	-0.0091	-0.0008	-0.0046	4.5
-0.0038	-0.006	-0.0015	-0.0128	4.5
-0.0068	-0.0046	-0.0023	-0.0218	4.6
-0.0105	-0.0023	-0.0023	-0.0248	4.7
-0.0091	-0.0008	-0.003	-0.0233	4.6
-0.0091	-0.0008	-0.003	-0.0195	4.9
-0.012	0	-0.0023	-0.0188	4.5
-0.0128	0	-0.0053	-0.0158	4.9
-0.0128	0.0007	-0.0053	-0.015	4.8
-0.0113	0.0015	-0.0046	-0.0143	4.9
-0.003	0	-0.0046	-0.0128	4.9
0.0112	0.0015	-0.0038	-0.0165	5
0.0225	0.0015	-0.0015	-0.0218	5.3
0.0322	0.003	-0.0008	-0.0256	5
0.039	0.0052	0.0007	-0.0293	5.2
0.0307	0.0052	0.0015	-0.0308	5.2
0.0045	0.0082	0.0015	-0.0293	5.3
-0.0375	0.009	0.0022	-0.0308	5.4
-0.0458	0.0082	0.0015	-0.0323	5.5
-0.0248	0.009	-0.0008	-0.0278	5.5
-0.0375	0.0097	0.0007	-0.0218	5.6
-0.0383	0.0127	0.0037	-0.0165	5.8
-0.0368	0.0127	0.0037	-0.0105	5.6
-0.0413	0.0127	0.0022	-0.0098	5.9
-0.027	0.0142	0.0015	-0.0113	5.8
-0.015	0.0105	-0.0015	-0.0083	6.1
0.006	0.0105	-0.0008	-0.0038	6
0.0127	0.0082	0.0015	-0.0023	6.1
0.018	0.0045	-0.0008	0	6.3
0.0195	0.0037	-0.0015	0.0015	6.3
0.0165	0.0015	-0.003	0.0037	6.5
0.0217	0	-0.0023	0.0045	6.4
0.0247	0.0007	-0.0015	-0.0015	6.6
0.0352	0.0015	-0.0046	-0.0046	6.7
0.039	0.0015	-0.0038	-0.003	6.7
0.0457	0.003	-0.0053	-0.003	6.7
0.0427	0.003	-0.006	-0.003	6.7
0.0375	0.0007	-0.0068	-0.0046	6.8
0.0315	0	-0.0083	-0.006	6.8
0.0255	0.0007	-0.006	-0.0083	7.2
0.027	0.0015	-0.0053	-0.0091	7.1
0.0277	-0.0015	-0.0046	-0.0053	7.2
0.0352	-0.0038	-0.0038	-0.0008	7.2
0.0345	-0.0046	-0.0046	0.0045	7.1
0.033	-0.006	-0.003	0.0097	7.4
0.03	-0.0068	-0.003	0.0127	7.3
0.0247	-0.0068	-0.0046	0.0157	7.8
0.024	-0.0091	-0.003	0.0157	7.5
0.0202	-0.0128	-0.0023	0.018	7.7
0.0232	-0.0165	-0.003	0.0195	7.8
0.0225	-0.0165	-0.0015	0.0225	7.9
0.0217	-0.0165	-0.0053	0.0217	7.9
0.021	-0.0158	-0.0053	0.0217	7.9
0.0217	-0.0128	-0.0015	0.024	8.1
0.024	-0.0128	-0.0015	0.0232	8.1
0.0277	-0.0098	-0.0008	0.024	8.5
0.033	-0.0068	0	0.024	8.3
0.0352	-0.0053	0.003	0.0225	8.4
0.0352	-0.003	0.003	0.0217	8.5
0.0322	-0.0068	0.003	0.0165	8.7
0.0292	-0.0083	0.003	0.012	8.8
0.0247	-0.0046	0.0022	0.0082	8.7
0.0157	0	0.0015	0.003	9
0.0112	-0.0008	0.0007	-0.0008	9
0.0082	-0.0105	0.0007	-0.003	9.4
0.0045	-0.0143	0.0015	0	9.2
0.0022	-0.0091	0.0022	0.0007	9.4
-0.003	-0.0008	0.0015	-0.0008	9.5
-0.0113	0.0067	0.0007	0.0007	9.7
-0.0188	0.009	0.0007	-0.0015	9.9
-0.0248	0.0075	0.0015	-0.0015	9.9
-0.0278	0.003	0.003	-0.0046	10.1
-0.03	0.003	0.0037	-0.0091	10.1
-0.03	0.0015	0.003	-0.0083	10.3
-0.03	-0.0008	0.0045	-0.0105	10.4
-0.0278	0	0.0052	-0.0135	10.4
-0.0285	0.0052	0.0067	-0.0105	10.7
-0.0293	0.0097	0.0052	0.0105	10.7
-0.0263	0.0052	0.0045	0.0157	10.9
-0.0218	0.0045	0.003	-0.0165	11
-0.0233	0.0037	0	-0.0165	11.2
-0.024	0.0052	0.0007	-0.003	11.2
-0.0248	0.0082	-0.0008	-0.0046	11.5
-0.0218	0.0105	-0.0008	0.0015	11.5
-0.0233	0.0097	-0.0008	-0.0091	11.7
-0.027	0.0015	-0.0008	-0.0165	11.8
-0.03	-0.0008	0.0007	-0.021	11.8
-0.0346	0.003	0.0007	-0.0285	12.1
-0.0353	0.0052	-0.003	-0.0233	12.1
-0.0308	0.0037	-0.0046	-0.0195	12.2
-0.027	-0.0015	-0.0053	-0.012	12.5
-0.024	-0.0015	-0.0083	-0.006	12.5
-0.0203	0	-0.0083	-0.0046	12.8
-0.0158	-0.003	-0.0075	-0.0053	12.8
-0.012	-0.003	-0.0083	-0.006	13.1
-0.0053	-0.0015	-0.0091	-0.0091	13
0.0007	0.0007	-0.0105	-0.0105	13.4
0.0075	0.0067	-0.012	-0.0128	13.4
0.0112	0.012	-0.0135	-0.0128	13.7
0.0142	0.0157	-0.0135	-0.0038	13.7
0.018	0.018	-0.012	0.0022	14
0.0217	0.0135	-0.0143	0.009	14.1
0.0247	0.0105	-0.0143	0.018	14.3
0.0255	0.009	-0.0105	0.0217	14.5
0.027	0.003	-0.0083	0.0255	14.6
0.03	-0.0046	-0.0068	0.0292	14.9
0.027	-0.0113	-0.006	0.0322	15
0.0232	-0.0046	-0.003	0.0375	15.1
0.021	0.0045	0.0007	0.036	15.5
0.0217	0.0082	0.0007	0.0277	15.4
0.0217	0.0135	0.0015	0.0247	15.7
0.0217	0.0142	0.0007	0.0247	15.8
0.0217	0.0187	-0.0015	0.009	16.2
0.021	0.024	-0.0015	-0.0128	16
0.0195	0.0232	-0.003	-0.0195	16.5
0.0172	0.0142	-0.0075	-0.0135	16.5
0.0165	0.009	-0.0091	-0.0083	16.7
0.018	0.0097	-0.0091	-0.0046	16.8
0.0195	0.009	-0.0091	0.0105	17
0.0142	0.0075	-0.0091	0.0427	17.3
0.0157	0.0015	-0.0091	0.0405	17.4
0.0232	0.0045	-0.0091	0.0015	17.5
0.0225	0.0015	-0.0053	0.0105	17.7
0.0172	-0.0053	-0.003	0.027	17.9
0.0195	-0.003	0	0.0285	18.1
0.0225	-0.0046	0.0052	0.0382	18.4
0.0292	-0.0098	0.0112	0.0232	18.5
0.0307	-0.0165	0.0202	0.0157	18.7
0.027	-0.0203	0.0262	0.0067	19.1
0.0262	-0.0195	0.0292	-0.0135	19.1
0.0255	-0.0098	0.0315	-0.027	19.5
0.0255	0.0007	0.0292	-0.039	19.5
0.0255	0.003	0.0277	-0.0346	19.8
0.0255	-0.0008	0.0255	-0.0353	19.8
0.024	-0.003	0.0247	-0.045	20.2
0.021	-0.0038	0.0232	-0.057	20.3
0.0195	-0.0091	0.0232	-0.0735	20.7
0.0172	-0.0158	0.021	-0.0938	20.7
0.0127	-0.0248	0.0195	-0.114	21
0.009	-0.0353	0.018	-0.1343	21
0.0097	-0.0405	0.0135	-0.165	21.4
0.009	-0.0428	0.0082	-0.1763	21.5
0.0037	-0.0488	0.0022	-0.18	21.8
-0.0046	-0.0503	0.003	-0.1928	22
-0.0128	-0.0458	0.0045	-0.1928	22.4
-0.0135	-0.0428	0.0037	-0.1793	22.5
-0.015	-0.0353	0.0045	-0.159	22.7
-0.0173	-0.0293	0.0037	-0.1335	22.9
-0.0173	-0.0323	0.0037	-0.1006	23.3
-0.0181	-0.0338	0.003	-0.0698	23.4
-0.0218	-0.0338	0.0015	-0.0405	23.8
-0.0338	-0.0285	-0.0038	-0.0165	23.8
-0.0503	-0.0173	-0.0263	0.003	24.2
-0.0653	-0.0105	-0.0788	0.0262	24.3
-0.0706	-0.0105	-0.12	0.0487	24.7
-0.0706	-0.0105	-0.0698	0.0615	24.8
-0.078	-0.0083	0.0315	0.0622	25.2
-0.0878	-0.0053	0.0675	0.0615	25.5
-0.0878	0.0007	0.03	0.0712	25.6
-0.0825	0.0052	-0.0068	0.0892	26
-0.078	0.0022	-0.0346	0.108	26.2
-0.0788	0.003	-0.0525	0.123	26.3
-0.0765	0.0127	-0.0405	0.1305	26.7
-0.0615	0.0172	-0.0218	0.1365	26.9
-0.0503	0.0217	0.0045	0.1425	27.4
-0.042	0.024	0.0315	0.1402	27.3
-0.0218	0.018	0.0412	0.141	27.9
-0.0053	0.018	0.0292	0.1417	27.9
0.0105	0.018	0	0.1312	28.3
0.0217	0.0135	-0.024	0.1245	28.6
0.03	0.0052	-0.0383	0.1185	28.8
0.0307	-0.0008	-0.0285	0.108	29
0.0255	-0.0008	-0.0015	0.0847	29.4
0.0247	0.0022	0.0247	0.0637	29.8
0.0255	0.0067	0.0405	0.0607	29.9
0.027	0.0157	0.0442	0.0577	30.2
0.0262	0.0232	0.0495	0.0577	30.4
0.024	0.027	0.0465	0.0577	30.6
0.024	0.0277	0.0345	0.0555	30.9
0.0247	0.0255	0.0217	0.054	31.1
0.0202	0.0217	0.0075	0.0517	31.5
0.0165	0.0195	-0.0105	0.0532	31.5
0.018	0.0172	-0.0188	0.0525	32.1
0.0112	0.0142	-0.0128	0.0495	32
0.0082	0.0165	-0.0008	0.0382	32.5
0.0105	0.0202	0.0045	0.0195	32.6
0.0142	0.0225	0.0045	0.0007	33
0.0105	0.027	0.003	-0.006	33.3
-0.0068	0.0307	-0.0008	0.0015	33.4
-0.0143	0.0255	0.0015	0.0015	33.8
-0.0225	0.0195	0.0037	0.0015	33.9
-0.0263	0.0105	0.0082	0.0217	34.3
-0.0165	0.0015	0.012	0.0577	34.4
-0.0023	-0.003	0.0135	0.0412	34.6
0.0217	-0.003	0.0142	-0.0128	35
0.0427	-0.0015	0.0127	-0.0143	35.1
0.0607	0	0.0105	-0.0195	35.4
0.0697	0.0007	0.009	-0.0308	35.5
0.0712	-0.003	0.0052	-0.021	35.9
0.0667	-0.0053	-0.0008	-0.0218	36
0.0517	-0.0046	-0.0038	-0.0158	36.3
0.0292	-0.0023	-0.0023	-0.0315	36.6
0.0007	-0.0068	0.003	-0.042	36.8
-0.0225	-0.0091	0.0097	-0.0428	36.9
-0.03	-0.0083	0.0127	-0.0518	37.1
-0.027	-0.0091	0.0142	-0.048	37.4
-0.0195	-0.0091	0.015	-0.0428	37.7
-0.012	-0.0068	0.0157	-0.0346	38.1
-0.0105	-0.006	0.012	-0.0308	38.2
-0.0105	-0.0053	0.0067	-0.0256	38.5
-0.0075	-0.0008	-0.0008	-0.0181	38.6
-0.0075	-0.0008	-0.0098	-0.015	38.7
-0.0143	-0.0068	-0.0181	-0.0158	39.1
-0.024	-0.0098	-0.027	-0.0233	39.1
-0.0308	-0.0128	-0.033	-0.0293	39.5
-0.027	-0.0143	-0.0405	-0.0293	39.6
-0.0173	-0.0128	-0.0525	-0.0233	40
-0.0053	-0.0143	-0.066	-0.0263	40
0.006	-0.0158	-0.0743	-0.024	40.2
0.018	-0.0203	-0.0848	0.0157	40.8
0.0345	-0.0285	-0.0885	0.0525	40.8
0.0532	-0.0285	-0.0863	0.0195	41
0.075	-0.0248	-0.084	-0.0113	40.9
0.0952	-0.0218	-0.0773	-0.006	41.5
0.1087	-0.0203	-0.0713	-0.0173	41.4
0.12	-0.0218	-0.0518	-0.0091	41.9
0.1297	-0.024	-0.0203	-0.0046	41.8
0.1267	-0.0218	0.0067	-0.003	42.3
0.117	-0.0188	0.0277	0.003	42.2
0.1087	-0.0181	0.0442	-0.003	42.6
0.1012	-0.0158	0.0705	0.0022	42.7
0.0892	-0.0135	0.0915	-0.0015	42.9
0.0742	-0.012	0.1072	-0.0038	43.1
0.054	-0.0083	0.1177	0.0007	43.1
0.0315	-0.006	0.1125	0.0015	43.3
0.0157	0.0007	0.1042	0.0015	43.8
0.003	0.009	0.0952	-0.003	43.9
-0.0023	0.018	0.0855	-0.0008	44.2
-0.0091	0.024	0.0772	-0.0008	44.4
-0.015	0.027	0.0735	0	44.8
-0.0195	0.0307	0.069	-0.0053	44.8
-0.0263	0.033	0.0615	-0.0143	45.1
-0.0368	0.0337	0.0592	-0.0195	45.2
-0.0436	0.0315	0.054	-0.033	45.6
-0.0428	0.03	0.0532	-0.0436	45.6
-0.0428	0.027	0.054	-0.0465	45.8
-0.0488	0.024	0.0442	-0.0495	46
-0.0533	0.0232	0.033	-0.0488	46.2
-0.0563	0.018	0.0202	-0.0465	46.4
-0.0608	0.015	0	-0.0465	46.6
-0.0608	0.0105	-0.0195	-0.0465	46.8
-0.0668	0.0075	-0.0323	-0.054	46.9
-0.0735	0.0045	-0.0428	-0.063	47.2
-0.0743	0.003	-0.0533	-0.063	47.3
-0.0803	0.003	-0.06	-0.0615	47.6
-0.0975	0.0045	-0.0675	-0.0608	47.8
-0.1065	0.0045	-0.0698	-0.0638	47.7
-0.1013	0.0045	-0.0645	-0.063	48.4
-0.0878	0.0052	-0.0518	-0.0555	48.2
-0.0825	0.0052	-0.033	-0.0495	48.7
-0.0863	0.0052	-0.015	-0.039	48.6
-0.0803	0.003	-0.021	-0.033	49.1
-0.075	0.0022	-0.0443	-0.0278	49.2
-0.0735	-0.0015	-0.0473	-0.0218	49.6
-0.0691	-0.003	-0.033	-0.0181	49.5
-0.0713	-0.003	-0.0181	-0.012	49.8
-0.0698	-0.0046	-0.015	-0.0091	49.9
-0.0691	-0.0046	-0.0368	-0.012	50.2
-0.066	-0.0068	-0.0698	-0.015	50.4
-0.0555	-0.0091	-0.1013	-0.0165	50.6
-0.0563	-0.0128	-0.1238	-0.0105	50.8
-0.0608	-0.0135	-0.1305	-0.0046	51.1
-0.0555	-0.0135	-0.1223	-0.0015	51.1
-0.048	-0.0143	-0.1073	0	51.3
-0.0361	-0.0113	-0.09	-0.003	51.3
-0.027	-0.0046	-0.0728	-0.0083	51.8
-0.0203	0.0022	-0.0645	-0.0158	51.8
-0.0128	0.003	-0.0578	-0.0181	52.1
-0.0053	0.0052	-0.0488	-0.0181	52.1
0.012	0.003	-0.0413	-0.0195	52.5
0.027	-0.0015	-0.0346	-0.0158	52.7
0.0307	-0.0105	-0.0256	-0.0053	52.8
0.0315	-0.0195	-0.0105	-0.0015	53.1
0.0345	-0.027	0.006	-0.0075	53.2
0.0352	-0.0346	0.0247	0.0045	53.6
0.0457	-0.0383	0.0427	0.0292	53.6
0.0562	-0.0405	0.0592	0.033	54
0.0637	-0.042	0.0765	0.033	54
0.0787	-0.0405	0.0915	0.0345	54.4
0.093	-0.039	0.1035	0.0285	54.3
0.1027	-0.0338	0.1177	0.033	54.7
0.1095	-0.0256	0.1297	0.0345	54.8
0.1087	-0.0158	0.1387	0.0345	54.8
0.1027	-0.0091	0.144	0.0337	55.2
0.1005	-0.0046	0.1417	0.0307	55.2
0.1005	-0.0008	0.1312	0.0315	55.5
0.1005	0.0045	0.1215	0.0322	55.7
0.1087	0.0075	0.111	0.0382	55.9
0.12	0.0105	0.1042	0.0412	55.9
0.1192	0.0097	0.105	0.0427	56.1
0.1065	0.0097	0.1042	0.042	56.4
0.105	0.009	0.099	0.0382	56.5
0.1065	0.0097	0.0862	0.0337	56.8
0.099	0.012	0.0765	0.0322	56.9
0.0877	0.0135	0.069	0.0322	57.1
0.087	0.0202	0.057	0.0277	57.2
0.0892	0.0315	0.0465	0.027	57.4
0.0735	0.0472	0.0352	0.0292	57.6
0.0472	0.0607	0.0292	0.0352	57.7
0.0112	0.0705	0.021	0.039	58
-0.0195	0.0727	0.009	0.0382	57.8
-0.042	0.072	-0.0158	0.0345	58.1
-0.0638	0.072	-0.048	0.024	58.4
-0.0706	0.0652	-0.081	0.0142	58.2
-0.0533	0.057	-0.1215	0.0075	58.4
-0.027	0.0465	-0.1688	0.0007	58.3
-0.0195	0.0367	-0.2138	-0.0008	58.6
-0.0181	0.0277	-0.261	-0.0015	58.7
-0.012	0.018	-0.309	-0.0046	59
-0.0053	0.0082	-0.3421	-0.0083	58.9
-0.0105	0.0007	-0.3023	-0.012	59.2
-0.012	-0.0083	-0.1553	-0.015	59
-0.0015	-0.0181	0.0315	-0.0158	59.4
0.0202	-0.0256	0.2032	-0.0128	59.2
0.0405	-0.033	0.3465	-0.0105	59.5
0.045	-0.0375	0.4597	-0.0098	59.4
0.0427	-0.0413	0.531	-0.0083	59.6
0.0112	-0.0428	0.5295	-0.0053	59.6
-0.0278	-0.0405	0.4935	0.0007	59.7
-0.039	-0.0383	0.42	0.0045	59.7
-0.0375	-0.0346	0.3082	0.009	59.8
-0.027	-0.03	0.1995	0.0157	59.8
0.0277	-0.0263	0.1072	0.0195	59.8
0.117	-0.024	0.048	0.0217	59.9
0.1725	-0.024	0.0082	0.024	60.1
0.1747	-0.021	-0.024	0.0262	59.9
0.1642	-0.0195	-0.057	0.0232	60.2
0.1537	-0.0181	-0.0938	0.0217	59.9
0.1267	-0.0165	-0.1268	0.0202	60.3
0.0997	-0.0135	-0.153	0.0165	60
0.0787	-0.012	-0.1635	0.0105	60.4
0.0352	-0.0098	-0.1748	0.0052	60.1
-0.0083	-0.0068	-0.2003	0.0052	60.5
-0.0315	0.0007	-0.2475	0.0082	60.3
-0.054	0.006	-0.3218	0.012	60.3
-0.0945	0.009	-0.3998	0.0127	60.3
-0.1215	0.0112	-0.4658	0.012	60.2
-0.1298	0.0105	-0.5078	0.0105	60.4
-0.1628	0.0127	-0.519	0.0045	60.2
-0.1673	0.009	-0.495	-0.0023	60.6
-0.1335	0.006	-0.441	-0.006	60.3
-0.0728	0.0052	-0.3743	-0.0105	60.7
-0.0128	0.0052	-0.2955	-0.0143	60.5
0.003	0.0082	-0.2205	-0.0143	60.5
0.009	0.0097	-0.1553	-0.0128	60.5
-0.0023	0.0142	-0.0968	-0.0143	60.6
-0.0068	0.018	-0.0436	-0.0188	60.8
-0.0015	0.0232	0.0015	-0.0203	60.7
-0.0091	0.0255	0.0322	-0.0233	60.7
-0.0233	0.0232	0.0532	-0.0263	60.6
-0.0436	0.0195	0.0705	-0.0248	60.9
-0.0638	0.0165	0.09	-0.0218	60.8
-0.0893	0.0135	0.1117	-0.0203	60.7
-0.096	0.0097	0.1357	-0.0158	60.6
-0.0863	0.0082	0.1597	-0.0105	60.8
-0.0885	0.0067	0.1785	-0.0083	60.9
-0.081	0.009	0.186	-0.006	60.7
-0.0968	0.0105	0.1807	-0.003	60.8
-0.0975	0.0082	0.1642	0.003	60.7
-0.0398	0.0045	0.1387	0.0105	60.8
-0.0165	0	0.1125	0.0165	60.8
-0.0638	-0.0083	0.0877	0.0255	61.1
-0.0856	-0.0158	0.0682	0.033	60.8
-0.0375	-0.0181	0.0495	0.0345	60.8
-0.0346	-0.0195	0.0285	0.0352	60.9
-0.0015	-0.0225	0.0142	0.039	60.9
0.0427	-0.0256	0.0037	0.0412	61.1
-0.0105	-0.0256	-0.0046	0.042	60.9
-0.0038	-0.0256	-0.0053	0.0382	61.1
0.0255	-0.027	-0.0015	0.0307	61.1
0.042	-0.03	0.0052	0.0202	60.9
0.045	-0.0346	0.0165	0.0015	61
0.009	-0.0361	0.027	-0.0233	60.9
-0.006	-0.039	0.0307	-0.0465	61
-0.0165	-0.0405	0.0367	-0.0668	60.7
0.0067	-0.039	0.0442	-0.0856	61
0.0532	-0.0368	0.0517	-0.0953	60.8
0.075	-0.0323	0.0637	-0.0945	61
0.084	-0.0218	0.075	-0.0953	60.7
0.0862	-0.012	0.0855	-0.1021	60.8
0.0615	-0.0195	0.0967	-0.105	60.6
0.0825	-0.0315	0.111	-0.108	60.8
0.162	-0.0315	0.1237	-0.1335	60.6
0.195	-0.0195	0.129	-0.1411	60.5
0.1417	-0.0046	0.1297	-0.093	60.5
0.0322	0.009	0.1297	-0.0735	60.4
-0.039	0.0195	0.1215	-0.0668	60.3
-0.0653	0.0255	0.1117	-0.0428	60.3
-0.0833	0.0292	0.1005	-0.039	60.3
-0.1103	0.0315	0.0825	-0.0181	60.3
-0.129	0.0315	0.0622	-0.0091	60
-0.1328	0.0322	0.039	-0.0008	60
-0.1583	0.0322	0.018	0.015	59.9
-0.1845	0.03	-0.0023	0.027	59.8
-0.1943	0.0277	-0.0218	0.0442	59.6
-0.1883	0.024	-0.0346	0.054	59.8
-0.1808	0.021	-0.042	0.0637	59.4
-0.1928	0.018	-0.0458	0.057	59.5
-0.2235	0.015	-0.0436	0.0532	59.2
-0.2235	0.015	-0.0368	0.0675	59.1
-0.1913	0.0157	-0.0338	0.0667	59
-0.1688	0.0217	-0.0353	0.0615	59
-0.132	0.027	-0.0346	0.0615	59.1
-0.0623	0.0292	-0.0383	0.063	58.7
-0.0015	0.0315	-0.0383	0.0585	58.8
0.039	0.03	-0.0405	0.0502	58.5
0.0825	0.0277	-0.0428	0.0465	58.5
0.1252	0.0255	-0.039	0.042	58.2
0.1552	0.0247	-0.0383	0.0412	58.2
0.1702	0.0277	-0.0346	0.042	58.1
0.183	0.0292	-0.0308	0.0277	58
0.2047	0.0307	-0.0256	0.0007	57.9
0.2122	0.0322	-0.0225	-0.012	57.6
0.2047	0.0322	-0.0195	-0.0135	57.6
0.1845	0.03	-0.0158	-0.021	57.4
0.1477	0.0285	-0.0143	-0.0083	57.3
0.108	0.018	-0.0105	0.0607	57.1
0.0892	0.0052	-0.0105	0.117	57
0.0742	0.0015	-0.012	0.0697	56.8
0.0352	-0.0068	-0.0128	0.018	56.6
0.0232	-0.0165	-0.0158	0.003	56.6
0.0202	-0.024	-0.0165	-0.0203	56.3
0.009	-0.0323	-0.0165	-0.0195	56.3
0.0165	-0.039	-0.0128	-0.0233	56.2
0.0165	-0.0428	-0.0105	-0.0225	55.9
0.0232	-0.0428	-0.0083	-0.0188	55.8
0.0352	-0.0428	-0.0068	-0.0218	55.7
0.0262	-0.042	-0.0091	-0.0218	55.5
0.0015	-0.0436	-0.012	-0.0248	55.2
-0.0083	-0.042	-0.0188	-0.0225	55.3
-0.0181	-0.039	-0.024	-0.0256	55.1
-0.0353	-0.0405	-0.0256	-0.0293	54.9
-0.0578	-0.0443	-0.0278	-0.0293	54.6
-0.0825	-0.0503	-0.0293	-0.0315	54.6
-0.0915	-0.0578	-0.03	-0.03	54.5
-0.0975	-0.063	-0.0323	-0.0248	54.1
-0.0945	-0.0638	-0.0375	-0.0165	54
-0.1013	-0.063	-0.042	-0.0135	53.8
-0.1073	-0.0608	-0.0436	-0.0143	54
-0.1095	-0.0555	-0.0413	-0.012	53.4
-0.1155	-0.0511	-0.0346	-0.0098	53.4
-0.1073	-0.042	-0.0263	-0.0053	53.1
-0.0998	-0.0323	-0.0158	-0.0015	53.2
-0.0908	-0.0218	-0.0023	0.0007	52.8
-0.0698	-0.0105	0.006	0.0052	52.6
-0.0413	-0.0008	0.0112	0.0067	52.6
-0.0143	0.003	0.018	0.0067	52.3
0.0097	0.006	0.0255	0.009	52.1
0.0337	0.0105	0.0292	0.0082	52
0.0562	0.0112	0.0307	0.0052	51.7
0.0757	0.012	0.0367	0.003	51.4
0.099	0.0157	0.042	0.0015	51.3
0.1252	0.0202	0.0472	0.0022	51.2
0.1387	0.0277	0.051	0.0022	50.8
0.144	0.033	0.0495	0.003	50.8
0.1387	0.0352	0.048	0.003	50.5
0.1245	0.0367	0.0427	0.0015	50.4
0.108	0.0337	0.0375	0.003	50.1
0.0952	0.0307	0.033	0.0052	50
0.09	0.0262	0.0262	0.006	49.5
0.093	0.0232	0.0232	0.0067	49.5
0.0937	0.0232	0.021	0.0082	49.3
0.0952	0.021	0.018	0.0067	49.1
0.0967	0.021	0.0127	0.0082	48.8
0.0952	0.0195	0.0082	0.009	48.6
0.099	0.0165	0.0052	0.0082	48.4
0.0952	0.0157	0.0015	0.009	48.1
0.0802	0.0105	-0.0015	0.009	48
0.0817	0.006	-0.0046	0.0067	47.7
0.1027	0.003	-0.0075	0.0052	47.5
0.1005	0.0007	-0.012	0.006	47.3
0.0997	0.0015	-0.0188	0.006	47.2
0.1005	0.0045	-0.0218	0.0052	47.1
0.0877	0.0052	-0.0256	0.0052	46.7
0.0735	0.003	-0.024	0.0067	46.6
0.0525	-0.0015	-0.0188	0.006	46.2
0.0427	-0.0046	-0.0135	0.0067	46.2
0.0292	-0.0053	-0.0113	0.0067	45.7
0.0195	-0.0068	-0.0091	0.0022	45.6
0.009	-0.0068	-0.006	-0.0008	45.5
-0.003	-0.0083	-0.0046	-0.003	45.3
-0.0143	-0.0075	-0.0008	-0.006	45.1
-0.0308	-0.0046	-0.0015	-0.0068	44.7
-0.039	-0.0015	-0.0008	-0.006	44.6
-0.0473	0	0.0007	-0.0053	44.4
-0.0548	-0.0015	0.0052	-0.0075	44.2
-0.057	0.0022	0.0097	-0.0083	44
-0.0533	0.006	0.0157	-0.0091	43.6
-0.054	0.0045	0.0195	-0.0075	43.6
-0.0555	0.0015	0.0202	-0.0053	43.2
-0.057	0.0015	0.021	-0.0038	43.4
-0.0578	0.0015	0.0202	-0.0015	42.7
-0.0563	0.003	0.0232	-0.0015	42.9
-0.0518	0.0037	0.024	-0.0038	42.3
-0.0465	0.0007	0.0232	-0.0091	42.3
-0.0458	0.0045	0.0232	-0.0143	42.1
-0.0465	0.0052	0.0217	-0.012	41.8
-0.048	0.0045	0.0202	-0.015	41.7
-0.0578	0.0045	0.0195	-0.0165	41.4
-0.0668	-0.0015	0.0195	0.024	41.3
-0.0615	0.003	0.0232	0.0712	40.8
-0.0615	0.0067	0.0255	0.0472	40.9
-0.063	0.0007	0.0277	0.0165	40.5
-0.06	-0.0053	0.03	0.0172	40.5
-0.0653	-0.0038	0.03	-0.0105	40.2
-0.0623	0.003	0.0307	-0.0203	40
-0.054	0.009	0.0277	-0.0248	39.7
-0.0518	0.0097	0.027	-0.0293	39.5
-0.0548	-0.003	0.0262	0.0045	39.5
-0.057	-0.0113	0.024	0.015	39
-0.0533	-0.0128	0.0202	0.0307	38.8
-0.0533	-0.03	0.0172	0.0577	38.6
-0.042	-0.0443	0.0142	0.0232	38.5
-0.0361	-0.0315	0.0112	-0.12	38.1
-0.0315	-0.015	0.0127	-0.2168	37.9
-0.0278	0.0007	0.0142	-0.108	37.9
-0.0346	0.0075	0.009	0.0375	37.5
-0.042	-0.0135	0	0.0997	37.5
-0.039	-0.0278	-0.0053	0.0967	37
-0.0308	-0.0256	-0.006	0.0697	37
-0.0323	-0.0038	-0.0091	0.066	36.6
-0.0293	0.0157	-0.0135	0.0877	36.5
-0.0225	0.0127	-0.0143	-0.0053	36.2
-0.0158	0.021	-0.0181	-0.1155	36
-0.0053	0.0217	-0.0218	-0.0195	35.9
0.0052	0.0352	-0.0285	0.0052	35.5
0.0217	0.0742	-0.0315	0.0052	35.3
0.0345	0.0727	-0.0256	-0.0158	35.1
0.042	0.0405	-0.0285	-0.1373	34.7
0.0465	0.0202	-0.0323	-0.1065	34.6
0.0465	0.0082	-0.0315	-0.1283	34.3
0.0502	0.0015	-0.0315	-0.198	34.2
0.051	-0.0135	-0.0346	-0.1365	33.9
0.0585	-0.0428	-0.0368	0.1087	33.8
0.0652	-0.0623	-0.0383	0.2325	33.5
0.069	-0.0668	-0.0443	0.1237	33.3
0.0712	-0.045	-0.0503	0.135	33
0.072	0.0067	-0.0563	0.0337	32.8
0.075	0.027	-0.063	-0.0788	32.6
0.075	0.0412	-0.0668	-0.0015	32.4
0.0742	0.0562	-0.0668	0.069	32.3
0.0705	0.063	-0.0638	0.0577	31.8
0.069	0.1057	-0.0563	-0.039	31.6
0.0637	0.087	-0.048	-0.0181	31.4
0.057	0.048	-0.0428	0.0517	31.3
0.0502	0.003	-0.0375	0.0652	31
0.0457	-0.0368	-0.033	0.0097	30.7
0.0427	-0.0256	-0.027	-0.0083	30.7
0.042	-0.0323	-0.021	0.0142	30.4
0.0382	-0.0113	-0.0181	-0.0263	30.2
0.03	-0.0046	-0.0128	0.0022	29.8
0.024	-0.0053	-0.0083	-0.0128	29.8
0.0172	0.0022	-0.0015	-0.0361	29.5
0.0097	-0.0053	0.006	-0.0691	29.5
0.0015	-0.0046	0.0142	-0.063	29.1
-0.0015	-0.0128	0.0165	-0.0038	29
-0.003	-0.012	0.0172	-0.0323	28.7
-0.0046	-0.0165	0.0217	-0.0173	28.6
-0.0046	-0.0188	0.0255	-0.0256	28.4
-0.0068	-0.0158	0.027	-0.0353	28.2
-0.0068	-0.0143	0.0277	-0.0248	27.9
-0.0023	-0.0083	0.0315	-0.0053	27.8
0.0037	-0.0091	0.0292	0.0765	27.4
0.0067	-0.0068	0.0292	0.0892	27.5
0.0142	-0.003	0.0285	0.0202	26.9
0.0217	0.0045	0.0315	-0.0256	27
0.0232	0.0022	0.0345	0.009	26.5
0.0225	-0.0008	0.0322	-0.0098	26.5
0.0172	-0.0008	0.0315	-0.0368	26.2
0.009	-0.0083	0.0277	0.0015	26.2
0.0045	-0.0158	0.024	0.0285	25.8
-0.0015	-0.0233	0.0225	0.0832	25.9
-0.0105	-0.0098	0.0195	0.099	25.5
-0.0195	0.0195	0.0187	0.0885	25.5
-0.033	0.024	0.018	0.0675	25
-0.042	0.0307	0.0165	-0.0248	24.9
-0.0405	0.0495	0.0172	-0.219	24.7
-0.03	0.0645	0.018	-0.3135	24.4
-0.0263	0.0472	0.0187	-0.114	24.2
-0.0353	0.003	0.018	-0.0233	24
-0.042	-0.0233	0.0187	-0.0315	23.8
-0.0398	-0.0233	0.0127	0.0195	23.7
-0.0353	-0.0068	0.0045	-0.0083	23.4
-0.0315	-0.0105	-0.003	0.0292	23.3
-0.0233	-0.0278	-0.0068	0.051	22.9
-0.0225	-0.0158	-0.0128	0.0307	22.7
-0.0278	-0.0083	-0.0165	0.0202	22.4
-0.0368	-0.033	-0.0143	0.0232	22.4
-0.0443	-0.0308	-0.0158	0.0502	22
-0.045	0.0007	-0.012	0.0592	22
-0.0495	0.039	-0.0068	0.1005	21.7
-0.0533	0.0592	-0.0015	0.0997	21.5
-0.054	0.024	0.0045	-0.0233	21.2
-0.0615	-0.0353	0.006	-0.135	21
-0.0698	-0.0495	0.0082	-0.1103	20.8
-0.0683	-0.0323	0.0022	-0.0675	20.5
-0.0623	-0.054	0.003	0.0367	20.4
-0.0555	-0.0525	0.009	0.1252	20.1
-0.0443	-0.042	0.0127	0.0382	19.9
-0.027	-0.0315	0.015	-0.0675	19.6
-0.0143	-0.0105	0.018	-0.0428	19.3
0	0.009	0.0202	0.0922	19.3
0.009	0.0285	0.018	0.0885	18.9
0.015	0.0225	0.018	0.0442	18.8
0.0202	0.018	0.0142	-0.0315	18.4
0.0127	0.0037	0.0037	-0.1028	18.4
0.0165	-0.0015	-0.003	-0.024	18.1
0.0202	-0.012	-0.0053	0.0345	18
0.0165	-0.0195	-0.0091	0.0675	17.8
0.0127	-0.0068	-0.0105	0.0495	17.6
0.0045	-0.0046	-0.0091	0.0772	17.5
0.003	0.0037	-0.0105	0.0592	17.1
0.0007	-0.0015	-0.0113	0.0037	17
-0.0075	-0.0053	-0.0128	0.0187	16.7
-0.0158	-0.0075	-0.0113	-0.0181	16.7
-0.012	-0.012	-0.0105	-0.0046	16.4
-0.003	-0.0091	-0.0143	-0.0165	16.2
0.003	-0.0091	-0.0165	-0.0428	16.2
0.0082	-0.0068	-0.0188	-0.0473	15.7
-0.0008	-0.0128	-0.0195	-0.0353	15.9
-0.0143	-0.0218	-0.0195	0.0165	15.3
-0.0195	-0.0143	-0.0181	0.021	15.6
-0.0218	0.0007	-0.0143	0.0082	15.1
-0.0225	0.0157	-0.0128	-0.0105	15
-0.0256	0.0277	-0.0083	-0.012	14.7
-0.0278	0.0172	-0.006	-0.021	14.6
-0.0278	-0.024	-0.0053	-0.0195	14.4
-0.0233	-0.0653	-0.0083	-0.0143	14
-0.0008	-0.0638	-0.012	-0.0233	14.3
0.0225	-0.033	-0.0135	-0.012	13.9
0.0352	0.0052	-0.0143	0.015	13.9
0.0442	0.0307	-0.0165	0.0705	13.5
0.0517	0.0277	-0.0195	0.0457	13.5
0.0532	0.0075	-0.0195	-0.012	13.3
0.0345	-0.0038	-0.0158	-0.0008	13.2
0.0082	0.0247	-0.0143	-0.0008	13
-0.0098	0.0585	-0.0128	0.012	12.8
-0.0203	0.0547	-0.0091	0.048	12.7
-0.0315	0.0165	-0.0053	0.096	12.6
-0.0443	-0.015	0	0.144	12.5
-0.0638	-0.003	0.006	0.045	12.4
-0.0795	0.015	0.0127	-0.1965	12.1
-0.0893	0.009	0.0187	-0.2168	12
-0.0938	0.0045	0.0217	0.0172	11.8
-0.09	0.0097	0.0232	0.0832	11.7
-0.0825	-0.0075	0.0202	0.1012	11.5
-0.0683	-0.0578	0.024	0.075	11.2
-0.0443	-0.0968	0.027	-0.1553	11
-0.0046	-0.093	0.027	-0.3158	10.7
0.0187	-0.0728	0.0277	-0.2558	10.7
0.0202	-0.0593	0.0082	-0.0278	10.5
0.0352	-0.0511	-0.0735	-0.006	10.4
0.0517	-0.0765	-0.207	-0.0091	10.1
0.0652	-0.0788	-0.2791	0.0352	10.2
0.0705	-0.027	-0.2393	-0.0068	9.9
0.0727	0.0105	-0.1275	0.0682	9.8
0.081	0.0165	0.0292	0.1147	9.8
0.087	-0.0008	0.1552	0.1102	9.6
0.09	0.003	0.177	-0.0046	9.6
0.093	0.0135	0.1515	-0.0615	9.1
0.096	0.0067	0.1402	0.003	9.5
0.1005	-0.0181	0.1192	0.0892	9
0.105	-0.0375	0.0997	0.1687	9.2
0.1087	-0.0428	0.0787	0.1042	9
0.1125	-0.0488	0.0727	0.093	8.9
0.1207	-0.0473	0.0862	0.0405	8.8
0.1237	-0.0256	0.0892	0.024	8.6
0.1177	-0.003	0.1005	0.1687	8.7
0.1027	-0.0188	0.1057	0.09	8.4
0.0922	-0.0361	0.1005	-0.1673	8.6
0.093	-0.0225	0.0915	-0.1613	8.2
0.093	0.0465	0.075	-0.0713	8.2
0.0915	0.1102	0.0525	-0.2866	8.1
0.087	0.12	0.0232	-0.3803	8.1
0.075	0.1297	-0.0008	-0.1185	8
0.0637	0.1372	-0.0188	0.2295	7.8
0.057	0.1245	-0.0405	0.2632	8
0.0532	0.0817	-0.0833	0.0577	7.6
0.0472	0.0645	-0.1305	-0.0706	7.8
0.0465	0.1072	-0.1523	-0.2085	7.6
0.0495	0.1492	-0.1478	-0.117	7.6
0.0495	0.1335	-0.1365	0.0292	7.6
0.0427	0.039	-0.1133	0.0547	7.7
0.0255	-0.0458	-0.0653	0.0517	7.6
0.0015	-0.0503	-0.0293	0.0015	7.4
-0.0233	-0.0278	-0.0015	0.0637	7.5
-0.0428	-0.0053	0.0142	0.108	7.4
-0.0593	0.0022	0.0142	0.0645	7.2
-0.0728	0.009	0.015	0.0187	7.2
-0.0803	0.0232	0.0195	0.0937	7.2
-0.0856	0.0345	0.0292	0.0547	7.2
-0.09	0.0525	0.0397	-0.0585	7.1
-0.0938	0.0352	0.045	-0.0165	7
-0.093	-0.0105	0.042	-0.063	6.9
-0.0833	-0.0533	0.042	-0.0668	7.1
-0.0743	-0.054	0.042	0.006	6.9
-0.0728	-0.0195	0.0367	0.1132	7
-0.0713	0.0142	0.0307	0.1897	6.8
-0.0653	0.0337	0.0217	0.087	7
-0.063	0.0465	0.0202	-0.0413	6.8
-0.0585	0.069	0.018	-0.0953	6.9
-0.0495	0.072	0.012	-0.0825	6.8
-0.0405	0.033	0.0015	-0.1245	6.7
-0.0278	-0.0443	-0.0128	-0.09	6.9
-0.0143	-0.1035	-0.0225	0.0817	6.8
-0.0038	-0.1396	-0.03	0.1762	6.8
0.003	-0.1335	-0.03	0.0825	6.9
0.0105	-0.0683	-0.03	-0.0293	6.7
0.015	-0.0105	-0.0488	-0.0383	6.8
0.0135	0.012	-0.0608	-0.1778	6.6
0.0082	0.0195	-0.0533	-0.1838	6.9
-0.0008	0.0217	-0.0353	-0.0256	6.7
-0.0046	0.0127	-0.0203	0.0067	7
-0.0075	0.009	-0.0225	0.0307	6.7
-0.0068	0.0105	-0.021	0.024	7
-0.0053	0.0472	-0.0181	0.0007	6.7
-0.003	0.0615	-0.021	0.009	6.9
-0.0068	0.0285	-0.0181	0.018	6.7
-0.0083	0.027	-0.0203	0.0082	6.9
-0.0105	0.0157	-0.0278	0.003	6.8
-0.015	-0.0091	-0.0323	0.0255	6.7
-0.0173	-0.0293	-0.0278	0.0472	6.7
-0.0218	-0.057	-0.0165	0.0855	6.7
-0.0256	-0.0773	-0.0046	0.1162	7
-0.03	-0.084	-0.003	0.129	6.7
-0.0308	-0.0735	-0.012	0.096	6.7
-0.0285	-0.0555	-0.0165	0.045	6.7
-0.0218	-0.0218	-0.0233	-0.0915	6.4
-0.0188	0.0225	-0.0233	-0.3225	6.5
-0.0128	0.051	-0.0158	-0.3345	6.4
-0.0068	0.0607	-0.0135	-0.2558	6.5
-0.0046	0.0637	-0.0091	-0.1238	6.3
-0.0091	0.0442	-0.012	0.1125	6.7
-0.0128	-0.0075	-0.0181	0.1252	6.4
0.0067	-0.0503	-0.021	0.0787	6.4
0.0307	-0.057	-0.027	0.0735	6.4
0.0345	-0.0533	-0.0368	0.0727	6.2
0.0202	-0.0465	-0.045	0.063	6.1
0.006	-0.0458	-0.0533	0.0367	5.8
-0.0038	-0.057	-0.0668	0.009	5.8
-0.0165	-0.0375	-0.0788	-0.0533	5.5
-0.0285	0.0052	-0.084	-0.0413	5.5
-0.0383	0.0142	-0.0878	-0.0938	5.2
-0.0495	0.0142	-0.093	-0.1118	5.1
-0.0653	0.0097	-0.0983	0.0052	4.8
-0.0788	-0.003	-0.0938	0.0142	4.6
-0.0863	0.0082	-0.0825	0.0112	4.5
-0.0833	0.0195	-0.057	0.0607	4.1
-0.0788	0.0225	-0.0248	0.1267	4.2
-0.0706	0.0097	0.0067	0.1222	3.9
-0.0555	-0.0361	0.0315	0.0127	3.8
-0.0405	-0.0645	0.0502	0.0285	3.6
-0.0256	-0.0346	0.06	0.0787	3.4
-0.0091	0.0007	0.0562	0.0082	3.4
0.003	0.0022	0.0427	-0.0518	3.2
0.0082	-0.0143	0.027	-0.0091	3.2
0.0165	-0.012	0.0105	0.0195	3
0.0345	0.0082	0.0045	-0.0203	2.9
0.0442	0.009	0.0142	-0.0398	2.8
0.036	0.0127	0.0375	-0.0428	2.8
0.0307	0.0157	0.0705	-0.0338	2.8
0.0352	0.024	0.1102	-0.0495	2.6
0.042	0.0375	0.147	-0.0975	2.7
0.0517	0.033	0.1762	-0.0165	2.5
0.0555	0.0217	0.186	0.165	2.7
0.0607	0.006	0.1785	0.111	2.3
0.0682	-0.0015	0.171	0.009	2.5
0.0712	0.0037	0.1672	0.048	2.4
0.0705	0.0172	0.162	0.042	2.4
0.0652	0.0202	0.1597	0.0285	2.4
0.0487	0.0127	0.165	0.0022	2.1
0.0345	0	0.1665	0.0007	2.3
0.03	-0.0173	0.1582	-0.012	2.2
0.0232	-0.0233	0.1402	-0.0233	2.2
0.0195	-0.0256	0.12	-0.0008	2.2
0.0225	-0.0315	0.102	-0.0563	2.2
0.0262	-0.0353	0.0817	-0.0691	2.1
0.0232	-0.0368	0.0615	0.027	2
0.0232	-0.0195	0.0427	0.063	2.2
0.0202	0.0052	0.0277	-0.0158	2.1
0.0007	0.024	0.0112	-0.0668	2.2
-0.0098	0.0202	0.0045	0.0067	2.1
-0.0008	-0.0188	0.0097	0.0195	2.3
0.0097	-0.0143	0.0202	-0.0915	2.3
-0.0015	0.0292	0.0202	-0.0256	2.4
-0.003	0.0352	0.009	0.0547	2.4
0.018	0.0165	-0.0158	0.093	2.4
0.0052	-0.0053	-0.048	0.0067	2.6
-0.0315	-0.0038	-0.075	-0.1635	2.4
-0.0256	0.0157	-0.0975	0.0667	2.9
-0.0233	0.0585	-0.108	0.144	2.6
-0.0398	0.1012	-0.1006	0.0697	2.8
-0.048	0.1005	-0.0743	-0.0165	2.6
-0.081	0.057	-0.033	-0.192	2.9
-0.1073	-0.0495	0.0052	0.0157	3.1
-0.1283	-0.1515	0.0315	0.0757	3.1
-0.1426	-0.1426	0.0517	-0.0203	3.2
-0.135	-0.0683	0.06	-0.1155	3.1
-0.1426	-0.0015	0.0592	-0.2093	3.5
-0.1478	0.0232	0.0495	-0.0818	3.6
-0.1455	0.0195	0.0307	-0.0128	3.7
-0.1328	0.024	0.0165	0.027	3.7
-0.1133	0.024	0.0007	0.0195	3.6
-0.0983	0.027	-0.0188	0.0105	4
-0.0848	0.0165	-0.0361	-0.0105	3.8
-0.1088	0.0052	-0.0518	-0.06	4
-0.1545	0.0067	-0.0638	0.0225	4
-0.1575	0.0052	-0.078	0.0405	4.2
-0.1268	0.0082	-0.0863	0.0307	4.1
-0.0833	0.0052	-0.0908	0.0457	4.1
-0.0458	0.0037	-0.0915	0.0277	4.4
-0.0383	0.0037	-0.093	0.0322	4
-0.0346	0.003	-0.093	0.0195	4.1
-0.003	0	-0.0923	0.0142	4
0.045	-0.0015	-0.0908	0.012	4.1
0.0637	-0.0008	-0.0893	0.012	3.8
0.081	-0.0015	-0.0893	0.0165	3.9
0.117	-0.003	-0.0878	0.0307	3.8
0.135	-0.006	-0.0848	0.0787	3.6
0.1462	-0.0068	-0.0833	0.0847	3.8
0.159	-0.003	-0.0825	0.0465	3.5
0.174	-0.0023	-0.0848	0.0555	3.5
0.1972	-0.003	-0.0848	0.0742	3.3
0.2182	-0.0008	-0.0825	0.048	3.4
0.2355	0.003	-0.0788	0.003	3.1
0.2407	0.0067	-0.0743	-0.054	3.2
0.2422	0.0022	-0.0691	-0.1028	3.1
0.27	-0.0015	-0.057	-0.1613	3
0.291	-0.0015	-0.0458	-0.0878	3.1
0.2902	-0.006	-0.0361	-0.0091	2.8
0.3015	-0.0046	-0.021	-0.0405	3
0.3165	-0.0046	-0.0105	0.0007	2.9
0.3195	-0.0053	-0.0008	-0.033	2.8
0.3022	-0.003	0.0105	-0.0361	2.9
0.2895	-0.0046	0.0202	0.0007	2.6
0.2745	-0.0038	0.0322	0.0157	3
0.243	-0.0046	0.0412	0.0562	2.6
0.195	-0.0128	0.045	0.0397	2.8
0.1192	-0.0218	0.048	0.0225	2.6
0.048	-0.0181	0.0517	-0.0548	2.6
0.0307	-0.015	0.0465	-0.1313	2.4
0.0607	-0.0158	0.0367	-0.1043	2.6
0.0787	-0.006	0.0285	0.054	2.6
0.0712	0.0142	0.0202	0.216	2.6
0.0442	0.0292	0.0127	0.1125	2.4
0.0285	0.0157	0.0045	-0.0413	2.4
0.0232	-0.0023	-0.0053	0.0652	2.4
-0.0015	-0.0098	-0.0143	0.0952	2.4
-0.0383	-0.0015	-0.0173	-0.057	2.2
-0.0743	0.0075	-0.0195	-0.0315	2.2
-0.1043	0.0052	-0.0256	0.0255	2.3
-0.1411	0.009	-0.0225	0.003	2.3
-0.168	0.009	-0.0143	0.0067	2.1
-0.186	0.0082	-0.0075	0.0562	2.3
-0.192	-0.0046	0.0082	0.0367	2.2
-0.1808	-0.0091	0.0202	-0.1411	2.3
-0.1696	-0.0015	0.0255	-0.1815	2.2
-0.159	-0.006	0.0307	-0.0346	2.2
-0.1298	-0.0068	0.0315	0.0195	2.1
-0.0968	-0.0046	0.033	-0.0053	2.1
-0.0915	-0.0015	0.0307	0.0097	2.3
-0.1013	-0.003	0.0202	-0.021	2.1
-0.1238	-0.0053	0.0127	-0.0173	2.1
-0.1403	-0.0053	0.003	0.0105	2.1
-0.1433	-0.0046	-0.0075	-0.0165	1.9
-0.1553	-0.003	-0.0181	0.0142	1.9
-0.156	-0.0075	-0.024	0.0075	1.8
-0.168	-0.0113	-0.027	-0.0083	2.1
-0.1815	-0.0091	-0.033	0.0052	1.8
-0.1748	-0.0053	-0.0428	-0.0233	2.1
-0.1711	0.003	-0.054	0.0232	1.9
-0.1628	0.0097	-0.0615	0.0367	1.9
-0.1613	0.006	-0.0728	-0.075	1.7
-0.1388	0.0007	-0.0878	-0.0638	1.8
-0.0436	-0.0015	-0.1021	0.0832	1.8
0.1125	-0.006	-0.1125	0.0975	1.9
0.3112	-0.0015	-0.1185	0.015	1.9
0.423	0.0037	-0.117	-0.0308	1.6
0.3555	0.0052	-0.1118	-0.075	1.8
0.201	0.0045	-0.1058	-0.081	1.8
0.0427	-0.003	-0.096	0.021	1.8
-0.0878	-0.0083	-0.0803	0.0352	1.7
-0.1665	0.003	-0.0675	-0.042	1.6
-0.1973	0.0112	-0.0563	0.0202	1.8
-0.1958	0	-0.048	0.0637	1.7
-0.1845	-0.0075	-0.045	-0.0195	1.8
-0.1665	-0.012	-0.0375	-0.033	1.6
-0.1485	-0.0165	-0.0338	-0.0046	1.8
-0.1373	-0.0158	-0.0323	-0.1381	1.3
-0.1328	-0.003	-0.0203	-0.207	1.8
-0.132	0.0045	0.0052	-0.0578	1.5
-0.1275	-0.003	0.0405	0.0607	1.8
-0.129	-0.0091	0.0765	0.0765	1.6
-0.1193	-0.0113	0.1087	0.06	1.5
-0.0833	-0.0143	0.1402	0.0495	1.7
-0.057	-0.0098	0.1635	0.0352	1.6
-0.0383	-0.0083	0.1777	0.0015	1.6
-0.0218	-0.0046	0.1897	0.0075	1.5
-0.0098	0.0067	0.1987	0.0405	1.5
0.0142	0.009	0.2085	0.1155	1.7
0.027	0.0082	0.2242	0.1965	1.6
0.0277	0.0067	0.2467	0.144	1.8
0.0405	0.0045	0.2722	0.006	1.5
0.054	0.006	0.294	-0.0015	1.6
0.048	0.0097	0.312	0.021	1.5
0.042	0.0097	0.3165	-0.042	1.5
0.0525	-0.0015	0.3142	-0.0083	1.5
0.0532	-0.012	0.3037	-0.027	1.6
0.0705	-0.015	0.2895	-0.0953	1.5
0.0937	-0.0143	0.27	-0.027	1.6
0.1042	-0.0098	0.2467	-0.0608	1.6
0.1305	0.0067	0.2242	-0.183	1.5
0.1522	0.0262	0.1927	-0.1065	1.7
0.1762	0.0277	0.1537	-0.012	1.6
0.195	0.024	0.117	0.0217	1.6
0.2062	0.015	0.081	0.0607	1.7
0.2062	0.0082	0.0435	-0.0046	1.7
0.189	0.0067	0.0067	0.0315	1.8
0.171	-0.0008	-0.0203	0.093	1.7
0.1522	-0.0015	-0.0428	0.0442	1.8
0.1432	-0.003	-0.066	0.069	1.6
0.1192	-0.0083	-0.0893	0.0892	1.9
0.0967	-0.0105	-0.1103	0.066	1.6
0.0727	-0.0091	-0.1253	0.012	1.8
0.042	-0.0068	-0.1388	-0.0615	1.6
0.012	0.0022	-0.1493	-0.0863	1.8
-0.0165	0.0112	-0.156	-0.048	1.7
-0.0181	0.0097	-0.159	-0.0638	1.6
-0.0195	0.006	-0.156	-0.0893	1.8
-0.039	0.0015	-0.1568	0.0382	1.8
-0.054	0.0007	-0.159	0.0967	1.7
-0.0518	-0.0046	-0.1605	0.063	1.9
-0.0383	-0.012	-0.159	-0.0278	1.6
-0.0158	-0.0038	-0.1575	-0.1733	1.8
0.0052	-0.0046	-0.1485	-0.186	1.8
0.0097	-0.012	-0.1343	-0.0743	1.8
0.0105	0.0097	-0.1275	0.0165	1.8
0.0082	0.0345	-0.117	-0.0443	1.9
-0.0023	0.0277	-0.1118	-0.0555	1.7
-0.033	0.009	-0.1125	-0.0735	2
-0.0803	0.0007	-0.1125	-0.1778	1.6
-0.117	-0.0046	-0.1133	-0.0375	1.9
-0.1065	-0.0075	-0.1118	0.0892	1.8
-0.0938	-0.0068	-0.108	0.1612	1.9
-0.1275	-0.0128	-0.0983	0.2955	1.8
-0.1485	-0.0165	-0.0848	0.231	1.8
-0.1388	-0.0091	-0.0743	0.0945	1.9
-0.1148	-0.0068	-0.0668	0.0277	1.7
-0.0998	-0.0075	-0.0645	0.0157	1.8
-0.0915	-0.0083	-0.0691	0.0232	1.6
-0.0825	-0.0105	-0.0698	0.0097	1.8
-0.0795	-0.0098	-0.0683	-0.0083	1.6
-0.0675	-0.0053	-0.0653	0.0105	1.8
-0.0555	-0.0023	-0.0623	0.036	1.8
-0.0233	0	-0.0608	-0.0143	1.6
0.0165	0.006	-0.0593	-0.0706	1.8
0.0435	0.0075	-0.057	-0.0053	1.8
0.0705	0.0015	-0.0533	0.0765	1.7
0.0892	0.0075	-0.0511	-0.0068	1.5
0.087	0.0067	-0.0488	-0.1688	1.6
0.0637	0.0007	-0.0465	-0.1155	1.8
0.0255	0.0022	-0.0473	-0.0105	1.8
0.0052	0.0007	-0.0503	-0.06	1.8
0.009	0.0045	-0.054	-0.027	1.8
0.0202	0.0037	-0.0518	-0.0015	1.8
0.0217	0.0007	-0.0533	-0.0105	1.8
0.0202	-0.003	-0.0495	0.0105	1.9
0.024	-0.0091	-0.0443	0.042	1.8
0.0262	-0.0083	-0.0413	0.06	1.8
0.0277	0.0007	-0.0375	-0.0165	1.8
0.0255	0.0082	-0.0315	-0.0046	2
0.024	0.0015	-0.0256	-0.0068	1.9
0.0285	-0.0053	-0.0195	-0.0915	1.8
0.0262	-0.0053	-0.0181	-0.081	2
0.0105	0.0007	-0.0135	-0.1403	1.7
-0.003	0.0045	-0.0105	-0.1118	2
-0.0105	-0.0008	-0.0105	0.009	2
-0.0105	-0.0008	-0.0083	0.0165	1.9
-0.0135	0	-0.0053	0.0375	2.2
-0.0143	-0.003	-0.0015	0.0067	2
-0.0195	-0.0046	0.0052	0.0322	2.3
-0.039	-0.0015	0.009	0.0637	2
-0.0473	0	0.0112	0.0277	2.2
-0.063	0.0022	0.0165	0.003	2.1
-0.0885	0.0045	0.0247	-0.0428	2.1
-0.093	0.0075	0.0285	0.0082	2.1
-0.0638	0.012	0.03	0.0232	2.1
-0.0263	0.0067	0.0337	0.0082	2
-0.0181	-0.0008	0.0405	0.0217	2.1
-0.0225	-0.003	0.0457	0.0735	2.1
-0.0181	-0.006	0.054	0.1927	2.1
-0.003	-0.0113	0.063	0.1747	2.2
0.0142	-0.0046	0.0727	0.0592	2.1
0.0367	0.0075	0.0802	0.0067	2.2
0.054	0.0135	0.0802	-0.0143	2.2
0.0502	0.0097	0.0802	-0.0975	2.2
0.0457	0.0015	0.0787	-0.12	2.1
0.0367	-0.0008	0.0772	-0.0091	2
0.0292	-0.0038	0.0742	0.048	2.3
0.0292	-0.0075	0.0675	0.0292	2.1
0.0217	-0.0075	0.063	-0.0436	2.2
0.0022	0.0007	0.057	-0.042	2.1
-0.0128	0.0007	0.0547	0.033	2.3
-0.0173	-0.003	0.0495	-0.0128	2.1
-0.015	-0.0023	0.0442	-0.006	2.3
0.0007	-0.0023	0.042	0.027	2.1
0.0187	0.0022	0.0397	-0.0053	2.2
0.0315	0.0105	0.0405	-0.0068	2.3
0.039	0.0142	0.039	-0.0046	2.2
0.0345	0.0075	0.0345	0.0465	2.2
0.0037	-0.0008	0.0345	0.1027	2.2
-0.0488	-0.0038	0.0345	0.1582	2.5
-0.0915	-0.012	0.0337	0.201	2.2
-0.093	-0.0181	0.0345	0.09	2.3
-0.0638	-0.0075	0.0345	-0.0713	2.3
-0.024	0.0127	0.0322	-0.1403	2.3
0.015	0.0217	0.033	-0.1688	2.2
0.0345	0.0127	0.033	-0.0878	2.3
0.0442	-0.0023	0.0375	-0.0923	2.4
0.0405	-0.0008	0.0405	-0.1088	2.2
0.0292	-0.003	0.0352	0.0705	2.4
0.0157	-0.0128	0.0307	0.0442	2.4
-0.0038	-0.0113	0.0255	0.0105	2.4
-0.0165	-0.0091	0.021	0.0382	2.2
-0.0308	-0.0075	0.0165	0.0165	2.4
-0.0368	-0.0068	0.0135	0.0532	2.4
-0.0278	-0.0053	0.009	0.03	2.4
-0.0203	-0.0083	0.0052	0.0427	2.4
-0.0165	-0.0173	0.0015	0.0367	2.3
-0.0083	-0.0195	-0.003	0.0187	2.3
0.0045	-0.0181	-0.0091	0.0292	2.3
0.015	-0.0135	-0.0173	0.0255	2.4
0.0292	-0.0068	-0.0203	0.0052	2.4
0.036	0.0045	-0.0248	-0.0233	2.2
0.0277	0.006	-0.0315	0.0277	2.5
0.0135	-0.0023	-0.0353	0.081	2.2
0.003	-0.0068	-0.039	0.0727	2.5
0.0045	-0.0068	-0.042	0.0772	2.2
0.0157	-0.0158	-0.0443	0.0345	2.4
0.0285	-0.0225	-0.045	-0.054	2.3
0.0405	-0.0188	-0.0443	0.0127	2.4
0.0502	-0.021	-0.0458	-0.0113	2.2
0.0547	-0.0165	-0.048	-0.15	2.3
0.054	-0.0068	-0.0473	-0.1238	2.4
0.0442	0.003	-0.0458	-0.0878	2.3
0.0345	0.0015	-0.0436	0.0187	2.5
0.033	-0.0053	-0.0413	-0.0083	2.3
0.0345	-0.0038	-0.0361	-0.1478	2.4
0.0285	-0.0105	-0.0315	-0.075	2.4
0.0142	-0.0143	-0.0315	-0.0511	2.4
-0.0008	-0.0075	-0.0278	-0.1073	2.4
-0.0091	-0.0068	-0.0225	-0.0938	2.5
-0.0128	-0.0083	-0.0181	-0.0383	2.5
-0.0225	-0.0091	-0.0105	-0.0075	2.3
-0.0285	-0.0158	-0.006	-0.0015	2.6
-0.024	-0.0203	-0.003	0.0082	2.6
-0.0165	-0.027	0.0015	-0.0008	2.5
-0.0098	-0.027	0.0052	0.003	2.5
-0.0008	-0.0195	0.0082	-0.0068	2.4
0.009	-0.0091	0.0105	0.006	2.6
0.018	0.0082	0.0142	0.0375	2.5
0.0277	0.021	0.015	0.039	2.7
0.0367	0.0285	0.015	0.0307	2.6
0.0405	0.0337	0.0142	0.024	2.7
0.0367	0.0367	0.0165	-0.0458	2.5
0.027	0.0307	0.018	-0.1815	2.6
0.0165	0.018	0.0217	-0.0803	2.7
0.0067	0.0097	0.0225	0.132	2.6
-0.003	0.0082	0.0255	0.0862	2.6
-0.015	0.0105	0.033	0.0187	2.6
-0.0315	0.0135	0.0352	0.0082	2.6
-0.0465	0.0142	0.0375	0.0157	2.6
-0.0638	0.0157	0.0345	0.0352	2.6
-0.0803	0.0195	0.0307	0.0382	2.7
-0.0825	0.027	0.0292	0.057	2.6
-0.0668	0.0322	0.0277	-0.006	2.6
-0.0383	0.0232	0.024	0.0465	2.5
-0.0091	0.015	0.0247	0.0712	2.6
0.018	0.0157	0.027	-0.0683	2.4
0.0352	0.018	0.0285	-0.1388	2.6
0.0465	0.0142	0.0307	-0.1478	2.4
0.054	0.0007	0.0315	-0.0713	2.6
0.0547	-0.0015	0.0345	-0.0315	2.4
0.0585	0.0015	0.0345	0.0135	2.6
0.0607	0.0015	0.0307	0.0877	2.4
0.0592	0.0045	0.0247	-0.0068	2.3
0.0487	0.0105	0.0202	-0.09	2.4
0.033	0.009	0.0187	-0.099	2.4
0.0142	0.0015	0.0157	-0.1185	2.3
-0.0015	0.0045	0.0127	-0.0706	2.3
-0.0165	0.003	0.012	-0.0413	2.4
-0.0278	0	0.0105	-0.0428	2.4
-0.0353	0.0052	0.0082	-0.0091	2.4
-0.0353	0.0067	0.0075	0.0127	2.6
-0.033	-0.0008	0.006	0.0142	2.3
-0.0293	-0.003	0.0067	-0.0833	2.5
-0.0278	-0.0143	0.0112	-0.1021	2.1
-0.0293	-0.0293	0.0075	0.0225	2.5
-0.0315	-0.0233	0.0037	0.042	2.2
-0.033	-0.0128	0.003	0.069	2.4
-0.03	-0.0068	-0.0008	0.0675	2.2
-0.0256	-0.003	-0.0053	0.0037	2.1
-0.024	0.0052	-0.0075	-0.0503	2.2
-0.021	0.0075	-0.0098	-0.0856	2.3
-0.0173	0.0007	-0.0128	0.024	2.2
-0.0143	-0.0008	-0.012	0.1687	2.2
