File Name: 10Amar.log
Channel 1: 'Recto femoral', 22896 values, engineering units: mV, no filters.
Channel 2: 'Biceps Femoral', 22896 values, engineering units: mV, no filters.
Channel 3: 'Vasto Medial', 22896 values, engineering units: mV, no filters.
Channel 4: 'Semitendinoso', 22896 values, engineering units: mV, no filters.
Channel 5: 'Flexo', 22896 values, engineering units: deg, no filters.
Digitals combined (event=16, d=8, c=4, b=2, a=1): 22896 values, .

-0.0046	-0.0023	0	0.0007	11.5	31
-0.0105	-0.0068	-0.0046	0.003	10.3	31
-0.0083	-0.0046	-0.0046	0.0022	10.5	31
-0.0068	-0.0053	-0.0046	0	10.4	31
-0.003	-0.0015	-0.003	-0.003	9.9	31
0.0015	-0.0008	-0.0038	-0.0046	10.2	31
-0.0015	-0.0008	-0.0053	-0.0083	10	31
-0.0046	-0.0015	-0.0053	-0.0053	9.6	31
-0.0046	-0.0053	-0.0038	0.003	9.6	31
-0.0023	-0.0046	-0.003	0.0112	9.7	31
-0.0015	-0.0008	-0.0015	0.0157	9.3	31
-0.0038	0	-0.0008	-0.003	9.6	31
-0.003	0.0007	-0.0008	-0.0143	9.3	31
-0.0015	0.0045	-0.0008	-0.003	9.4	31
0.0015	0.0045	0	0.012	9.1	31
0.003	0.0052	0.0007	0.027	8.9	31
0.0045	-0.0008	0.0015	0.0105	8.7	31
0.0067	-0.0098	0.0015	0.0022	9.2	31
0.003	-0.0083	0	0.0082	8.7	31
0	-0.0046	-0.0008	0.0142	8.8	31
-0.0023	-0.0038	0	0.0165	8.9	31
-0.0023	-0.003	0.0015	0.0045	8.5	31
0.0015	-0.0023	0.0007	0.0007	8.8	31
0.003	-0.0008	-0.0015	-0.0015	8.4	31
0.006	0.0037	-0.0015	0.0015	8.4	31
0.003	0.0082	-0.003	-0.0015	8.3	31
-0.0008	0.0112	-0.0015	-0.003	8.2	31
0.0007	0.012	-0.0023	-0.0023	8.3	31
0.0015	0.0105	-0.0023	-0.003	8	31
0.0045	0.006	-0.0008	-0.0008	7.8	31
0.0045	0.0052	-0.0015	-0.0038	7.8	31
0.0052	0.003	0	-0.003	7.8	31
0.0045	-0.0105	0.0015	-0.0023	7.4	31
0.0052	-0.0165	0.0015	0	7.7	31
0.0105	0	-0.0008	0.0007	7.3	31
0.0097	0.0052	-0.0023	-0.0015	7.3	31
0.0007	0.003	-0.0008	-0.0015	7.4	31
-0.006	0.0052	0.0007	-0.003	7	31
-0.0053	-0.0023	0.0015	-0.003	7.3	31
-0.003	-0.0038	0.003	0.0015	6.8	31
-0.0015	-0.003	0.0015	0.0015	7.1	31
0	-0.006	-0.0008	-0.0091	6.7	31
0.0007	-0.0023	-0.0008	-0.024	6.8	31
0.0015	-0.0008	-0.0008	-0.0353	6.6	31
0.0037	0.0007	-0.0015	-0.0248	6.7	31
0.0022	0.0007	-0.0068	-0.0068	6.5	31
0.0007	0	-0.0091	0.0157	6.6	31
0.0015	0	-0.006	0.0315	6.4	31
0	-0.0015	-0.0008	0.0345	6.2	31
0.0007	-0.003	0.006	0.0465	6.4	31
0.0007	-0.0046	0.009	0.0277	6.1	31
0.0015	-0.0046	0.0075	0.0105	6.3	31
0.0007	-0.0023	0.0022	0.0082	6.1	31
-0.003	-0.0008	0.0022	0.0007	6.2	31
-0.003	-0.0023	0.003	0.0067	6	31
-0.003	-0.0046	0.003	0.0015	5.8	31
-0.003	-0.0015	0.003	0.003	6.2	31
-0.0023	-0.0015	0.0007	-0.0015	5.8	31
-0.0008	-0.0015	0.003	-0.003	6.1	31
-0.0008	0.0007	0.0045	-0.0023	5.7	31
0.0015	-0.0008	0.0045	-0.0038	6	31
0.0015	-0.0015	0.006	-0.0023	5.9	31
0.0007	-0.0015	0.0045	-0.003	5.8	31
0.0015	-0.0015	0.0037	-0.003	5.8	31
0.0007	-0.0008	0.0015	-0.0046	5.6	31
0.0022	-0.003	0.0007	-0.003	5.9	31
0.0007	-0.003	0.0015	-0.0046	5.6	31
-0.0008	0	0.0007	-0.003	5.9	31
0.0015	0.0007	-0.0008	-0.003	5.5	31
-0.0008	0.003	-0.0008	-0.003	6.1	31
0.0007	0.0045	0	-0.0008	5.7	31
-0.0015	0.0052	0.003	-0.0008	5.9	31
-0.0046	0.0067	0.0045	0.0015	5.8	31
-0.0038	0.0052	0.0022	0.0022	5.7	31
-0.0038	0.0045	0.0007	0.0045	5.9	31
-0.0008	0.0045	0.0007	0.0052	5.5	31
-0.0015	0.0052	0.0022	0.0052	5.6	31
-0.0015	0.0052	0.003	0.003	5.8	31
-0.0015	0.0045	0.0007	-0.0015	5.8	31
-0.003	0.0067	-0.0015	-0.0091	5.5	31
-0.0023	0.0075	-0.0008	-0.0135	5.8	31
-0.0008	0.0082	-0.0015	-0.0075	5.5	31
0.0015	0.0082	-0.0015	-0.0038	5.5	31
0.003	0.0067	-0.0008	0.0082	5.6	31
0.0037	0.0067	0.0015	0.0255	5.4	31
0.003	0.0067	0.0022	0.012	5.7	31
0.0015	0.0015	0.0007	0.0052	5.3	31
0.0015	-0.0015	-0.003	-0.0015	5.8	31
0.0007	-0.0015	-0.006	-0.012	5.2	31
-0.0015	-0.0053	-0.0046	0.0045	5.6	31
-0.0015	-0.0068	-0.003	0.0075	5.5	31
-0.0023	-0.0053	-0.0053	0.0322	5.5	31
-0.0015	-0.0023	-0.0053	0.0195	5.4	31
-0.0008	-0.003	-0.0038	-0.0218	5.5	31
-0.003	-0.003	-0.0023	0.0007	5.4	31
-0.0023	-0.003	0.0007	0.0045	5.5	31
-0.003	-0.0046	0.003	-0.0008	5.4	31
-0.0023	-0.0015	0.0015	0.0067	5.4	31
-0.0023	0.003	0.0015	0.0067	5.6	31
-0.0046	0.0045	0.0007	0.0007	5.3	31
-0.003	0.0045	0	-0.0038	5.6	31
-0.0008	0.009	0.0015	0	5.3	31
-0.0015	0.012	0.0015	-0.003	5.4	31
0.0007	0.0135	0.003	0	5.6	31
0.0022	0.0112	0.0022	-0.0015	5.5	31
0.003	0.0082	0.003	-0.0008	5.5	31
0.003	0.0082	0.0007	0	5.2	31
0	0.0015	-0.003	-0.0015	5.6	31
-0.0015	-0.003	-0.003	0.0015	5.4	31
-0.0015	-0.0046	-0.0068	0.0007	5.5	31
-0.0008	-0.006	-0.0083	0.0037	5.4	31
-0.0008	-0.0068	-0.0083	0.0015	5.6	31
-0.0015	-0.0068	-0.0046	0.0007	5.3	31
-0.0023	-0.0083	-0.0023	0.0015	5.7	31
-0.003	-0.0091	-0.0015	0.0007	5.2	31
-0.003	-0.0128	-0.0008	0.0007	5.4	31
-0.0038	-0.0128	-0.0008	0.0015	5.5	31
-0.0038	-0.0113	-0.0008	0.0015	5.2	31
-0.003	-0.0128	0	-0.0008	5.3	31
-0.0008	-0.0128	0.0007	-0.0008	5.2	31
0	-0.0128	-0.0008	-0.0008	5.3	31
0.0007	-0.0098	-0.0023	0.0007	5.3	31
-0.0008	-0.0083	-0.0008	0.0015	5.3	31
-0.0015	-0.0083	-0.0008	0.0007	5.5	31
-0.0015	-0.0083	-0.0008	0	5.2	31
-0.003	-0.0068	0.0007	0.0007	5.2	31
-0.0038	-0.0046	-0.0008	0.0015	5	31
-0.0038	-0.0068	0.0015	-0.0008	5	31
-0.0053	-0.0053	0.0022	-0.0015	5	31
-0.0046	-0.0038	0.0015	-0.0015	5.4	31
-0.003	-0.003	0.0022	-0.0015	4.9	31
-0.0038	0	0.0007	0.0007	5.2	31
-0.0023	0.0015	0.0007	0.0015	4.8	31
-0.0008	0.0022	0.003	0.003	5.2	31
-0.0008	0.0015	0.0022	0.003	4.9	31
-0.0008	-0.0008	0.0007	0.0037	4.8	31
-0.0015	-0.0046	0.0015	0.0037	5	31
-0.0015	-0.003	0.0015	0.0045	4.7	31
-0.0008	0.0015	0.0015	0.0045	4.9	31
0.0007	0.0045	0.0015	0.0052	4.8	31
0.0045	0.003	0.0007	0.0015	4.8	31
0.0052	0.0022	0.0015	0.0022	4.9	31
0.0015	0	-0.0015	0.0045	4.7	31
0.0007	-0.0015	-0.0015	0.0037	4.5	31
-0.0008	-0.0046	-0.0015	0.0052	4.7	31
0.0015	-0.0053	-0.0008	0.0052	4.5	31
0.003	-0.003	-0.0015	0.0045	4.7	31
0.003	-0.003	-0.0015	0.0022	4.6	31
0.003	-0.0015	0.0022	0.0015	4.3	31
0.0022	-0.003	0.0015	0.0037	4.6	31
0.0022	-0.0008	0.0015	0.0037	4.1	31
0.0022	0.0015	0.003	0.003	4.7	31
0.0007	0.0045	0.003	0.0015	4.4	31
-0.0008	0.003	0.0022	0.003	4.5	31
-0.0008	0.003	0.0015	0.0022	4.5	31
0.0015	0.0045	0.0007	0.0007	4.3	31
0.0015	0.003	0.0007	-0.0008	4.5	31
0.0007	0.0015	0	-0.0015	4.4	31
-0.0015	0.003	0.0007	-0.0015	4.5	31
-0.003	0.003	0.0007	-0.0008	4.2	31
-0.003	0.003	-0.0008	-0.0008	4.5	31
-0.0046	0.0037	0	0.0015	4	31
-0.0008	0.0015	-0.0015	0.0037	4.5	31
0.003	-0.003	-0.003	0.0037	4.1	31
0.003	-0.003	-0.003	0.003	4.5	31
0.0022	-0.0015	-0.0023	0.003	4.4	31
0.0007	-0.0015	-0.0008	0.0037	4.2	31
-0.0015	-0.0008	0.0007	0.003	4.3	31
0.0007	-0.0008	0.0015	0.0015	4.1	31
0	0	0.0015	0.0007	4.4	31
0.0007	0.0007	0.0022	0.0007	3.9	31
0.0015	0.0007	0.003	0.0037	4.4	31
0.0015	-0.0015	0.003	0.0052	4.1	31
0.0022	-0.0008	0.003	0.0022	4.1	31
0.0007	0.0007	0.0007	0.0015	4	31
0.0015	0.0007	0.0007	0.0045	4.1	31
0.0015	0.0015	-0.0008	0.0037	4	31
-0.0008	0	0.0007	0.003	4.1	31
0.0015	0.0007	0	0.003	4	31
0.0045	0	-0.0015	0.0007	4	31
0.0067	0.0007	-0.0015	0.0007	4.2	31
0.006	0.0007	-0.0008	0.0007	3.9	31
0.0022	0	0.0007	0.0007	4.2	31
0.0007	0.0015	0	0.0015	3.8	31
-0.0015	0.0007	-0.0008	0.0007	4.2	31
-0.0008	0	-0.0008	0.0015	4	31
-0.0015	0.003	-0.0015	0.0015	4.1	31
-0.0046	0.0052	-0.0008	0.0007	4.1	31
-0.0046	0.0045	-0.0008	-0.0008	4	31
-0.0046	0.0015	-0.0023	-0.0008	3.9	31
-0.0008	-0.0008	-0.0015	0.0007	4	31
0.0015	-0.0015	-0.0008	0.0007	4.1	31
0.0045	-0.003	-0.0008	0	3.9	31
0.0082	-0.0023	0.0015	0.0007	4.2	31
0.0082	-0.0023	0.0007	-0.0008	3.9	31
0.006	-0.003	-0.0015	-0.0015	4.1	31
0.0045	-0.0015	-0.0008	0.0007	4	31
0.003	-0.0008	-0.0008	0.0045	4.1	31
0.0015	-0.0015	-0.0015	0.0037	4.2	31
0	-0.0015	-0.0015	-0.0008	4.1	31
0.0015	-0.0015	-0.0015	-0.0015	4.3	31
0.003	-0.0015	-0.0015	0.0015	4	31
0.003	-0.0015	-0.0015	0.0015	4.2	31
0.0022	-0.0038	-0.0023	0	4	31
0.0015	-0.0046	-0.003	-0.003	4.2	31
0.0007	-0.0038	-0.0008	-0.003	4	31
-0.0008	-0.0023	-0.0008	-0.0015	4.1	31
0	-0.0038	-0.003	-0.0046	3.9	31
0.0007	-0.0046	-0.0038	-0.0038	4.3	31
0.0007	-0.003	-0.0008	-0.003	3.9	31
0.0015	-0.0038	0.0007	-0.003	4.1	31
0.0037	-0.0015	-0.0008	0.0007	4.2	31
0.003	-0.0015	0	0.0015	4	31
0	0	0.0015	0	4.3	31
0	0.003	0.003	0.0022	4.1	31
0.003	0.0045	0.003	0.0015	4.2	31
0.0045	0.003	0.0037	0.0015	4.2	31
0.0075	0.003	0.003	0.003	4	31
0.0097	0.003	0.0015	0.0015	4.1	31
0.009	0.0015	0.003	0.0007	3.9	31
0.0082	0.0022	0.0022	0.0045	4.1	31
0.0082	0.0015	0.003	0.0045	4.1	31
0.0067	0.0007	0.0052	0.0045	4.1	31
0.0075	-0.0008	0.0022	0.0052	4	31
0.0082	-0.0015	0	0.0082	4.5	31
0.0082	-0.0008	0.0007	0.0075	3.9	31
0.0052	-0.0015	-0.0015	0.0067	4.4	31
0.0037	-0.0023	-0.003	0.0052	3.9	31
0.0067	-0.003	-0.0008	0.0037	4.4	31
0.0075	-0.0008	-0.0015	0.003	4.1	31
0.0045	0.0007	-0.0023	0.0045	4.2	31
0.0052	-0.0008	0.0007	0.0067	4.4	31
0.0097	0.0007	0.0007	0.0045	4	31
0.0105	0.0037	-0.0008	0.0022	4.4	31
0.0127	0.0015	0.0007	0.0007	4.1	31
0.0112	-0.0008	0.0015	0.0007	4.3	31
0.0082	0	0.0015	0.003	4.2	31
0.0067	-0.003	0.0037	0.0045	4.3	31
0.0052	-0.003	0.0045	0.003	4.4	31
0.0045	-0.0023	0.0022	0.0007	4.5	31
0.0037	-0.0046	0	0.0015	4.3	31
0.003	-0.0046	0.0015	0	4.4	31
0.0045	-0.0023	0.0007	0.0007	4.5	31
0.0037	0	-0.0008	0.0007	4.1	31
0.0015	-0.0015	-0.0008	0	4.5	31
0.0015	-0.0015	-0.0023	0.0007	4.3	31
0.0007	-0.0015	0	0.0015	4.7	31
0.0015	-0.0046	-0.0015	-0.0008	4.2	31
-0.0008	-0.003	-0.003	-0.0053	4.7	31
-0.0046	0	-0.0015	-0.0053	4.4	31
-0.0015	0.0015	-0.0015	-0.0105	4.5	31
-0.0008	0.0045	-0.0015	-0.0075	4.5	31
-0.0015	0.006	-0.0023	0.0007	4.5	31
-0.0015	0.006	-0.0008	0.003	4.5	31
-0.0046	0.003	-0.0008	0.0015	4.6	31
-0.0075	0	-0.0008	0.0067	4.8	31
-0.0068	-0.003	0.0007	0.0112	4.3	31
-0.0105	-0.0046	-0.0015	0.003	4.7	31
-0.0105	-0.0008	0.0007	0.0045	4.3	31
-0.0083	-0.0015	0.003	0.0075	4.8	31
-0.0075	-0.0015	0.0037	0.0082	4.5	31
-0.0113	-0.0046	0.0007	0.0082	4.8	31
-0.0128	-0.0053	-0.0038	0.0082	4.6	31
-0.0105	-0.0053	-0.0015	0.009	4.7	31
-0.0091	-0.0083	-0.0023	0.0015	5	31
-0.0091	-0.0075	-0.003	0.0007	4.3	31
-0.0091	-0.0091	-0.0053	-0.003	4.9	31
-0.0091	-0.0083	-0.0046	-0.0038	4.6	31
-0.0083	-0.0053	-0.003	-0.0023	4.6	31
-0.0083	-0.0046	-0.0046	-0.0046	4.8	31
-0.0091	-0.0046	-0.0015	-0.003	4.7	31
-0.0083	-0.0046	-0.0008	-0.003	4.6	31
-0.0075	-0.0046	0.0007	-0.003	4.7	31
-0.0083	-0.0053	0.003	-0.003	4.7	31
-0.0083	-0.0038	0.0015	-0.0023	4.7	31
-0.0098	-0.0015	0.0007	-0.003	4.7	31
-0.012	-0.0008	0.0007	-0.0046	4.5	31
-0.0105	0	0.0015	-0.0038	4.9	31
-0.0091	-0.0008	0.0015	-0.0023	4.4	31
-0.0098	-0.0015	0.0015	-0.0008	4.9	31
-0.0083	0.0007	0.0015	0	4.5	31
-0.0083	0	0.0007	-0.0023	4.9	31
-0.0098	0.0015	0.0007	0.0007	4.5	31
-0.0075	0.0022	0.0015	-0.0008	4.7	31
-0.006	0.003	-0.0008	-0.0015	4.6	31
-0.0083	0.0015	0	0.0015	4.6	31
-0.0091	-0.0008	0.0015	0.003	4.7	31
-0.0083	-0.0038	-0.0008	0.003	4.8	31
-0.0075	-0.0053	-0.003	0.0045	4.7	31
-0.0068	-0.0023	-0.0015	0.0052	4.7	31
-0.0068	-0.0023	0.0007	0.0015	4.8	31
-0.0075	-0.0015	0.0007	-0.0038	4.5	31
-0.0053	-0.0008	0.0022	-0.0083	4.8	31
-0.003	-0.0008	0.0045	-0.0091	4.5	31
-0.003	-0.0015	0.0037	-0.0075	4.7	31
-0.0008	0.0015	0.0015	-0.0015	4.7	31
0.0015	0.003	0.0015	0.0105	4.7	31
0.0022	0.0037	0.003	0.0225	4.9	31
0.0007	0.0045	0.003	0.0225	4.7	31
0.003	-0.0008	0.003	0.0165	4.8	31
0.0022	-0.0068	0.0007	0.0127	4.7	31
-0.0008	-0.0083	-0.0008	0.0135	4.9	31
0.0015	-0.006	-0.0008	0.018	4.9	31
0.0007	-0.0083	-0.0038	0.0067	5.1	31
0.0015	-0.0053	-0.0038	0.0022	4.7	31
0.0045	-0.0008	0	0.0052	5.1	31
0.0052	-0.0023	0.0007	0.0015	4.6	31
0.0022	-0.0008	0.0007	0.0037	5	31
0.0015	0	0.0015	0	4.9	31
0.0045	0	0	-0.0008	5	31
0.0052	0.003	-0.0008	-0.0015	5	31
0.0037	0.0037	0.0007	-0.0053	4.9	31
0.0045	0.0052	0	-0.0068	5.1	31
0.006	0.0067	-0.0008	-0.006	4.9	31
0.0045	0.0045	-0.0015	-0.003	5.3	31
0.0052	0.003	0.0007	-0.0015	5.3	31
0.0052	-0.003	0.0015	0.0007	5.1	31
0.0052	-0.0068	0.003	0.003	5.1	31
0.006	-0.0046	0.0045	0.0052	5.4	31
0.0052	0.0022	0.0015	0.0022	5.1	31
0.0067	0.003	0.0007	-0.0015	5.3	31
0.006	0.0007	0	-0.0046	5.3	31
0.0052	0	0.0007	-0.0105	5.3	31
0.0052	0	0.0007	-0.0105	5.6	31
0.0052	0.0037	0	-0.003	5.3	31
0.0045	0.0067	0.0007	0.0045	5.9	31
0.0037	0.0045	-0.0008	0.0045	5.3	31
0.003	0.003	-0.0008	0.0037	6	31
0.003	0.003	0	0.003	5.5	31
0.0015	0.0015	0	0.003	6	31
0.0015	0.0007	0	0.0015	5.9	31
0.003	0.0007	0.0007	0	5.8	31
0.0045	0	0.0007	-0.0008	5.9	31
0.0045	0.0007	0	-0.0023	5.9	31
0.0052	0.0015	0.0015	-0.0015	6	31
0.0075	0	0.0007	-0.0008	5.8	31
0.0052	0.0022	0.0007	-0.0008	6.2	31
0.0037	0.0015	0.0015	-0.0008	5.9	31
0.0052	-0.0008	0.0015	-0.0008	6.5	31
0.0052	-0.0015	0.0015	0.0015	6.2	31
0.0052	-0.0023	0	0.003	6.5	31
0.0045	-0.003	0	0.0015	6.3	31
0.0045	-0.0015	-0.003	0.0015	6.7	31
0.0037	-0.0015	-0.0038	0.0045	6.6	31
0.0022	-0.0008	-0.0008	0.0052	6.6	31
0.0022	0.0007	-0.0008	0.003	6.9	31
0.0045	0.0007	0	0.0052	6.7	31
0.0045	0.0015	-0.0008	0.0045	6.8	31
0.003	0.0007	-0.0008	0.0052	7	31
0.003	0.0007	-0.0015	0.0045	7.2	31
0.0015	0.0015	-0.0008	0.0037	7.1	31
0.0015	0	-0.0015	0.0045	7.4	31
0.0022	0	-0.0015	0.003	7.1	31
0.0015	0	-0.0008	0.0015	7.6	31
0.003	0.0007	0	0.0007	7.4	31
0.003	0	-0.0008	0.0015	7.5	31
0.0045	-0.0038	-0.0008	0.0022	7.7	31
0.0045	-0.0046	0.0015	0.0007	7.6	31
0.003	-0.003	0.0007	0.0015	8	31
0.0045	-0.0008	0.0007	0.0015	7.6	31
0.003	-0.0015	0.0007	0.0007	8.1	31
0.0015	-0.0008	0.0007	0.0015	7.8	31
0.0007	-0.0008	0.003	0.0045	8.2	31
0.0022	-0.0023	0.0015	0.0045	8.3	31
0.0022	-0.0015	0	-0.0008	8.2	31
0.0022	-0.0008	-0.0015	-0.003	8.5	31
0.0037	0.0007	-0.0015	-0.003	8.8	31
0.0022	0.0015	-0.0008	-0.0038	8.3	31
-0.0008	0.0022	-0.0015	0.003	8.9	31
-0.003	0.003	-0.0008	0.009	8.8	31
-0.0053	0.0037	0.0022	0.009	9	31
-0.0046	0.003	0.0007	0.0075	9	31
-0.003	0.0015	0	0.0112	9	31
-0.0046	0.0015	-0.0015	0.0082	9.4	31
-0.0046	0.0007	-0.0023	-0.0008	9.1	31
-0.0046	0.0022	-0.0015	0.003	9.4	31
-0.003	0.0015	-0.0008	0.0007	9.4	31
-0.003	0.0007	0	-0.0015	9.5	31
-0.0038	-0.0015	-0.0015	-0.0008	9.9	31
-0.0038	-0.0015	0.0007	-0.0008	9.9	31
-0.0046	-0.0008	0.0015	0.0015	9.9	31
-0.0053	-0.0023	0.0022	0.0015	10	31
-0.003	-0.0053	0.003	0.0007	10	31
-0.0015	-0.0068	0.0015	-0.0046	10.1	31
-0.0015	-0.0053	0.0015	-0.0068	10.5	31
0.0007	-0.0053	0.0015	-0.003	10.3	31
0.0007	-0.0053	0.003	-0.003	10.8	31
0.0015	-0.0075	0.0022	-0.0015	10.4	31
-0.0008	-0.0068	0	0.0015	11	31
-0.0008	-0.003	-0.0008	0.0052	10.7	31
-0.0015	-0.0046	-0.0015	0.0037	11.2	31
-0.0038	-0.0046	0	-0.0023	11.2	31
-0.0038	-0.0015	-0.0008	-0.012	11.1	31
-0.0046	0.0007	-0.0008	-0.0105	11.6	31
-0.003	0.0015	-0.003	-0.0046	11.4	31
-0.003	0.0007	-0.003	-0.0008	11.7	31
-0.0038	0.0022	-0.0015	0.0045	12	31
-0.0015	0.0052	-0.0038	0.003	12	31
0.0007	0.0052	-0.003	0.0007	11.9	31
0.003	0.003	-0.0015	-0.003	12.4	31
0.003	0.0015	-0.0015	0.0037	12	31
0.0015	0.0015	-0.003	0.0067	12.5	31
0.0007	-0.0015	-0.0023	0.0075	12.6	31
0.0007	-0.0053	-0.003	0.0142	12.6	31
-0.0008	-0.0098	-0.0038	0.0082	12.9	31
-0.0015	-0.0105	-0.0008	0.0037	12.7	31
-0.0015	-0.0083	0	0.0015	13.3	31
-0.0008	-0.0053	0.0007	-0.0015	13	31
0.0015	-0.003	0.0015	-0.0015	13.5	31
0.003	-0.0015	0.0015	0	13.2	31
0.0052	0.0007	0.003	0.0037	13.5	31
0.006	0	0.0045	0.0022	13.7	31
0.0037	-0.0008	0.0052	-0.0023	13.9	31
0.0015	-0.0008	0.0037	-0.0038	14.1	31
0	-0.0008	0.0007	-0.0015	14.3	31
-0.0015	-0.0015	0.003	0.0015	14.4	31
-0.0046	-0.0008	0.0022	0.0052	14.3	31
-0.0053	0.0007	0	0.012	14.8	31
-0.0046	0.0007	0.0022	0.0142	14.5	31
-0.0046	0.003	0.0037	0.015	15.3	31
-0.003	0.0022	0.003	0.0142	15.1	31
-0.003	0.0015	0.003	0.0127	15.4	31
-0.0038	0.0015	0.0015	0.009	15.4	31
-0.0046	0.0007	0.0007	0.0045	15.5	31
-0.006	0.0007	-0.0008	0.0037	16	31
-0.0068	-0.0008	-0.0015	0.0022	15.7	31
-0.0068	-0.0015	-0.0008	-0.003	16.2	31
-0.006	-0.0023	-0.0015	-0.0068	16.2	31
-0.0083	-0.0008	-0.0008	-0.0046	16.5	31
-0.0083	0	-0.0015	-0.0083	16.6	31
-0.0068	0.003	-0.0038	-0.0128	16.9	31
-0.0068	0.0052	-0.0046	-0.0158	16.8	31
-0.0046	0.0045	-0.003	-0.015	17.2	31
-0.0046	0.0067	-0.0015	-0.006	17.2	31
-0.0046	0.0037	-0.0038	0.0007	17.5	31
-0.0053	-0.0023	-0.0015	0.0007	17.7	31
-0.0046	-0.0046	-0.0015	0.006	17.6	31
-0.0008	-0.003	-0.0008	0.009	18.3	31
0.0045	0	0.0007	0.0045	18	31
0.0097	0.0007	0.0007	0.0022	18.6	31
0.0142	-0.0015	0.003	0.0052	18.4	31
0.0187	-0.003	0.0045	0.012	18.9	31
0.0187	-0.0015	0.0052	0.0195	19	31
0.0187	-0.003	0.0045	0.0142	19.2	31
0.0217	0	0.0045	0.0067	19.3	31
0.0217	0.0037	0.003	0.0082	19.5	31
0.0217	0.0052	0.0045	0.0082	19.6	31
0.0232	0.0015	0.0022	0.003	19.8	31
0.0225	-0.003	-0.0008	0.0007	20.2	31
0.0225	-0.0023	0	-0.0008	20	31
0.0217	-0.0046	0.0007	-0.0023	20.6	31
0.0187	-0.0046	0.0007	-0.0068	20.4	31
0.0142	-0.0038	-0.0008	-0.0068	20.8	31
0.0127	-0.0015	-0.0015	-0.006	21.1	31
0.012	0.0007	-0.003	-0.012	21.2	31
0.0105	0.0007	-0.0038	-0.0128	21.9	31
0.0082	0.0007	-0.0046	-0.012	21.6	31
0.0082	0.0007	-0.0053	-0.0105	22.3	31
0.0082	-0.0008	-0.0046	-0.0083	22.3	31
0.0105	-0.0008	-0.003	-0.006	22.6	31
0.012	-0.0008	-0.0023	-0.0008	22.9	31
0.015	-0.0015	-0.0015	0	23.1	31
0.0165	-0.003	0.0015	-0.0008	23	31
0.018	-0.0023	0.003	0.0022	23.7	31
0.021	-0.0015	0.003	0.0015	23.8	31
0.0232	-0.0008	0.0007	0.0067	24.2	31
0.0217	0.0007	0.0022	0.0165	24.5	31
0.0142	0.003	0.0052	0.0195	24.7	31
-0.0053	0.0007	0.0052	0.0195	25.1	31
-0.0248	0	0.0045	0.0172	25.2	31
-0.0308	0	0.003	0.0135	25.6	31
-0.0361	-0.0015	0.003	0.0082	25.7	31
-0.039	-0.0046	0.0007	0.003	25.8	31
-0.042	-0.003	-0.0008	0.0015	26.4	31
-0.0443	-0.0023	0.0007	-0.0008	26.4	31
-0.0465	-0.0038	-0.0015	-0.0008	26.8	31
-0.0503	-0.0046	-0.0015	0	27	31
-0.0533	-0.0046	-0.0008	-0.0023	27.3	31
-0.0585	-0.0046	-0.0008	-0.0053	27.5	31
-0.0585	-0.003	-0.0015	-0.0038	28.2	31
-0.0593	-0.003	-0.003	-0.0038	28.2	31
-0.06	-0.0015	-0.003	-0.0038	28.7	31
-0.0578	-0.0008	-0.0046	-0.003	28.7	31
-0.0548	0.0007	-0.0046	-0.003	29	31
-0.048	0.0007	-0.003	-0.0008	29.6	31
-0.0443	0.0007	-0.003	0.0022	29.6	31
-0.0405	0	-0.0023	0.003	30.2	31
-0.0353	0	-0.0023	0.003	30.3	31
-0.0308	0	-0.0015	0.0015	30.6	31
-0.0248	-0.0015	0	-0.0015	31.1	31
-0.0218	-0.0008	0.0015	-0.003	31.2	31
-0.0218	-0.0015	0.0007	-0.0046	31.6	31
-0.0195	-0.0038	0.0007	-0.0008	32.1	31
-0.015	-0.003	0.0007	0.0022	32.4	31
-0.0083	-0.0046	0.0015	-0.003	32.8	31
-0.003	0	0.0015	0	33.1	31
-0.0008	0.0015	0.0007	0.006	33.2	31
0.003	0.0007	0.003	0.003	34	31
0.0067	0.003	0.0015	0.003	34.1	31
0.009	0.003	0.0022	0.0082	34.7	31
0.009	0.0045	0.0022	0.0097	34.7	31
0.012	0.0045	0.0015	0.0067	35.2	31
0.0135	0.0045	0.003	0.0045	35.7	31
0.0127	0.0045	0.0022	0.006	36	31
0.012	0.003	0.0045	0.0067	36.6	31
0.0097	0.0037	0.0075	0.009	36.6	31
0.0075	0.0037	0.0052	0.0127	37.1	31
0.0067	0.003	0.003	0.0142	37.7	31
0.0045	0.006	0.0045	0.0052	38.1	31
0.0045	0.0082	0.0067	0.0015	38.4	31
0.009	0.0067	0.0067	0.0015	38.9	31
0.0142	0.0067	0.006	-0.003	39.1	31
0.0142	0.0052	0.003	-0.0023	39.5	31
0.0127	0.0052	0	-0.0053	40	31
0.0172	0.0067	-0.0008	-0.003	40.3	31
0.0202	0.0067	-0.0008	-0.0023	41.1	31
0.0217	0.0067	0.0007	-0.0015	41	31
0.021	0.006	0.0007	-0.0008	41.8	31
0.0217	0.0067	0.0007	-0.0023	41.8	31
0.024	0.0067	-0.003	0	42.6	31
0.024	0.0067	-0.0046	-0.0008	42.8	31
0.024	0.006	-0.0053	0.0007	43.1	31
0.0262	0.0045	-0.0046	0.0015	43.6	31
0.027	0.0045	-0.0046	0.0022	44	31
0.0277	0.003	-0.0038	0.003	44.4	31
0.0292	0.0045	-0.003	0.0045	44.7	31
0.0315	0.0067	-0.003	0.0052	45.3	31
0.0322	0.0075	-0.003	0.0045	45.2	31
0.03	0.0067	-0.006	0.0037	45.9	31
0.0285	0.006	-0.0053	0.0022	45.8	31
0.0277	0.006	-0.0046	0.0045	46.3	31
0.024	0.0037	-0.0053	0.0052	46.6	31
0.0232	0.0015	-0.003	0.0052	46.6	31
0.0217	-0.0015	-0.0046	0.0067	47.2	31
0.0217	-0.0053	-0.0053	0.0052	47.1	31
0.0217	-0.0053	-0.0053	0.0045	47.8	31
0.024	-0.0068	-0.0046	0.003	47.5	31
0.0255	-0.0075	-0.0053	0.0007	48.1	31
0.0225	-0.006	-0.0046	0.0007	48.3	31
0.018	-0.0068	-0.003	0	48.4	31
0.0157	-0.0068	-0.003	0.0007	48.6	31
0.012	-0.0075	-0.0023	-0.0008	48.7	31
0.0082	-0.006	-0.0038	-0.0015	48.9	31
0.0082	-0.006	-0.006	-0.0015	48.7	31
0.006	-0.0053	-0.006	-0.0015	49.3	31
0.0022	-0.0046	-0.0068	-0.0015	49.1	31
0.0007	-0.0068	-0.0046	-0.0008	49.6	31
0.0015	-0.0068	-0.0038	0	49.5	31
0.0045	-0.0068	-0.0046	-0.0023	49.7	31
0	-0.003	-0.0053	-0.003	49.9	31
-0.0038	-0.0015	-0.0053	-0.0015	49.7	31
-0.0008	-0.003	-0.003	-0.0015	50.2	31
0.0015	-0.0015	-0.0046	-0.0015	50.1	31
0.0045	-0.003	-0.0038	-0.0008	50.7	31
0.003	-0.003	-0.0008	0.0007	50.4	31
-0.0015	-0.003	0	0	50.6	31
0.0007	-0.003	0.0037	0	50.8	31
0.003	0	0.0045	0.0007	51	31
0.0015	0.0015	0.003	-0.0008	50.8	31
0.0015	0.0037	0.003	-0.0008	50.9	31
0.0007	0.0052	0.003	0	51	31
-0.003	0.0052	0.0037	0.0007	50.9	31
-0.0015	0.006	0.0067	0.0015	51.3	31
-0.0008	0.0052	0.0082	0.0015	50.8	31
-0.0046	0.003	0.009	0.003	51.3	31
-0.0053	0.0037	0.0097	0.0045	51.2	31
-0.0053	0.003	0.009	0.0022	51.4	31
-0.003	0.0015	0.009	0.0007	51.6	31
-0.0008	0	0.0082	0.0022	51.3	31
-0.0008	-0.0023	0.0082	0.0015	51.8	31
-0.0015	-0.0046	0.0067	0.0015	51.9	31
-0.0046	-0.0046	0.0052	0.0015	51.8	31
-0.0023	-0.0046	0.0052	0.0015	52	31
-0.0046	-0.0046	0.0037	0.003	52.2	31
-0.006	-0.006	0.0037	0.0045	52	31
-0.0046	-0.0083	0.0045	0.0015	52.2	31
-0.003	-0.0091	0.0037	-0.0008	52.5	31
-0.0015	-0.012	0.0007	-0.0008	52.6	31
-0.0015	-0.012	0.0007	0.0045	52.9	31
0	-0.0128	-0.0015	0.0022	52.8	31
-0.0008	-0.012	-0.003	0.003	53.3	31
0	-0.0105	-0.0023	0.0015	53.1	31
-0.0008	-0.0098	-0.003	-0.0091	53.6	31
-0.0015	-0.0083	-0.0053	-0.0083	53.4	31
-0.0015	-0.0083	-0.0068	0.003	53.8	31
-0.0008	-0.0083	-0.0053	0.012	53.8	31
-0.0008	-0.0105	-0.0015	0.006	54	31
-0.0053	-0.0105	0.0015	0.0007	54.1	31
-0.0046	-0.0091	0.0015	0.0015	54.4	31
-0.0023	-0.0091	0.0015	0.0015	54.4	31
-0.003	-0.0083	0	0.003	54.8	31
-0.006	-0.0068	-0.0015	0.003	55	31
-0.0068	-0.0046	0	0.003	54.9	31
-0.0053	-0.003	-0.0008	0.0007	55.4	31
-0.0046	-0.0008	-0.0015	0.0015	55.4	31
-0.0015	-0.0008	-0.003	-0.0015	55.6	31
-0.0015	0.0007	-0.0046	-0.0023	56.1	31
-0.0053	0.0007	-0.0053	-0.0015	55.9	31
-0.0128	0.0015	-0.0053	-0.0015	56.5	31
-0.0128	0.0015	-0.006	0.0015	56.3	31
-0.0098	0.0007	-0.006	0.0015	56.8	31
-0.0083	-0.0008	-0.006	0.0022	56.8	31
-0.0053	-0.0015	-0.0038	-0.0008	57.1	31
-0.0083	-0.0023	-0.0015	-0.0015	57.2	31
-0.0075	-0.0053	-0.0015	0	57.4	31
-0.0038	-0.0053	0.0007	0.0045	57.6	31
-0.0015	-0.0075	0.0015	0.0052	57.9	31
-0.0023	-0.0091	-0.0015	-0.0015	58.2	31
-0.0046	-0.006	-0.0053	-0.0015	58.1	31
-0.0046	-0.0038	-0.0053	0.0075	58.6	31
-0.003	-0.0008	-0.0053	0.015	58.6	31
-0.0015	-0.0038	-0.0046	0.0082	58.9	31
-0.0015	-0.003	-0.003	-0.0008	59.1	31
-0.0015	-0.0046	-0.0053	-0.0015	59.2	31
0.0007	-0.0053	-0.0046	-0.006	59.5	31
0.003	-0.0038	-0.0015	-0.0038	59.5	31
0.0045	-0.0053	0.003	0.0007	60	31
0.006	-0.003	0.0067	0.0052	59.8	31
0.0045	-0.0023	0.0082	0.0075	60.3	31
0.003	-0.0008	0.009	0.006	60.6	31
0.0045	-0.0008	0.0105	0.0075	60.6	31
0.0045	-0.0015	0.0097	0.0052	60.7	31
0.0045	-0.0008	0.009	0.0075	61.2	31
0.0067	-0.0015	0.0067	0.0052	61	31
0.0067	-0.0008	0.0052	0.0015	61.4	31
0.0067	0	0.0045	0.0015	61.3	31
0.0075	0.0007	0.0045	-0.0015	61.5	31
0.009	0.003	0.0045	-0.0015	61.9	31
0.0105	0.0067	0.0037	-0.003	61.7	31
0.0105	0.0082	0.0045	0	62.1	31
0.0112	0.0105	0.0045	0.0015	62	31
0.012	0.0105	0.0045	0.003	62.3	31
0.009	0.0075	0.003	0.0022	62.5	31
0.0052	0.0082	0.003	-0.0015	62.2	31
0.003	0.0082	0.0015	-0.0008	62.5	31
0.003	0.0082	0.0015	-0.0008	62.6	31
-0.003	0.0075	0.003	0.0045	62.8	31
-0.006	0.0052	0.0015	0.0097	62.9	31
-0.003	0.003	0.0022	0.0067	63.3	31
-0.0046	0.0052	0.0015	0.0007	62.9	31
-0.0068	0.0067	0.0015	0.0007	63.4	31
-0.0091	0.0052	0.0007	0.0007	63.3	31
-0.012	0.003	-0.0015	0.0007	63.6	31
-0.0135	0.0015	0	0.003	63.9	31
-0.012	0.0015	0.0007	0.0052	63.9	31
-0.0091	0	0.0007	0.0045	64.2	31
-0.0083	-0.0015	0.0007	0.0007	64.2	31
-0.0068	0.0007	0.0022	0	64.4	31
-0.006	0.0007	0.0045	0	64.7	31
-0.0068	-0.0046	0.0052	-0.0008	64.5	31
-0.0053	-0.0068	0.0067	0.0007	65	31
-0.003	-0.0075	0.0052	-0.0008	65.2	31
-0.0008	-0.0083	0.0045	-0.0023	65.2	31
0.0007	-0.0075	0.003	-0.0023	65.4	31
0.0007	-0.006	0.003	-0.003	65.5	31
0.0007	-0.0015	0.0022	-0.0008	65.3	31
-0.0023	0.0045	0	-0.0008	65.9	31
-0.0038	0.0015	-0.0008	-0.0015	65.7	31
-0.0046	-0.0046	-0.0046	-0.0008	66.1	31
-0.0038	-0.003	-0.006	-0.0008	65.8	31
0	-0.003	-0.0053	-0.0015	66	31
0.003	0.006	-0.0053	0.0007	66.1	31
0.006	0.0112	-0.0083	0.0007	66.2	31
0.0082	0.0045	-0.0105	0.0007	66.5	31
0.0082	0.003	-0.0091	0.0067	66.1	31
0.003	0.0105	-0.0068	0.0097	66.6	31
-0.0023	0.0195	-0.0053	0.0067	66.6	31
-0.0046	0.0157	-0.0046	0.0067	66.6	31
-0.0053	0.003	-0.0046	0.0045	66.6	31
-0.003	0.0015	-0.003	0.0007	66.9	31
-0.0008	0	-0.0023	0.0037	66.7	31
0.0022	-0.0015	0.0007	0.0052	66.9	31
0.0045	-0.0023	0.0015	0.0045	66.9	31
0.003	-0.0015	0.0015	0.0015	66.6	31
0.003	-0.0023	0.0015	-0.0015	67	31
0.003	-0.0068	0.0007	-0.0008	66.7	31
0.0007	0	0	-0.0023	67.1	31
-0.0038	0.003	-0.0015	-0.0053	66.6	31
-0.0068	0.0015	-0.003	-0.0091	67	31
-0.0083	-0.0015	-0.0046	-0.0053	66.7	31
-0.006	-0.0008	-0.0053	-0.0008	66.6	31
-0.0046	0.0015	-0.006	-0.0008	66.7	31
-0.0023	-0.0008	-0.0068	0.0022	66.5	31
0.0007	-0.0023	-0.0068	-0.0015	66.6	31
0.0022	-0.003	-0.0083	-0.0008	66.5	31
0.0022	0	-0.0068	0.0097	66.6	31
0	-0.0046	-0.0046	0.0067	66.2	31
-0.0008	-0.0038	-0.003	0.0067	66.6	31
0.0022	-0.0008	-0.0046	0.006	66	31
0.006	-0.0046	-0.0038	0.0015	66.3	31
0.006	-0.003	-0.0015	0.006	66	31
0.0052	-0.0015	-0.0015	0.0105	65.9	31
0.0045	-0.003	-0.0038	0.0082	66	31
0.0045	-0.0068	-0.0015	-0.0015	65.4	31
0.0037	-0.0046	0.0007	-0.006	65.7	31
0.003	0.0007	0.0007	-0.0015	65.2	31
0.0015	-0.0023	-0.0008	-0.0068	65.5	31
0.0015	-0.0068	-0.003	-0.0053	65.2	31
-0.0008	-0.0038	-0.003	0.006	65	31
-0.0008	-0.003	-0.003	0.015	64.8	31
-0.003	-0.0015	-0.0046	0.009	64.7	31
-0.0098	0.009	-0.003	-0.0008	64.6	31
-0.0233	0.015	-0.003	0.0015	64.4	31
-0.0368	0.0082	-0.0038	0	64.3	31
-0.0458	0.0007	-0.0023	0.0007	63.8	31
-0.0608	0.0045	-0.003	0.0015	64.1	31
-0.0706	0.0022	-0.0015	0.0015	63.4	31
-0.078	0.003	-0.003	0.0015	63.7	31
-0.0856	0.003	-0.003	-0.0008	63.3	31
-0.0878	-0.0015	0.0007	-0.0008	63.2	31
-0.0885	-0.0015	0.0015	-0.0023	63.2	31
-0.0938	-0.003	0.0015	-0.003	62.7	31
-0.0975	-0.0038	0.0015	-0.0015	62.8	31
-0.0938	-0.0046	-0.0008	0.0037	62.4	31
-0.0938	-0.003	-0.0023	0.0052	62.1	31
-0.093	-0.0008	-0.0015	0.0045	62	31
-0.0818	0.0007	-0.003	0	61.7	31
-0.075	-0.0015	-0.0023	-0.006	61.2	31
-0.0691	-0.0008	-0.0015	-0.0046	61.4	31
-0.0548	-0.0046	0	-0.0023	60.9	31
-0.0443	-0.0098	0.0015	-0.0015	60.6	31
-0.0368	-0.0091	0.003	0.0007	60.6	31
-0.0218	-0.0113	0.003	0.0045	59.9	31
-0.0091	-0.012	0.0015	0.0105	60.1	31
-0.0023	-0.0098	0.0022	0.0082	59.4	31
0.0052	0.0015	0.0045	0.0015	59.7	31
0.018	0.0097	0.0052	0	59.1	31
0.0232	-0.0038	0.0067	0.0007	59.1	31
0.0277	-0.015	0.0105	0.003	58.5	31
0.0397	-0.0091	0.009	0.0075	58.3	31
0.0495	0.003	0.0045	0.009	58	31
0.054	0.0015	0.0015	-0.0105	57.6	31
0.0555	0.0082	0	-0.0105	57.6	31
0.0555	0.0225	-0.0015	0.0097	57.2	31
0.06	0.0225	-0.0023	0.009	57.1	31
0.0607	0.0165	-0.0015	0.0105	56.8	31
0.0585	0.0007	-0.0008	0.0105	56.8	31
0.0637	-0.0038	-0.0008	0.0067	56.4	31
0.0697	-0.0046	0	0.0052	56.3	31
0.0667	-0.006	0.0015	0.0015	56.2	31
0.0607	-0.0038	0.0015	-0.0015	55.9	31
0.0615	-0.0046	0.0015	-0.0053	56	31
0.0615	-0.0038	0.0015	-0.0075	55.3	31
0.0532	-0.0023	0.0007	-0.0083	55.7	31
0.051	-0.003	0.0007	-0.0068	55	31
0.0577	-0.0038	0.0007	0.003	55	31
0.0577	-0.003	0.0007	0.015	54.8	31
0.0532	-0.006	0.0007	0.0082	54.8	31
0.0495	-0.0038	0.0007	0	54.4	31
0.051	-0.0015	0	0.009	54.5	31
0.0457	-0.0038	-0.0008	0.012	54.2	31
0.039	-0.0068	0	0.0105	54	31
0.0382	-0.0068	-0.0008	0.0105	53.9	31
0.0412	-0.0053	0	0.0015	53.5	31
0.0352	-0.0091	0.0015	-0.0188	53.5	31
0.0262	-0.015	0.0015	-0.027	53.2	31
0.0285	-0.015	-0.0008	-0.0008	53.2	31
0.0345	-0.0083	-0.0015	0.024	52.9	31
0.03	-0.0143	0.0015	0.0277	52.6	31
0.0217	-0.0068	0.0045	0.0202	52.7	31
0.0202	0.033	0.0037	-0.0046	52	31
0.0292	0.054	0.003	-0.0518	52.2	31
0.0322	0.0307	0.0007	-0.027	51.9	31
0.024	0.012	-0.0015	0.036	51.7	31
0.0157	0.0067	-0.0015	0.0247	51.6	31
0.0172	0.006	-0.0038	0.015	51.6	31
0.0202	0.003	-0.0015	0.0045	50.9	31
0.0157	-0.0068	0.003	-0.0068	51.1	31
0.0075	-0.003	0	-0.0038	50.6	31
0.0052	-0.0046	-0.0046	-0.0068	50.7	31
0.003	-0.0053	-0.0015	-0.0008	50.4	31
-0.0008	-0.0068	0.0015	-0.0015	49.9	31
0.0052	-0.015	0.0015	0.0022	50.1	31
0.009	-0.0113	0.003	-0.003	49.8	31
0.0082	-0.0068	0.0052	-0.0046	49.8	31
0.003	-0.0046	0.0067	0.0045	49.5	31
0.0015	0.0007	0.0067	0.0097	49.1	31
0.009	0.0225	0.006	0.0075	49	31
0.0105	0.033	0.0067	0.003	48.9	31
0.0127	0.003	0.006	-0.0105	48.7	31
0.006	-0.0083	0.0037	-0.0135	48.5	31
0.003	0.003	-0.0008	-0.0008	48.1	31
0.0037	-0.003	-0.0008	-0.0015	47.9	31
-0.0008	-0.0015	0.003	0.0007	48	31
-0.0053	-0.003	0.0037	0.0037	47.4	31
-0.0083	-0.0008	-0.0015	0.0052	47.7	31
-0.0008	-0.003	-0.003	0.0015	46.8	31
0.0045	-0.0091	-0.003	-0.0053	47	31
0.006	-0.0128	-0.0053	-0.0091	46.6	31
-0.0015	-0.021	-0.003	-0.0188	46.5	31
-0.0225	-0.0225	-0.003	-0.0308	46.3	31
-0.0383	-0.0233	-0.003	-0.0323	45.9	31
-0.048	-0.0181	-0.0038	-0.0233	45.9	31
-0.054	-0.0143	-0.003	-0.0173	45.6	31
-0.0578	-0.0008	-0.0008	0.015	45.2	31
-0.0563	0.033	0.0037	0.0502	45	31
-0.0533	0.0367	0.006	0.0382	44.9	31
-0.0525	0.0195	0.0045	0.048	44.4	31
-0.0465	0.0105	0.0022	0.0495	44.4	31
-0.042	-0.0225	0.0037	-0.0053	44	31
-0.0368	-0.024	0.0052	-0.0113	43.7	31
-0.0293	-0.0053	0.0022	-0.0256	43.5	31
-0.0256	-0.0195	-0.0008	-0.0248	43	31
-0.0195	-0.0046	0	0.0142	43.2	31
-0.0113	0.0292	0.003	0.036	42.4	31
-0.0038	0.0585	0.0015	0.0457	42.5	31
0.0022	0.0315	-0.0023	0.003	41.9	31
0.0052	0.0015	-0.003	-0.0053	41.9	31
0.0097	-0.0068	-0.0015	0.0255	41.4	31
0.0142	-0.0165	-0.0023	0.0127	41.3	31
0.021	-0.0113	-0.0023	-0.0091	41	31
0.0277	-0.0181	-0.0023	-0.0091	40.6	31
0.0315	-0.0128	-0.0046	-0.0098	40.3	31
0.0345	-0.0128	-0.0015	-0.0091	39.9	31
0.0345	-0.0091	0.003	-0.0083	40	31
0.036	-0.0091	0.0037	-0.012	39.2	31
0.0382	-0.0098	0.003	-0.0083	39.5	31
0.0382	-0.0068	0.003	-0.0053	38.8	31
0.0382	-0.0091	0.0015	-0.003	38.6	31
0.0375	-0.0053	0	-0.0053	38.2	31
0.036	-0.006	-0.0008	-0.0113	37.9	31
0.0367	-0.0038	-0.0015	-0.0195	37.7	31
0.0352	-0.0015	0.0007	-0.0203	37.2	31
0.0345	0.0007	0.0015	0.0082	37.3	31
0.0345	0	0.003	0.0255	36.5	31
0.0307	-0.0008	0.0037	0.0165	36.4	31
0.0277	-0.003	0.0007	-0.0053	36.2	31
0.0277	-0.0105	-0.0015	-0.0143	35.8	31
0.0262	-0.0188	-0.0038	0.0015	35.4	31
0.0232	-0.027	-0.0038	0	35.2	31
0.018	-0.027	-0.0015	-0.0008	34.9	31
0.0172	-0.0203	-0.0008	0.012	34.4	31
0.0142	-0.0083	0.0022	-0.003	34.2	31
0.0112	0.0157	0.003	-0.0053	33.7	31
0.009	0.0412	0.003	0.012	33.8	31
0.003	0.0577	0.0015	0	33.1	31
0.0015	0.0562	0	-0.0053	33.1	31
0.0022	0.027	0.0015	0.0037	32.4	31
-0.0023	0.009	0.0007	0	32.3	31
-0.006	0.0022	0	-0.0091	32	31
-0.0083	-0.0023	-0.0008	-0.0173	31.4	31
-0.0068	0.0045	-0.0023	-0.0143	31.3	31
-0.0075	0.003	-0.006	-0.003	31	31
-0.0105	0.0037	-0.0068	0.021	30.7	31
-0.0105	0.0022	-0.003	0.0315	30.5	31
-0.0135	0	0	0.0105	30.1	31
-0.0128	-0.0046	-0.0008	0.0052	29.7	31
-0.012	-0.0068	-0.0015	0	29.5	31
-0.0143	-0.0091	-0.0075	-0.0091	28.9	31
-0.015	-0.0128	-0.0158	-0.0008	28.7	31
-0.0128	-0.0105	-0.0128	0.0097	28.4	31
-0.0113	-0.0083	-0.0083	0.0367	28	31
-0.0091	-0.0053	-0.0053	0.069	28	31
-0.0113	-0.0023	0	0.0382	27.3	31
-0.0158	0.0067	0.0067	-0.024	27.3	31
-0.0143	0.0195	0.0097	-0.0465	26.6	31
-0.0098	0.0195	0.015	-0.0555	26.5	31
-0.0083	0.0045	0.0127	-0.0405	26.2	31
-0.0091	-0.0135	0.0105	-0.0203	25.8	31
-0.0105	-0.027	0.0135	0.0142	25.5	31
-0.0135	-0.0278	0.0127	0.0727	25.4	31
-0.012	-0.012	0.0112	0.0427	24.7	31
-0.0098	-0.0098	0.0105	-0.0083	24.5	31
-0.0098	-0.0128	0.0075	-0.0458	24.1	31
-0.0068	-0.0083	0.0045	-0.0721	23.8	31
-0.003	-0.003	0.0007	-0.0495	23.5	31
0	0.0007	-0.006	0.003	22.9	31
-0.0015	0.0045	-0.0113	0.0892	22.9	31
-0.0008	0.0082	-0.0091	0.0622	22.5	31
0.0007	0.0157	-0.0091	0.0015	22	31
0.003	0.0015	-0.0053	-0.0015	21.9	31
0.0052	-0.0173	-0.0046	-0.0353	21.3	31
0.0015	-0.0105	-0.012	-0.0308	21.2	31
-0.0008	-0.0053	-0.0091	-0.0113	20.9	31
0.0007	-0.0046	-0.0105	0.0465	20.5	31
0.003	-0.0053	-0.0165	0.0757	20.2	31
0.0045	0	-0.0181	0.024	19.9	31
0.0052	0.003	-0.0233	0.0075	19.3	31
0.0067	-0.0105	-0.0203	-0.0105	19.4	31
0.0067	-0.006	-0.0008	-0.0188	18.5	31
0.0045	-0.0046	0.0127	-0.0218	18.4	31
0.0007	0.0007	0.021	-0.024	18.1	31
-0.0023	0.009	0.03	-0.0091	17.7	31
-0.0015	-0.0075	0.0285	0.0045	17.7	31
-0.0008	-0.0195	0.0232	0.024	17.1	31
-0.0015	-0.0158	0.0217	0.0352	17.1	31
-0.0038	0.0097	0.021	0.0037	16.4	31
-0.0046	0.0022	0.0255	-0.0293	16.1	31
-0.0075	-0.012	0.0232	-0.0165	16.1	31
-0.0098	0.0067	0.021	-0.0053	15.6	31
-0.0083	-0.0098	0.0135	-0.0091	15.2	31
-0.0098	-0.0015	-0.0008	-0.0083	15.2	31
-0.0105	0.0187	-0.0038	0.0067	14.8	31
-0.0105	-0.0015	-0.0091	-0.0046	14.3	31
-0.012	0.0142	-0.0105	0.0082	14.3	31
-0.0098	0.0367	0.0127	0.0045	13.5	31
-0.0128	0.0315	0.0307	-0.024	13.8	31
-0.0165	0.003	0.0105	-0.0038	13.1	31
-0.0143	-0.021	-0.0105	-0.0015	13.3	31
-0.0091	-0.0405	-0.0195	-0.0465	12.7	31
-0.0068	-0.0533	-0.0353	-0.0436	12.5	31
-0.0083	-0.042	-0.045	-0.0023	12.3	31
-0.0105	-0.0436	-0.0578	-0.0203	11.7	31
-0.0158	-0.0278	-0.063	0.0277	11.9	31
-0.0218	-0.0038	-0.0488	0.036	11.4	31
-0.0233	0.054	-0.015	0.009	11.1	31
-0.024	0.1102	0.024	0.0607	10.9	31
-0.027	0.0817	0.033	0.0135	10.6	31
-0.027	0.027	0.018	0.0195	10.2	31
-0.0256	-0.0053	0.0082	0.1177	10.3	31
-0.0233	-0.0135	0.0112	0.1267	9.8	31
-0.0203	0.0022	0.0165	0.033	9.6	31
-0.0165	0.0007	0.0202	-0.0233	9.4	31
-0.012	-0.0083	0.0127	0.0067	9	31
-0.0091	0.0082	0.0052	0.0255	9.1	31
-0.003	0.012	-0.0008	0.0097	8.5	31
0.0015	-0.0053	-0.0046	-0.0158	8.8	31
0.0037	-0.0068	-0.0075	-0.0083	8.2	31
0.0045	-0.006	-0.0038	-0.0091	8.5	31
0.0037	-0.0083	0.003	-0.015	8	31
0.0075	-0.0046	-0.0098	-0.0165	7.8	31
0.0105	-0.003	-0.0128	-0.0195	7.7	31
0.0112	-0.0015	-0.0068	-0.0143	7.5	31
0.0097	-0.0135	-0.015	-0.0225	7.4	31
0.009	-0.0165	-0.0256	-0.0218	7.2	31
0.009	-0.0091	-0.0225	-0.0188	7.3	31
0.0052	-0.0165	-0.0195	-0.015	6.7	31
0.003	-0.0105	-0.03	-0.0165	6.9	31
0.0045	0.0022	-0.0248	-0.0218	6.6	31
0.0052	0	-0.003	-0.0278	6.8	31
0.0045	-0.003	0.021	-0.0338	6.6	31
0.0045	-0.0075	0.0532	-0.045	6.2	31
0.0075	-0.0053	0.066	-0.063	6.4	31
0.009	-0.0046	0.0382	-0.0825	6.1	31
0.009	-0.0165	0.0007	-0.0578	6.4	31
0.0105	-0.0195	-0.0158	0.0082	6.2	31
0.0165	-0.0015	-0.0165	0.0352	6.6	31
0.0142	0.0097	-0.012	0.051	6.5	31
0.006	0.0045	-0.0083	0.0825	6.8	31
-0.0008	0.0007	-0.015	0.0697	6.7	31
-0.0015	-0.0046	-0.0165	0.039	6.7	31
0.0037	-0.003	-0.0046	0.039	6.6	31
0.0075	0.0007	0.006	0.015	6.8	31
0.0097	0.003	0.0022	-0.003	6.8	31
0.0105	0.0022	-0.012	0.0015	6.5	31
0.0052	-0.003	-0.0165	0.0187	6.9	31
0.0045	-0.0015	-0.0053	0.0292	6.8	31
0.0052	-0.0015	-0.0008	0.0142	7	31
0.0052	0.0015	-0.0015	0.0202	6.7	31
0.0067	0.0037	0.009	0.0135	7.2	31
0.012	0.009	0.0195	0.0165	7.1	31
0.0097	0.0082	0.024	0.0187	7.1	31
0.003	0.0052	0.0195	0.0127	7.3	31
0.0045	0.006	0.0157	0.0067	7.5	31
0.0082	0.0037	0.0135	-0.0083	7.3	31
0.0082	0.0052	0.0067	-0.012	7.3	31
0	0.0082	0.006	-0.0165	7.6	31
-0.0046	0.0067	0.0037	-0.0278	7.2	31
-0.0015	-0.003	0.0037	-0.0488	7.7	31
-0.003	-0.0046	0.0075	-0.0518	7.3	31
-0.0015	0.0045	0.0075	-0.0473	7.6	31
0	0.0067	-0.0008	-0.042	7.7	31
0.003	0.0052	-0.0053	-0.0181	7.5	31
0.0007	0.0052	-0.0068	0.0135	7.8	31
-0.0008	0.0045	-0.0091	0.0352	7.6	31
0.0007	0.0037	-0.003	0.0457	7.9	31
-0.0008	0.0045	0.0007	0.045	7.6	31
-0.0015	0.0022	0.003	0.0217	8	31
-0.0046	-0.0023	0	0.0082	7.7	31
-0.0046	-0.003	0	0.0097	7.7	31
-0.0008	-0.0046	0.0037	0.0007	7.8	31
0.0007	0.0015	0.003	-0.0053	7.6	31
-0.0008	0.0165	0.0015	-0.0008	7.4	31
-0.0038	0.0127	-0.0023	0.0052	7.7	31
-0.0098	0	-0.0046	-0.0015	7.6	31
-0.015	-0.0038	-0.0068	-0.0091	7.6	31
-0.0165	-0.0128	-0.0015	-0.0075	7.7	31
-0.0158	-0.0091	0.0082	-0.0068	7.3	31
-0.0105	0.0082	0.012	0.0045	7.7	31
-0.012	0.0142	0.0097	0.0045	7.4	31
-0.012	0.0082	0.0052	0.003	7.6	31
-0.0083	-0.0113	0.0045	0.0015	7.6	31
-0.0046	-0.0436	0.0015	-0.0113	7.3	31
0.0015	-0.0368	0.0007	-0.0128	7.7	31
-0.0038	-0.0053	0.003	-0.0165	7.4	31
-0.0068	-0.0008	-0.0008	-0.0203	7.5	31
-0.0053	-0.0046	-0.0008	-0.0053	7.5	31
-0.003	-0.0075	0.0007	0.0067	7.6	31
0.0075	0.0015	0.003	-0.0053	7.5	31
0.0112	0.0105	0	-0.0091	8.1	31
0.0067	0.0052	-0.0038	-0.0068	7.6	31
-0.0015	-0.0008	-0.0008	-0.012	8.2	31
-0.0038	-0.0181	-0.0015	0.0015	8.1	31
-0.0023	-0.0105	-0.0046	0.0202	8.2	31
-0.0038	0.0007	-0.0008	0.009	8.3	31
-0.0046	-0.003	0.0015	0.009	8.5	31
-0.0015	0.0037	0.0015	0.048	8.6	31
0.0067	0.0015	-0.0008	0.06	8.5	31
0.0127	0.0067	-0.0008	0.0622	8.8	31
0.0105	0.0157	0	0.0517	8.7	31
0.0082	0.0217	0.0015	0.03	8.7	31
-0.0008	0.0165	-0.0008	0.0142	8.8	31
-0.0083	-0.012	-0.0091	-0.0083	9	31
0.0015	-0.0233	-0.0203	-0.0181	8.8	31
0.0135	-0.015	-0.0233	-0.0285	9	31
0.0127	-0.0046	-0.024	-0.0278	9.1	31
0.018	-0.0015	-0.0315	-0.012	8.9	31
0.0292	0.0007	-0.0293	-0.0038	9.1	31
0.0315	-0.003	-0.0181	-0.0068	8.7	31
0.012	0	-0.0015	-0.012	9.2	31
-0.0068	0.012	0.0127	-0.0173	8.8	31
-0.0128	0.0067	0.018	0.0097	9.1	31
-0.0188	0.0067	0.027	0.048	9	31
-0.0158	0.0052	0.036	0.0202	9	31
-0.0105	0.0075	0.0217	-0.0083	9.1	31
-0.0053	-0.0083	-0.0075	-0.0046	9.1	31
0	-0.0233	-0.0263	-0.0143	9	31
-0.0068	-0.0068	-0.0278	-0.0046	9	31
-0.0075	0.0067	-0.0203	0.0075	9	31
-0.0008	0.0112	-0.0143	0.0052	9.1	31
0.0082	0.012	0.003	-0.0023	9.4	31
0.0292	0.0142	0.0232	-0.024	9.2	31
0.039	-0.0008	0.0292	-0.0368	9.5	31
0.0307	-0.027	0.0307	-0.0346	9.5	31
0.0097	-0.0285	0.0322	-0.024	9.8	31
-0.0173	-0.012	0.0345	-0.0105	10	31
-0.03	-0.0068	0.027	0.0015	9.6	31
-0.0285	-0.0091	0.0052	-0.0098	9.9	31
-0.0181	-0.0135	-0.0091	-0.033	9.8	31
-0.0053	-0.0195	-0.0128	-0.027	10.1	31
-0.0015	-0.0053	-0.0181	-0.0143	9.7	31
0.006	0.0097	-0.0158	-0.0083	10	31
0.0105	0.009	-0.0113	0.0007	10.1	31
0.0127	0.0157	-0.0083	0.009	9.9	31
0.015	0.0255	-0.0015	0.015	10	31
0.012	0.021	-0.0046	0	10.1	31
0.009	0.0135	-0.0053	-0.0383	10.4	31
0.0082	0.0007	-0.0068	-0.054	10	31
0.0097	-0.0098	-0.0135	-0.0173	10.6	31
0.006	-0.003	-0.0165	0.0555	10.2	31
0.0037	0.0127	-0.0053	0.0502	10.6	31
-0.0008	-0.0008	0.009	0.003	10.3	31
-0.0046	-0.0195	0.0165	0.0472	10.6	31
-0.0046	-0.0091	0.0105	0.0532	10.6	31
-0.003	0.0082	0.0007	0.0825	10.5	31
0	0.0525	0.003	0.105	10.9	31
-0.0015	0.045	0.0067	0.021	10.5	31
-0.0053	0.0105	0.0007	0.0067	11.1	31
-0.0068	0.0045	-0.0083	0.0045	11	31
-0.0075	-0.0135	-0.0098	-0.0113	11.1	31
-0.0083	-0.0068	-0.0083	-0.0075	11.2	31
-0.0083	-0.0105	-0.0068	-0.012	11.5	31
-0.0091	-0.0075	-0.003	-0.003	11.4	31
-0.012	-0.0046	0.0007	0.009	11.7	31
-0.0105	-0.0068	0.0045	0.0105	12	31
-0.0068	-0.0023	-0.0023	0.003	12	31
-0.006	-0.0008	-0.012	-0.0023	12.4	31
-0.0046	0.0015	-0.0068	-0.0113	12.2	31
-0.0053	-0.0128	0.0007	-0.0091	12.9	31
-0.0143	-0.0233	0	-0.0053	12.6	31
-0.0143	-0.012	-0.0008	-0.0015	13.1	31
-0.0135	0	0	-0.003	12.8	31
-0.0113	-0.003	0.0015	-0.0083	13.2	31
-0.003	0.0045	0.0045	-0.0091	13.3	31
0.0022	0.0045	0.0007	-0.0128	13.5	31
0.0022	-0.0046	-0.003	-0.0105	13.8	31
-0.0015	-0.0143	-0.003	-0.0181	13.8	31
-0.003	-0.0105	0.0007	-0.0233	13.9	31
-0.0068	0.003	0.0052	-0.012	14.3	31
-0.0105	-0.0008	0.0052	0.0082	14.4	31
-0.0091	0.003	0.0007	0.015	14.4	31
-0.0105	0.0007	-0.0015	0.0105	14.8	31
-0.012	0.0007	0	0.0052	14.6	31
-0.0188	0.0015	0.0015	-0.0053	15	31
-0.0218	0.0015	0.0022	-0.03	15.1	31
-0.0173	0.0052	0.0015	-0.0488	15.2	31
-0.0143	0.0097	0.0015	-0.0413	15.7	31
-0.0143	0.0165	0.0007	-0.0068	15.6	31
-0.0091	0.0195	0.0015	0.0547	16.2	31
0.0007	0.0217	0.0045	0.0465	16	31
-0.003	0.0202	0.0052	-0.003	16.4	31
-0.0135	0.015	0.0045	-0.0113	16.6	31
-0.0135	0.009	0.0007	-0.0338	16.7	31
-0.0105	0.0172	-0.003	-0.0518	16.7	31
-0.0113	0.0195	0.003	-0.0263	17.3	31
-0.012	-0.0068	0.0022	0.0172	17	31
-0.0165	-0.0488	0.0015	0.0577	17.6	31
-0.0181	-0.0465	0.0067	0.1005	17.5	31
-0.0135	-0.0128	0.0105	0.0667	17.5	31
-0.012	-0.0233	0.0112	0.003	17.8	31
-0.0091	-0.0195	0.0082	0.0157	17.7	31
-0.0015	-0.0068	0.0082	-0.0015	17.9	31
0.0015	-0.0105	0.0105	-0.003	17.9	31
0.003	-0.0053	0.0075	-0.0023	18	31
0.0022	0.0015	0.0037	-0.0158	18	31
-0.0008	0.0067	0.0037	-0.012	18	31
0.0007	-0.0038	0.0052	-0.027	18.3	31
0.0007	-0.0053	0.006	-0.0143	18.4	31
0.003	-0.0008	0.0052	-0.0053	18.4	31
0.0052	0.0007	0.003	-0.0038	18.6	31
0.0082	0.0052	-0.003	0.009	18.5	31
0.009	0.0015	-0.0105	0.027	18.4	31
0.0052	0.0007	-0.0075	0.0097	19	31
0.0127	0.0052	-0.0008	-0.0008	18.5	31
0.0157	0.0082	0.0007	-0.0038	19	31
0.0097	0.003	0.0007	-0.0248	18.7	31
0.0015	0.0007	-0.0091	-0.021	19.1	31
0.0015	0.0067	-0.027	-0.0128	18.9	31
0.0022	0.006	-0.0383	-0.0015	19.2	31
-0.006	-0.0023	-0.033	-0.015	19.2	31
-0.0083	-0.021	-0.0158	-0.0256	19	31
-0.0053	-0.039	0.0015	-0.0165	19.4	31
0.003	-0.015	0.009	0.0015	19.2	31
0.0052	0.0082	0.0165	0.0247	19	31
0.0052	-0.0008	0.0202	0.0127	19.1	31
0.0067	0.006	0.015	0.0045	19.2	31
0.0052	0.0127	0.0172	0.0142	18.9	31
0.0067	0.0157	0.0195	0.012	19.1	31
0.0067	0.0112	0.0127	0.0165	18.9	31
0.0067	0.0052	0.0082	0.0082	18.6	31
0.0067	-0.0015	0.0015	-0.003	18.9	31
0.0112	-0.012	-0.0068	0.0075	18.3	31
0.0157	-0.0015	-0.0083	-0.0015	18.6	31
0.015	-0.0105	-0.0105	-0.0046	18.1	31
0.0142	-0.021	-0.0098	-0.0046	18.4	31
0.0165	-0.0053	-0.0068	-0.006	18	31
0.021	0.0022	-0.0083	0	18	31
0.0187	0.0037	-0.0038	-0.0008	17.8	31
0.012	0.009	0.003	-0.0015	17.6	31
0.012	0.0082	0.0015	-0.0098	17.5	31
0.0127	0.0015	0.0007	-0.0113	17.4	31
0.012	0.0007	0.0037	-0.0068	17.1	31
0.0127	0.0015	0.0015	-0.0008	16.9	31
0.015	0.0015	-0.0038	-0.0008	17.2	31
0.0195	0.0045	-0.0075	-0.0083	16.5	31
0.0202	0.0052	-0.0091	-0.0135	16.8	31
0.0165	0.006	-0.0068	-0.0083	16.3	31
0.0142	0.006	-0.0075	0.0037	16.5	31
0.0165	0.006	-0.0105	0.012	16.4	31
0.0195	0.009	-0.012	0.003	16.2	31
0.0135	0.0045	-0.0105	-0.0091	16.3	31
0.0097	0	-0.0008	0.027	15.8	31
0.012	-0.0038	0.0082	0.0405	16.3	31
0.0127	-0.0053	0.0082	0.0165	16.1	31
0.012	-0.0053	0.0052	0.0157	16	31
0.0082	-0.0091	0.0015	0.0052	16	31
0.0052	-0.0128	-0.0023	-0.003	16	31
0.0037	-0.012	-0.003	0.0052	16	31
0.0015	-0.006	-0.0015	0.015	16	31
0.0015	-0.0008	-0.0038	0.0142	16.1	31
0.0022	0.003	-0.0015	0.012	16	31
0.0007	-0.0046	0.0007	0.003	16.4	31
-0.0015	-0.0068	0	0.0015	15.9	31
-0.0015	0.0067	-0.003	0.0142	16.4	31
-0.003	0.015	-0.0008	0.0277	16.1	31
-0.003	0.0007	0.0007	0.0247	16.5	31
-0.003	-0.0046	-0.0015	0.0067	16.3	31
-0.0023	0.0015	0.0007	0.0015	16.5	31
0.0007	0.0022	0.0015	-0.0023	16.6	31
0.0007	0.0112	0	-0.0075	16.6	31
-0.0008	0.009	0.0015	-0.006	16.7	31
-0.0053	-0.0046	-0.0015	-0.006	17	31
-0.003	-0.0165	-0.0046	-0.0046	17	31
0.0045	-0.0068	-0.003	0	17	31
0.006	-0.0135	0.0022	0.0037	17.3	31
0	-0.0233	0.003	-0.0023	17.1	31
-0.0023	-0.012	-0.006	-0.0015	17.5	31
0.0045	-0.0218	-0.0143	-0.0015	17.3	31
-0.0053	-0.0315	-0.0098	-0.0053	17.5	31
-0.0181	-0.0135	0.003	-0.0015	17.6	31
-0.012	0.0037	0.012	-0.006	17.8	31
-0.0105	-0.0068	0.0187	-0.0091	18.1	31
-0.012	0.009	0.0187	-0.0105	17.7	31
-0.0091	0.0217	0.0082	-0.012	18.4	31
-0.0113	0.0225	0.0075	-0.0098	18.1	31
-0.0105	0.0015	0.0075	0.0007	18.2	31
-0.0091	-0.0068	0.0067	0.0052	18.4	31
-0.0091	0.0075	0.0045	-0.0083	18.5	31
-0.0075	0.003	0	-0.003	18.8	31
-0.0083	-0.0023	-0.0008	-0.0143	18.9	31
-0.0075	-0.0091	-0.0015	-0.033	18.7	31
-0.0068	0.0232	-0.003	-0.0233	19	31
-0.006	0.0517	-0.0038	-0.0135	18.9	31
-0.0053	0.0352	-0.0008	0.033	18.9	31
-0.0046	0.0045	-0.003	0.084	19.3	31
-0.0023	0.0015	-0.003	0.0742	18.9	31
-0.0023	-0.0046	-0.0015	0.0217	19.2	31
-0.0053	-0.0105	-0.003	-0.0023	19.2	31
-0.0046	-0.0091	-0.0015	0.009	19.3	31
-0.0046	-0.012	-0.0008	0.009	19.5	31
-0.0075	-0.0098	-0.0015	0.0052	19.2	31
-0.0068	-0.012	-0.0105	0.006	19.5	31
-0.006	-0.0075	-0.0248	0.009	19.2	31
-0.0038	-0.006	-0.033	0.012	19.3	31
-0.0015	-0.0038	-0.0278	0.0022	19.4	31
0.0082	0.003	-0.0225	-0.0015	19.2	31
0.0307	0.0157	-0.012	-0.0008	19.1	31
0.0367	0.0232	0.003	-0.006	19.4	31
0.0052	0.0007	0.0172	-0.0165	18.9	31
-0.024	-0.0338	0.0307	-0.0248	19.4	31
-0.0285	-0.0338	0.0315	-0.0218	18.9	31
-0.03	-0.0091	0.027	-0.0158	19	31
-0.0233	-0.0075	0.0292	-0.0135	19	31
-0.0173	-0.0105	0.0352	-0.0083	18.8	31
-0.0135	-0.0105	0.0322	-0.003	18.9	31
-0.0113	-0.012	0.0195	-0.0023	18.6	31
-0.0128	-0.003	0.0097	-0.0015	18.9	31
-0.0091	-0.0008	0.003	-0.0015	18.7	31
-0.0046	-0.0008	-0.0008	0.0007	18.6	31
-0.0046	0.0007	-0.0008	0	18.6	31
-0.0075	-0.0053	-0.0038	-0.0008	18.6	31
-0.003	-0.0053	-0.0008	0	18.4	31
-0.003	-0.0015	-0.0008	-0.0015	18.5	31
-0.0023	0.0022	-0.0091	-0.0015	18.3	31
-0.0023	0.0082	-0.0098	-0.0008	18.2	31
-0.0046	0.009	-0.0098	0.0007	18.4	31
-0.0053	0.0067	-0.0105	0.003	17.8	31
-0.0113	0.0052	-0.0105	0.0037	18.3	31
-0.0143	0.0075	-0.0098	0.0045	17.7	31
-0.0158	0.0082	-0.0091	0.0037	18	31
-0.0135	-0.0008	-0.0091	0.0052	17.8	31
-0.0083	-0.0068	-0.0091	0.0075	17.7	31
0.003	-0.0075	-0.0105	0.0082	17.8	31
0.0172	-0.0038	-0.0075	0.0112	17.7	31
0.0255	0.009	-0.003	0.0112	17.6	31
0.0217	0.0067	0.0007	0.0075	17.6	31
0.0067	-0.0158	0.0015	0.0007	17.4	31
-0.0091	-0.024	0.003	-0.0023	17.1	31
-0.015	-0.0105	0.0052	0.0007	17.6	31
-0.0113	0.0045	0.0045	0.0022	16.9	31
-0.0091	0.0105	0.0022	0.0045	17.3	31
-0.0068	0.0127	-0.0015	0.006	16.9	31
-0.0038	0.012	-0.0068	0.0052	17	31
-0.0038	0.012	-0.012	0.0045	17.1	31
0	0.0082	-0.0083	0.0045	16.6	31
0.006	0.006	-0.0023	0.0045	17	31
0.0082	-0.0083	-0.0038	0.0037	16.5	31
0.0052	-0.0278	-0.003	0.0022	16.9	31
0.0082	-0.0046	-0.0015	0.0022	16.3	31
0.009	0.0157	-0.0023	-0.0008	16.3	31
-0.0015	-0.0015	-0.0053	-0.0008	16.3	31
-0.0023	-0.0068	-0.0015	0.003	16.3	31
-0.0023	-0.003	0.012	0	16.1	31
-0.0083	-0.0015	0.015	-0.003	16.1	31
-0.0046	-0.003	0.0045	-0.0015	16.3	31
0	-0.006	0.0015	-0.0008	15.7	31
0.003	-0.006	0.0015	0.0007	16.1	31
0.0022	-0.0008	0	0.0022	15.7	31
0.0045	0.003	-0.0008	0.0015	16	31
0.0067	0.003	-0.0008	0.0015	15.6	31
0.0045	0.0045	0.0007	0	15.7	31
0.0015	0.003	0.0007	0.0015	15.7	31
0.003	0.003	-0.0023	0.0022	15.6	31
0.0015	0.0007	-0.003	0.0015	15.9	31
0.003	0.0007	-0.0046	0.0015	15.5	31
0.0045	0.0007	-0.0068	0.003	15.6	31
0.006	0.0037	-0.003	0.0052	15.7	31
0.0052	0.0067	-0.0008	0.0045	15.8	31
0.0052	0.0045	-0.0008	0.003	15.7	31
0.0052	0.003	-0.0008	0.003	15.7	31
0.0022	0.0075	0	0.0015	15.6	31
0.0015	0.009	0.0015	0.0022	15.8	31
0	0.0045	0.0015	0.0052	15.7	31
-0.0023	0.0015	0.0007	0.0022	15.6	31
-0.0038	0.0015	0.0015	0.0007	16	31
-0.003	0.0007	0.0015	0.003	15.7	31
-0.0023	0.0007	0	0.0015	16.1	31
-0.0008	0.003	-0.0015	0.003	15.6	31
0.0045	0.006	-0.0015	0.0045	16.2	31
0.0075	0.0075	-0.0015	0.0045	15.7	31
0.0052	0.0037	0.0007	0.0022	16	31
0.0052	0.0045	-0.0008	-0.0053	16	31
0.0052	-0.0015	-0.0015	-0.0105	15.7	31
0.0022	-0.0181	-0.0008	-0.0105	16	31
0.009	-0.015	-0.0046	-0.0091	16.1	31
0.0075	-0.003	-0.0091	-0.0068	15.8	31
0.0015	-0.006	-0.0165	-0.0046	15.9	31
-0.0008	-0.0008	-0.0308	0	16.2	31
0.0007	0.003	-0.0308	0.003	15.9	31
0.0045	0.0067	-0.012	0.003	16.2	31
0.006	0.009	0.0067	0.0037	15.9	31
0.0052	0.0015	0.0292	0.003	16.2	31
0.0037	0.003	0.0397	0.0007	16.1	31
0.0075	0.0142	0.0352	-0.0015	16	31
0.0075	0.0052	0.0337	-0.003	16.3	31
0.003	-0.0083	0.0202	-0.0046	15.9	31
-0.0098	-0.0053	0.009	-0.0038	16.3	31
-0.0165	-0.0218	0.0157	-0.003	16.1	31
-0.0083	-0.0293	0.0157	-0.003	16.2	31
-0.006	-0.0165	0.0105	0.0015	16.2	31
-0.0015	-0.0158	0.0007	0.0045	16.2	31
0.0007	-0.0256	-0.0068	0.0037	16	31
0.0015	-0.0113	-0.0075	0.0052	16.4	31
0.0015	0.0015	-0.0083	0.0052	15.9	31
0	-0.003	-0.006	0.0052	16.5	31
0	0.0022	-0.0053	0.0067	16	31
-0.0015	-0.0015	-0.006	0.0037	16.1	31
0.003	0.0007	-0.0053	0.0052	16	31
0.006	0.0007	-0.0053	0.006	15.9	31
0.006	0.0007	-0.0046	0.0045	16.2	31
0.006	0.0037	-0.0046	0.003	15.8	31
0.0037	0.003	-0.003	-0.0008	16	31
0.003	0.003	-0.0023	0.0007	15.7	31
0.0075	0.0015	-0.0023	0.0007	15.8	31
0.0097	0.0037	-0.0038	0.0022	15.7	31
0.0067	0.0015	-0.0046	0.003	15.7	31
-0.0008	0.003	-0.003	0.003	15.6	31
-0.0068	0.0022	-0.0053	0.0037	16	31
-0.0068	0.0037	-0.003	0.003	15.6	31
-0.0068	0.003	-0.0015	0.0045	15.7	31
-0.0046	-0.0008	-0.0008	0.0045	15.7	31
0.0015	-0.0015	0	0.0022	15.4	31
0.0067	-0.0038	0	0.0022	15.7	31
0.0067	0	0	0.0015	15.3	31
0.003	0.0007	-0.0015	0.0037	15.7	31
0.0007	0.0022	-0.003	0.003	15.2	31
-0.0015	0.0015	-0.0015	0.0015	15.5	31
-0.0008	0.0015	0.0007	0.0015	15.1	31
0.0007	0.0022	0.0015	0.003	15.3	31
0	0.0007	0	0.0045	15.3	31
-0.0015	0.0037	-0.0015	0.003	15.4	31
-0.003	0.003	0	0.0015	15.2	31
-0.0008	0.0015	0.0007	0.0007	15.3	31
-0.0008	0.003	0.0015	-0.0008	15.3	31
0	0.003	0.0037	-0.0015	15	31
0.0007	0.0037	0.0037	0	15.3	31
-0.0008	0.0045	0.0015	0.003	14.8	31
-0.003	0.003	0.0007	0.0045	15.3	31
-0.0046	0.0015	0.0022	0.0052	14.8	31
-0.0053	-0.0008	0.0015	0.0052	15.1	31
-0.0068	0	0	0.0045	14.9	31
-0.0038	0.0015	0.0007	0.0037	14.9	31
-0.0008	0	0	-0.003	14.8	31
-0.0008	-0.0008	-0.0015	-0.0105	14.5	31
-0.003	0.0022	-0.0015	-0.0083	14.8	31
-0.0046	-0.0015	-0.003	-0.0015	14.6	31
-0.0038	-0.0068	-0.0038	0.0052	14.5	31
-0.003	-0.0105	-0.0015	0.0112	14.6	31
-0.003	-0.006	0	0.0015	14.6	31
-0.0015	0.0067	0.0007	-0.0053	14.4	31
0.0015	0.0052	0.0007	0.003	14.5	31
0.0015	0.0015	0.0015	-0.0015	14.2	31
0.0007	0.003	0.0045	-0.0008	14.2	31
-0.0015	0.0052	0.003	0.0015	14.2	31
-0.003	0.0045	0	-0.0015	14.1	31
-0.0015	0.0007	0	0.0022	14.2	31
-0.0008	0.0015	-0.0008	0.0015	13.9	31
-0.0008	-0.0008	-0.0008	0.0022	14.2	31
-0.0008	0.0007	-0.0008	0	13.6	31
-0.0015	-0.0008	-0.0008	0.0007	14	31
0	-0.0023	0	0.0007	13.8	31
-0.0015	-0.0015	-0.0008	0.0007	13.7	31
-0.003	-0.0046	0	0.0022	13.7	31
-0.0015	-0.0046	0.0007	0.0007	13.5	31
-0.0015	-0.0038	-0.0008	0.0015	13.3	31
-0.0015	-0.0015	0	0.0022	13.7	31
-0.0008	-0.0008	-0.0008	0.0015	13.2	31
-0.003	0.0015	-0.0015	0.0007	13.4	31
-0.0068	-0.0015	-0.0015	0.0007	13.4	31
-0.0046	-0.0046	0	0.0022	13.1	31
0.0015	-0.0038	0.0015	0.0022	13.4	31
0.0007	-0.0046	0.0015	0.0037	13	31
0	-0.003	-0.0008	0.0037	13.2	31
0.0037	-0.0053	-0.0023	0.0045	13	31
0.0045	-0.0046	-0.0015	0.003	13	31
0.0015	0.0015	-0.0008	0.0045	13	31
0.0007	0.0022	-0.0015	0.0052	12.6	31
-0.0008	-0.0008	-0.0008	0.0045	12.9	31
-0.0023	-0.003	-0.0015	0.006	12.6	31
-0.003	-0.0046	-0.0008	0.0045	12.6	31
-0.0008	-0.0046	-0.0008	0.0037	12.5	31
0.0015	-0.003	0.0007	0.0037	12.7	31
0.0037	-0.003	0.0007	0.003	12.2	31
0.0037	-0.0015	0	0.0045	12.6	31
0.0007	-0.0015	-0.0008	0.0045	12	31
0.0007	-0.0038	-0.0015	0.003	12.4	31
0.003	-0.003	-0.0015	0.0007	12.1	31
0.0045	-0.0008	-0.0008	0.0007	12.1	31
0.003	-0.0015	0.0015	0.0007	12.2	31
0.0052	-0.0008	0.0015	0.0007	12	31
0.0067	0.0007	-0.0015	0.0015	12.1	31
0.0067	0.0015	-0.0023	0.0007	11.7	31
0.006	0.003	0	0.0015	11.7	31
0.0022	0.0022	0.0015	0.0015	11.7	31
0	0.0015	0.0007	-0.0008	11.7	31
0	0	0.0007	0.0007	11.6	31
-0.0015	-0.0008	0.0015	0.0007	11.7	31
-0.0023	-0.0008	-0.0008	0	11.5	31
-0.0015	0.0007	-0.0008	-0.0015	11.4	31
0	-0.0008	0.0015	-0.0008	11.4	31
0.003	-0.0015	0.0022	0.0015	11.2	31
0.0052	-0.0008	0.0007	-0.0008	11.4	31
0.0045	0.0015	0.0015	-0.0015	10.8	31
0.0022	0.0007	-0.0015	0	11.3	31
0.0022	0.0007	-0.0046	0	10.9	31
0.003	0.0022	-0.003	-0.0015	11	31
0.0022	0.0015	-0.0008	-0.0015	11	31
0.0015	0.003	0.0007	0.0007	10.7	31
0.0007	0.0022	0.0037	0.0015	10.8	31
0	0.0007	0.0045	0.0015	10.8	31
0.0007	-0.0015	0.0015	0.0015	10.5	31
0.0022	-0.0046	0.0015	0.0015	10.7	31
0.0015	-0.003	0.0007	0.0015	10.7	31
0.0015	-0.003	-0.0015	0.0007	10.2	31
0.0007	-0.003	-0.0015	-0.0008	10.5	31
0.0015	-0.0015	0	0	10.3	31
0.0007	0.0007	0	-0.0008	10.3	31
0	-0.0015	-0.0008	0.0007	10.4	31
-0.0008	-0.0015	-0.0015	0.0022	9.9	31
-0.0023	-0.0008	-0.0015	0.0022	10.3	31
-0.003	-0.0008	-0.0008	0.0022	9.8	31
-0.0046	0.0015	0.0007	0.0007	10.3	31
-0.0015	0.0022	0.0015	0	9.6	31
0	0.0022	-0.0015	0	10	31
-0.0008	0.003	-0.0015	0.0007	9.8	31
0.0007	0.003	0.0015	0.003	9.7	31
-0.0008	0.003	0.003	0.003	9.6	31
-0.0008	0.0015	0.003	0.0045	9.4	31
0.0007	-0.0008	0.0022	0.0037	9.4	31
0.0007	-0.0015	0.003	0.0037	9.2	31
-0.0008	-0.0008	0.0007	0.0037	9.4	31
-0.0015	0	-0.0008	0.0037	9	31
-0.0023	0.0007	-0.0015	0.0052	9.4	31
-0.0015	0	-0.0008	0.0045	8.9	31
0.0007	-0.0023	0.0015	0.0052	9.2	31
0.0007	-0.0023	0.0022	0.0045	8.9	31
0.0007	-0.0023	0.0015	0.0007	8.9	31
0	-0.003	0.0007	-0.0015	8.8	31
0.0007	-0.003	0.0007	-0.0008	8.5	31
-0.0008	0	0	0.0007	8.9	31
-0.0008	0.0015	0	0.0007	8.4	31
-0.0008	-0.0015	0.0015	0.0007	8.6	31
0.0007	0	0.0015	0.003	8.5	31
-0.0008	0.0015	0.003	0.0052	8.5	31
-0.0008	-0.0008	0.0022	0.0067	8.2	31
-0.0015	-0.0015	-0.0008	0.003	8.4	31
-0.0046	-0.003	0	0.0007	8.2	31
-0.003	-0.0038	0.0015	0.0037	8.2	31
-0.0046	-0.0023	-0.0008	0.003	8.2	31
-0.0023	-0.0023	-0.0008	0.0037	7.9	31
0.0007	0	0.0007	0.0022	8.1	31
0.0007	0.0007	0.0015	-0.0008	7.6	31
0.0015	-0.0008	0.0007	-0.0015	8.1	31
-0.0008	-0.0015	0	-0.0038	7.6	31
-0.0015	-0.0008	-0.0008	-0.003	7.9	31
0	0.0015	-0.0008	0.0015	7.6	31
-0.0008	0.0007	-0.0008	0.0052	7.5	31
-0.0015	-0.0015	-0.0008	0.0082	7.8	31
-0.0008	-0.0046	0.0007	0.0105	7.7	31
0.0007	-0.003	0.0015	0.0105	7.6	31
0.003	-0.0015	0	0.006	7.6	31
0.0037	-0.003	-0.0015	0.0015	7.6	31
0.0015	-0.0008	-0.003	0.0015	7.4	31
0.0007	-0.0023	-0.0015	-0.0023	7.6	31
-0.0008	-0.0053	-0.0038	-0.012	7.2	31
0.0007	-0.0046	-0.0053	-0.0135	7.5	31
-0.0008	-0.0008	-0.0046	-0.0046	7.3	31
0	0.0007	-0.0023	0.0022	7.2	31
0.0007	0	-0.0008	-0.0015	7.3	31
-0.0008	0.0007	-0.0015	-0.0008	7	31
-0.0015	-0.0008	0	0.0022	7.3	31
0	-0.0008	-0.0008	0.0007	7	31
0.0015	-0.0008	-0.0038	0.0015	7.2	31
0	-0.0008	-0.003	0.0022	7.1	31
0.0015	-0.0015	-0.003	0.0015	7	31
0.0015	-0.0023	-0.0008	0.0015	6.9	31
0.0007	-0.0015	-0.0008	0.0015	7	31
0	-0.003	-0.0008	-0.0008	6.7	31
-0.0008	-0.0038	-0.0015	-0.0053	6.9	31
-0.0008	-0.003	-0.0046	-0.0105	6.8	31
-0.0008	-0.0023	-0.0015	-0.0113	6.7	31
-0.0008	-0.003	0	-0.0113	6.8	31
-0.0008	-0.0015	0.0007	-0.0105	6.6	31
-0.0008	-0.003	-0.0008	-0.0083	6.7	31
-0.0008	-0.0023	-0.0015	-0.0068	6.5	31
-0.0008	0	-0.0008	-0.003	6.5	31
0.0007	-0.0015	0.0015	-0.0008	6.6	31
-0.0015	-0.003	0.0037	0.0007	6.5	31
-0.0015	-0.003	0.0015	0.0045	6.5	31
-0.0023	-0.003	0.0015	0.0045	6.4	31
-0.0015	-0.0015	0.003	0.0022	6.5	31
0	-0.0008	0.003	0.0045	6.3	31
-0.0008	0	0.0052	0.0045	6.5	31
0.0007	0.0015	0.006	0.003	5.9	31
0.0015	0.0007	0.0052	0.0045	6.3	31
0.0022	0.0015	0.003	0.0052	6.1	31
0.0037	0.0007	0.0007	0.006	6.2	31
0.0015	0.0007	0.0015	0.006	6.1	31
0.0022	0.0007	0.003	0.0067	6.1	31
0.0037	0	0.0007	0.006	6	31
0.0045	-0.0008	-0.0008	0.0067	5.7	31
0.0045	0.0007	-0.0008	0.006	6.1	31
0.0037	0.003	-0.0015	0.0052	5.7	31
0.0022	0.0015	-0.0015	0.0052	5.8	31
0.0015	0.0015	-0.0015	0.0037	5.9	31
0.0007	0.0015	-0.0038	0.0052	5.7	31
-0.0015	0.0007	-0.0038	0.0022	5.7	31
-0.0023	0.0007	-0.0015	0.0007	5.7	31
-0.0008	0.0007	0	0.003	5.8	31
-0.0008	0.0015	0	0.0015	5.6	31
-0.0015	0	-0.0008	-0.0038	5.8	31
-0.0015	-0.0046	0.0007	0	5.4	31
-0.0008	-0.0015	0	0.0142	5.8	31
-0.0015	-0.003	-0.0008	0.0157	5.3	31
-0.0015	-0.0068	-0.0015	0.0067	5.6	31
-0.0015	-0.0053	-0.0015	0.0045	5.3	31
-0.0008	-0.0068	-0.0015	0.0007	5.4	31
0.0007	-0.006	-0.0008	0.0022	5.8	31
-0.0015	-0.006	0.0007	0.0022	5.2	31
-0.0008	-0.0083	0.0007	0.0007	5.5	31
0.0007	-0.0098	0	0.0007	5.3	31
0.0015	-0.0113	0.0007	-0.0015	5.3	31
0.0037	-0.0091	-0.0008	0.0007	5.4	31
0.0022	-0.0075	-0.0008	0.0007	5.3	31
0.0007	-0.0053	0.0022	0.0007	5.1	31
0.0015	-0.0023	0.0045	0	5.3	31
0.0007	-0.0008	0.0045	0.0007	5.3	31
0.0007	0.0007	0.0045	0.0015	5.3	31
0.0015	0.0015	0.0045	0.0007	5.4	31
0.0015	0.0045	0.003	0	5.2	31
0	0.0067	0	-0.0015	5.5	31
-0.0008	0.0052	-0.0008	-0.0008	5	31
-0.0008	0.0067	-0.0008	0.0015	5.4	31
-0.0023	0.009	0.0007	0.0045	5.2	31
-0.0015	0.009	0.0022	0.0045	5.5	31
0	0.0067	0.0022	0.003	5.2	31
0.0007	0.0067	0.0022	0.006	5.3	31
-0.0008	0.0082	0.0037	0.009	5.3	31
0	0.0037	0.0022	0.0045	5.3	31
-0.0015	-0.0008	-0.0008	-0.0008	5.1	31
-0.0023	-0.0015	-0.0015	0	5.1	31
-0.003	0	-0.003	0.0015	5.5	31
-0.003	-0.0008	-0.0008	0.0007	5.1	31
-0.0038	-0.0015	0.003	0.0007	5.6	31
-0.003	0	0.0022	0.0007	5.3	31
-0.0015	-0.0008	0.0022	0.0007	5.4	31
-0.0015	-0.003	0.003	-0.003	5.4	31
-0.0008	-0.003	0.003	-0.0046	5.4	31
0	-0.0053	0.0007	-0.0015	5.7	31
0.0007	-0.0053	0.0007	0	5.3	31
0.0007	-0.006	0.0015	0.0007	5.6	31
0	-0.0046	-0.0008	-0.0008	5.3	31
0	-0.0046	-0.0015	-0.0008	5.5	31
0	-0.0015	-0.0008	0.0015	5.6	31
-0.0008	0.0007	0	0.0022	5.6	31
0	0.0015	0.0007	0.0022	5.4	31
0.0015	0.0022	0.0015	0.0015	5.6	31
-0.0008	0	-0.0015	0.0015	5.7	31
0.0015	0.0015	0.0007	0.0007	5.4	31
0.003	-0.0008	0	0.0015	5.8	31
0.0007	-0.0015	-0.0008	0.0015	5.5	31
0.0007	-0.0008	0.0007	0.003	5.9	31
0.0015	-0.0015	-0.003	0.0075	5.6	31
0.0015	0	-0.003	0.012	5.9	31
0.0007	-0.0015	-0.0023	0.0142	5.8	31
-0.0008	-0.0023	-0.003	0.0075	6.1	31
-0.0008	-0.0015	-0.003	0.0052	5.9	31
0	0	-0.0038	0.0067	6	31
-0.0008	0.0007	-0.003	0.0052	5.9	31
0	0.003	0	0.0052	6.2	31
0.0007	0.003	0	0.003	6.3	31
0.0015	0.0037	-0.0015	0.0007	6.3	31
0.0007	0.003	0	0.0007	6.5	31
0.0007	0.003	0	0.003	6.3	31
0.0007	0.0037	0.0007	0.0022	6.7	31
0.0007	0.003	0	0.0015	6.4	31
0.0015	0.0037	-0.0015	0	6.7	31
0.0007	0.003	-0.0008	-0.0008	6.7	31
0.0015	0.0015	-0.0015	-0.003	6.7	31
0.0015	0.0007	-0.0015	-0.0053	7	31
-0.0008	0.0007	-0.0008	-0.0046	6.8	31
-0.0008	0	-0.0008	-0.003	7.3	31
0	-0.0008	-0.0015	0.0015	6.9	31
-0.0015	-0.0015	-0.0015	0.003	7.5	31
-0.0015	-0.003	0.0007	0.0045	7.3	31
-0.0008	-0.0038	0	0.0015	7.6	31
-0.0015	-0.003	0	-0.0008	7.6	31
0	-0.0015	0	-0.003	7.8	31
-0.0015	-0.0008	0.0015	-0.0038	7.5	31
-0.0023	0.0007	0.0015	0.0007	8.1	31
-0.003	-0.0008	0	0.0015	7.8	31
-0.0015	-0.0008	0	0	8.2	31
0.0007	0.0007	0.0015	-0.003	8.2	31
-0.0008	-0.0023	0.0007	-0.006	8.3	31
0	-0.0053	-0.0008	-0.0091	8.5	31
-0.0008	-0.0038	0.0007	-0.0098	8.4	31
-0.0008	-0.003	0	-0.003	8.8	31
0.0007	0	-0.0008	0.0075	8.5	31
-0.0008	0	-0.0008	0.0135	8.8	31
-0.0023	-0.0023	-0.0023	0.0045	9	31
-0.0008	-0.003	-0.0046	-0.0008	9	31
0.0007	-0.0008	-0.003	0.009	9.2	31
0	0	-0.0008	0.0045	9.2	31
0	-0.0008	0.0007	0.0022	9.3	31
0.0007	0.0015	0.0022	0.003	9.4	31
0.0015	0.0007	0.0015	-0.0008	9.8	31
0.0007	0	0.0007	0.0015	9.5	31
-0.0008	-0.0008	0.0015	-0.0008	10.1	31
0.0015	0	0.0007	0	9.7	31
0.0007	-0.0015	-0.0008	0.003	10.3	31
0	-0.003	0	0.0045	9.9	31
0.0015	-0.0046	-0.0008	0.0007	10.4	31
0.0007	-0.0053	0	-0.003	10.3	31
0.0015	-0.0046	0.0007	-0.0038	10.4	31
0.0007	-0.0053	0.0007	-0.0083	10.7	31
0.0007	-0.0053	0.0007	-0.0098	10.5	31
0.0022	-0.003	-0.0023	-0.0105	10.7	31
0.0022	-0.003	-0.0008	-0.0068	10.9	31
0.0022	-0.0023	0.0037	-0.0008	11	31
0.0015	-0.0023	0.003	-0.0008	11	31
0	-0.0023	0.0015	0.012	11.4	31
-0.0008	-0.0015	0.0015	0.0202	11.2	31
-0.0023	-0.006	-0.0015	0.006	11.7	31
-0.0015	-0.0083	-0.0023	0.0082	11.5	31
-0.0023	-0.0128	-0.0015	0.0165	11.8	31
-0.0008	-0.0173	0	0.012	11.8	31
0.0037	-0.0098	0.0015	0.009	11.9	31
0.0052	-0.0046	-0.0015	0.0067	12.3	31
0.0022	0.0007	-0.003	0.0052	11.9	31
-0.0015	0.0045	-0.0015	0.003	12.7	31
-0.0015	-0.0008	-0.0008	-0.0008	12.5	31
-0.0008	-0.003	-0.0015	-0.0038	12.8	31
-0.0008	-0.0015	-0.0015	-0.0015	13	31
-0.0015	0.0007	0.0007	-0.0008	13	31
-0.0008	0.0015	0.0015	0	13	31
0.0007	0.0007	0.0015	0.0007	13.4	31
0.0007	0.0007	0.0007	-0.0015	13.5	31
-0.0008	0.0015	0.0007	-0.0015	13.5	31
-0.0008	0.0037	0.0007	0.0015	14	31
-0.0008	0.0037	0.0015	0.0045	13.8	31
-0.0015	0.0045	0.003	0.009	14.4	31
-0.0008	0.0052	0	0.009	14	31
-0.0008	0.0067	0	0.0067	14.5	31
-0.0008	0.0052	0	0.0045	14.7	31
-0.0008	0.003	-0.0008	0.0022	14.8	31
-0.0015	0.0052	0.0007	0.003	15.1	31
-0.0015	0.0045	0.0015	-0.003	15.1	31
-0.0008	0.003	-0.0008	-0.006	15.5	31
-0.0008	0.0045	0.0007	-0.0053	15.5	31
-0.0015	0.0045	0.0022	-0.0023	15.7	31
-0.0008	0.003	0.0015	0.003	16	31
-0.0023	-0.0015	0.0022	-0.0008	16.2	31
-0.0008	0.0007	0.0007	-0.0038	16.3	31
-0.0008	0.0015	0	-0.0046	16.6	31
-0.0008	-0.003	-0.0008	-0.0083	16.6	31
0.0007	-0.0008	-0.0015	-0.006	16.9	31
-0.0008	0.003	0.0007	-0.0038	17.3	31
0.0015	0.012	0.0007	0.0127	17.1	31
0.0007	0.0082	0.0007	0.0157	17.7	31
-0.0023	-0.0046	0.0007	-0.0091	17.5	31
-0.0015	0.0067	0.0007	-0.012	18.2	31
0	0.0165	0.0007	-0.0113	18	31
0.0007	0.0127	-0.0015	-0.0105	18.4	31
-0.0008	0.0105	-0.0008	-0.0083	18.6	31
-0.0015	0.0105	0	-0.0015	18.8	31
-0.0023	0.003	-0.003	0.0067	18.9	31
0	-0.0023	-0.003	0.0142	19.2	31
0.0015	-0.0053	-0.0008	0.0292	19.3	31
0.0022	-0.0105	-0.0015	0.0195	19.5	31
0.0015	-0.0128	-0.0023	0.0097	19.9	31
0.0015	-0.0181	-0.0008	0.0067	19.9	31
0.0022	0.0007	0	0.006	20.3	31
0.0022	0.0285	-0.0008	-0.0008	20.5	31
0.0022	0.0052	0	-0.006	20.9	31
0.0037	-0.0158	0.0015	-0.0015	21.1	31
0.0045	-0.0075	0.0022	0.0007	21.1	31
0.0007	-0.0165	0.0045	0.0045	21.8	31
-0.0008	-0.0165	0.006	0.0007	21.6	31
-0.0023	-0.0165	0.0052	-0.0015	22.4	31
-0.0046	-0.0165	0.003	-0.0091	22.2	31
-0.0023	-0.0105	-0.0008	-0.0218	22.6	31
-0.0015	-0.0075	-0.003	-0.0218	22.9	31
-0.0008	-0.006	-0.0046	-0.0256	22.9	31
-0.0008	-0.006	-0.0046	-0.0278	23	31
-0.0008	0.0022	-0.003	0	23.9	31
0.0007	0.0022	-0.0008	0.033	23.7	31
0.003	-0.003	-0.0015	0.0225	24.2	31
0.0015	-0.0068	-0.003	0.0172	24.4	31
0.0022	0	-0.0008	0.024	24.6	31
0.0037	0.0015	0	0.012	25.2	31
0.0015	0.0007	0	0.0067	25.2	31
-0.0008	0.0007	-0.0015	0.0075	25.7	31
-0.0008	-0.0008	0	0.0097	25.8	31
0	0.0022	0.0007	0.0052	26.1	31
0	0.0007	-0.0015	-0.0038	26.4	31
0	0.0015	-0.0008	-0.0046	26.7	31
0	0.0015	0.0007	-0.006	27	31
0	-0.0008	0.0015	-0.003	27.3	31
0.0015	-0.0008	0.0022	0.0045	27.9	31
0.0015	-0.0023	0.003	0.0052	27.7	31
0.0022	-0.003	0.003	0.0045	28.6	31
0.003	-0.0008	0.003	0.0007	28.3	31
0.003	0	0.0022	0.006	29.1	31
0.0015	-0.0008	0.0022	0.0127	29.1	31
0.0015	-0.0015	0.0052	0.0052	29.6	31
0.0022	-0.0046	0.0082	0.0082	29.9	31
0.0022	-0.0053	0.0075	0.0105	30.1	31
0.0007	-0.0068	0.003	0.0097	30.6	31
-0.0015	-0.0068	0.0022	0.0165	30.7	31
-0.0008	-0.006	0.0015	0.012	31.2	31
0.0007	-0.003	0.0007	0.0105	31.4	31
0	0	0.0015	0.0075	31.7	31
0	-0.0008	0.0015	0.0007	32.1	31
-0.0008	-0.0008	0.0015	0.0022	32.5	31
-0.0023	-0.0008	0.0007	0.0007	32.8	31
-0.0023	-0.0008	-0.0008	-0.0046	33.2	31
-0.0015	0.0015	-0.0015	-0.0053	33.6	31
-0.0015	0.0022	-0.0023	0.0022	33.8	31
-0.003	0.003	-0.0023	0.0015	34.5	31
-0.0038	0.0045	-0.0038	-0.0068	34.5	31
-0.0038	0.0052	-0.0038	-0.0046	35.1	31
-0.0038	0.0037	-0.0038	-0.0046	35.1	31
-0.003	0.0015	-0.003	-0.0068	36.2	31
-0.0023	0.0015	-0.0023	-0.0053	36.2	31
-0.0015	0.0007	-0.003	-0.0015	36.7	31
-0.0015	0	-0.0038	-0.0023	37.1	31
-0.0023	0.003	-0.0046	-0.0053	37.3	31
-0.003	0.0037	-0.0038	-0.0053	37.7	31
-0.003	0.0052	-0.0015	-0.0091	38.1	31
-0.0015	0.0037	-0.0015	-0.0083	38.4	31
-0.0008	0.0045	0	-0.0046	38.9	31
-0.0008	0.0082	-0.003	0.0022	39.5	31
-0.0015	0.0067	-0.0038	0.003	39.6	31
-0.0015	0.0045	-0.0046	0.0015	40.1	31
-0.0015	0.003	-0.0015	0.0075	40.4	31
-0.0015	0.0045	-0.0015	0.0037	40.8	31
-0.0008	0.0067	-0.0015	0.006	41.4	31
-0.0015	0.0052	0	0.0045	41.3	31
0	0.0045	-0.0015	0.0022	42.1	31
0.0007	0.0022	0.0007	0.0037	42.1	31
-0.0008	-0.0008	-0.0008	0.0045	42.9	31
0.0007	-0.003	-0.0015	0.0045	43.1	31
0	-0.0023	-0.0015	-0.0015	43.6	31
0.0007	-0.0008	-0.0015	-0.003	43.8	31
0	0.003	-0.0015	-0.0023	44.1	31
0.0007	0.006	-0.0015	-0.0046	44.6	31
0.0022	0.0112	-0.0015	-0.0038	44.9	31
0.0015	0.0142	-0.003	-0.0023	45.2	31
0.003	0.0165	-0.003	-0.0023	45.2	31
0.003	0.0157	-0.003	-0.003	45.9	31
0.0022	0.0172	-0.0038	-0.003	45.8	31
0.0022	0.018	-0.006	-0.0038	46.5	31
0.0037	0.0172	-0.006	-0.0008	46.3	31
0.003	0.0195	-0.0068	0.0007	46.9	31
0.003	0.0225	-0.0075	0.0015	47	31
0.003	0.0225	-0.0068	0.003	47.3	31
0.0015	0.0202	-0.0046	0.0037	47.6	31
0.0007	0.018	-0.003	0.0022	47.5	31
-0.0008	0.0127	-0.003	-0.0008	48.2	31
0	0.0105	-0.0038	-0.0015	48.2	31
0	0.0082	-0.0023	-0.0008	48.4	31
0.0007	0.0037	-0.0008	0.0015	48.5	31
0	0.0007	-0.0023	0.0015	48.7	31
0.0007	-0.0008	-0.0023	0.003	48.8	31
-0.0008	-0.003	-0.0015	0.0022	49.2	31
-0.003	-0.0038	0.0007	0.003	49.4	31
-0.0023	-0.0038	0.0015	0.0015	49.2	31
-0.0038	-0.0038	-0.0015	0.0015	49.6	31
-0.003	-0.003	-0.0015	0.0082	49.5	31
-0.0008	-0.0038	0	0.0045	50	31
0.0007	-0.0008	-0.0008	0.0015	49.8	31
0.0007	0.0007	-0.0008	0.0007	50.2	31
-0.0015	0.0007	-0.0008	-0.0008	50.1	31
-0.0008	0.003	-0.0008	-0.0008	50.4	31
0.0007	0.0022	-0.0008	-0.006	50.5	31
0.003	-0.0008	0.0007	-0.003	50.6	31
0.0045	-0.0038	0.0007	0.0067	50.6	31
0.003	-0.0046	0.0007	0.0127	50.7	31
0.0022	-0.0083	0.0015	0.0195	50.9	31
0.0022	-0.0105	0.003	0.0217	50.8	31
0.003	-0.012	0.006	0.018	51	31
0.0045	-0.0143	0.0067	0.0165	50.6	31
0.0022	-0.0143	0.009	0.0075	51.1	31
0.003	-0.015	0.0105	0.0052	50.8	31
0.0022	-0.0143	0.0112	0.0052	51	31
0.003	-0.0165	0.0127	0.009	51.2	31
0.0037	-0.0158	0.0105	0.012	51.1	31
0.0007	-0.0143	0.0082	0.0052	51.3	31
0.0015	-0.0143	0.0067	0.003	51.1	31
-0.0015	-0.0143	0.0067	-0.0015	51.6	31
-0.0038	-0.0098	0.009	-0.0038	51.3	31
-0.003	-0.0091	0.009	-0.0038	51.6	31
-0.003	-0.0091	0.0082	-0.0015	51.6	31
-0.003	-0.0083	0.009	0.0007	51.8	31
-0.0015	-0.0083	0.0075	0.0015	51.9	31
-0.0008	-0.0105	0.0052	-0.003	52.1	31
-0.0008	-0.0113	0.0045	-0.0068	51.8	31
-0.0015	-0.0053	0.0022	-0.0046	52.2	31
-0.0008	-0.0023	0.0007	-0.006	52.3	31
0.0007	-0.0023	-0.0008	-0.0053	52.3	31
0.0007	-0.0015	-0.0008	-0.0083	52.7	31
0	-0.0038	-0.0015	-0.0091	52.6	31
0.0007	-0.0023	-0.003	-0.0083	53	31
0	-0.0015	-0.0023	-0.0105	53	31
-0.0008	0.0022	-0.003	-0.0053	53.1	31
0.0015	0.0045	-0.0046	0.0037	53.5	31
0.0015	0.0007	-0.0053	0.0045	53.2	31
-0.0008	-0.0008	-0.0068	0.003	53.8	31
-0.0015	-0.0046	-0.006	0.0015	53.9	31
-0.0015	-0.0046	-0.0068	-0.003	54.1	31
-0.0008	-0.0038	-0.0068	-0.0015	54.2	31
-0.0008	-0.0038	-0.0075	0.0015	54.7	31
-0.0015	-0.006	-0.0046	0.0037	54.4	31
0	-0.0098	-0.0023	0.0045	55	31
0.0045	-0.0128	-0.0015	-0.0008	54.9	31
0.003	-0.0143	-0.0046	-0.0053	55.4	31
0.0007	-0.0143	-0.0046	-0.0068	55.3	31
0.0015	-0.0165	-0.0038	-0.0053	55.6	31
0.0007	-0.0181	-0.0053	-0.0053	56.1	31
0.0015	-0.015	-0.0068	-0.0015	55.9	31
0.0007	-0.0128	-0.0075	0.0052	56.2	31
-0.0008	-0.012	-0.0083	0.006	56.4	31
-0.0008	-0.0091	-0.0068	-0.003	56.6	31
0.0007	-0.0075	-0.0053	-0.003	56.8	31
-0.0008	-0.0083	-0.0038	0.003	57	31
0.0007	-0.0068	-0.0015	0.0015	57.3	31
0.0015	-0.0053	-0.0008	0.0067	57.6	31
0.0007	-0.0046	0.0007	0.0082	57.6	31
0.0007	-0.006	0.0015	0.0045	57.5	31
0	-0.006	0.0007	0.006	58.1	31
-0.0008	-0.006	0.0015	0.012	58	31
0.0015	-0.0075	0.0007	0.003	58.5	31
0.0015	-0.0046	0.0022	-0.0015	58.3	31
-0.0008	-0.0015	0.0045	0.0052	58.9	31
0	0.0015	0.0037	0.0052	58.9	31
0.0007	0.0045	0.0045	0.009	59.1	31
0.003	0.0045	0.0037	0.0067	59.4	31
0.003	0.003	0.0067	0.0067	59.4	31
0.0015	0.0007	0.0067	0.009	59.8	31
0.0015	-0.0046	0.0052	0.0015	59.7	31
0.0007	-0.0046	0.006	-0.0008	60	31
0.0015	-0.0015	0.0045	0.0007	60.1	31
-0.0008	-0.0023	0.0045	-0.0008	60.4	31
-0.003	-0.003	0.0037	0.0007	60.3	31
-0.0015	-0.003	0.0045	-0.0023	61.1	31
0	-0.0008	0.006	0.0007	60.6	31
0	0.003	0.0052	0.0022	61.1	31
-0.0015	0.003	0.006	0.003	61.1	31
-0.0015	0.0045	0.0067	0.0052	61.1	31
-0.0023	0.0045	0.0067	0.003	61.6	31
-0.003	0.0045	0.0067	0.003	61.1	31
-0.003	0.0045	0.0067	0.0007	62	31
-0.0038	0.0045	0.0075	0.0022	61.6	31
-0.0046	0.0037	0.0045	0.003	62.2	31
-0.0038	0.0022	0.0007	0.0007	62.2	31
-0.003	0.0015	0	0.0007	62.4	31
-0.0023	0.003	0	0.0022	62.4	31
-0.0015	0.0037	0.0015	0.0015	62.4	31
0.0007	0.0045	0.0015	0.0007	62.7	31
0.0015	0.0045	0.0022	0.003	62.7	31
0.0022	0.0015	0	0.0015	63.1	31
0.003	0.0015	0.0007	0.0037	63	31
0.0007	0.003	0.0007	0.006	63.6	31
0.003	0.0052	0.0015	0.0052	63.3	31
0.003	0.009	0.0037	0.0052	63.7	31
0.0015	0.0097	0.0052	0.0067	63.8	31
0.003	0.0082	0.0052	0.0045	63.9	31
0.0015	0.0067	0.003	0.0045	64.2	31
-0.0008	0.0052	0.0037	0.003	64	31
-0.0015	0.006	0.0007	0.0015	64.6	31
-0.003	0.003	-0.0008	0.0015	64.3	31
-0.003	-0.0015	-0.0015	-0.0008	64.7	31
-0.0015	-0.0046	-0.0046	-0.0015	64.8	31
-0.003	-0.0068	-0.0075	-0.0015	65	31
-0.0015	-0.0083	-0.0091	-0.003	65	31
0.0007	-0.0068	-0.0068	-0.003	65.2	31
0.0007	-0.0053	-0.0068	-0.0023	65.2	31
-0.0008	-0.0046	-0.0053	-0.0038	65.3	31
0	-0.0023	-0.0053	-0.0038	65.7	31
0.0045	-0.0015	-0.0075	-0.0015	65.4	31
0.0052	0	-0.0068	0.0007	65.9	31
0.0045	0.0007	-0.006	0.0045	65.6	31
0.0037	0.0007	-0.0053	0.0037	66.2	31
0.0045	-0.0008	-0.0038	0.0007	65.7	31
0.003	0.0015	-0.0023	0	65.9	31
0.003	0.0052	-0.0015	-0.0023	65.9	31
0.003	0.0075	-0.0008	-0.0053	65.8	31
0.0015	0.0052	-0.0015	-0.0075	66.1	31
0.0007	0.0052	-0.0046	-0.0053	66.2	31
-0.0023	0.006	-0.0053	0.003	66.1	31
-0.0015	0.003	-0.0068	0.009	66.2	31
-0.0023	0.0007	-0.0068	0.009	66.4	31
-0.0046	-0.0008	-0.0053	0.0105	66	31
-0.003	-0.0015	-0.0053	0.012	66.3	31
-0.0008	-0.0023	-0.0046	0.003	66.2	31
-0.0008	-0.003	-0.0053	0.0007	66	31
-0.0015	-0.003	-0.0038	0.0052	66.3	31
-0.0008	-0.0053	-0.0008	0.0075	66	31
0	-0.0046	-0.0015	0.0075	66.2	31
0	-0.0023	-0.003	0.003	65.7	31
-0.0015	-0.0053	-0.0023	0.0015	66.2	31
-0.0023	-0.0068	-0.0015	-0.0015	65.7	31
-0.0015	-0.0083	-0.003	-0.0008	65.8	31
-0.0015	-0.0068	-0.0015	0.003	65.8	31
-0.0008	-0.0068	-0.0023	0.003	65.7	31
0.0007	-0.0053	-0.0046	0.003	65.8	31
0.0007	-0.0008	-0.0046	0.0015	65.6	31
0	0	-0.0046	0.0007	65.5	31
-0.0015	0.0007	-0.0053	-0.0008	65.5	31
-0.0023	0.0007	-0.006	0.0015	65.4	31
-0.0015	0	-0.0053	0.0007	65.1	31
-0.0015	0.0007	-0.0046	0.003	65.3	31
-0.0038	0.0007	-0.003	0.0052	64.9	31
-0.0038	0.0015	-0.003	0.0015	64.9	31
-0.0015	0.0007	-0.0038	-0.0015	64.9	31
0.0007	0.0007	-0.0008	-0.0008	64.6	31
0.003	0.0015	0.0007	-0.0008	64.8	31
0.0045	0	0.0045	0	64.3	31
0.006	0.0015	0.0037	-0.0015	64.3	31
0.0067	0.003	0.0022	-0.0015	64.3	31
0.003	0.003	0.003	0	64	31
0.003	0.0015	0.003	0.0007	63.9	31
0.0037	0.0015	0.0015	0.0022	64	31
0.0037	0.0007	0	0.0015	63.4	31
0.0022	-0.0015	0.0007	-0.0008	63.4	31
0.0022	-0.0008	0.0007	0.0007	63.2	31
0.0015	-0.0008	0.0007	0.0015	63.1	31
0.0007	-0.003	-0.0015	-0.003	63	31
0.003	-0.0068	-0.0023	-0.0015	62.5	31
0.003	-0.0113	-0.0015	0	62.6	31
0.003	-0.0098	-0.0008	0.0015	62.3	31
0.0045	-0.0105	0.0015	0.003	62.1	31
0.0015	-0.0068	0.0007	0.0007	62.1	31
-0.0008	-0.0046	0.0022	-0.0008	61.7	31
-0.0015	-0.012	0.0037	0.0022	61.8	31
-0.0023	-0.0135	0.0015	0.0067	61.4	31
0.0007	-0.006	-0.0008	0.009	61.1	31
0.0007	0.0097	-0.0008	0.0045	61	31
-0.0008	0.0195	0.0015	0.0015	60.7	31
-0.0008	0.0157	-0.0015	-0.0015	60.5	31
-0.0015	0.0135	-0.0015	-0.0068	60.6	31
-0.0015	0.012	-0.0008	-0.0038	59.9	31
-0.003	0.012	-0.0008	0.0007	60.2	31
-0.0015	0.0105	0.0015	0.0097	59.5	31
-0.0015	0.0142	0.0015	0.0127	59.7	31
-0.003	0.021	0.0015	0.009	59.1	31
-0.003	0.0135	0.0015	0.006	58.9	31
-0.003	0.0105	0.003	0.0052	58.8	31
-0.0023	0.0105	0.0015	0.0067	58.4	31
-0.003	0.0037	0.0007	0.0052	58.4	31
-0.0015	0.003	0.0007	0.0082	58	31
-0.0008	-0.0008	-0.0008	0.0075	57.8	31
-0.0008	0.0007	0	0.0007	57.6	31
-0.0023	0	0	-0.0083	57.5	31
-0.0015	-0.0008	-0.0008	-0.0046	57.1	31
-0.0023	-0.0008	0.0007	-0.003	57.2	31
-0.0015	-0.0038	-0.0008	-0.0098	56.8	31
-0.0008	-0.0046	0.0015	-0.0113	56.8	31
-0.0008	-0.0068	0	-0.015	56.5	31
0.0007	-0.0053	0.0007	-0.003	56.2	31
0.0007	-0.0068	0.0015	0.0172	56.5	31
0.0015	-0.006	0	0.0165	55.7	31
-0.0008	-0.0075	0.0007	0.006	56.1	31
-0.0015	-0.0083	0.0007	0.0045	55.6	31
-0.0008	-0.006	0	0.0007	55.6	31
-0.003	-0.0053	0	-0.0008	55.4	31
-0.0023	-0.0098	-0.0008	-0.0053	55	31
-0.003	-0.0128	-0.003	-0.012	55	31
-0.003	-0.0158	-0.0053	-0.0158	54.9	31
-0.0023	-0.0165	-0.003	-0.0263	54.6	31
-0.003	-0.015	0.0015	-0.0278	54.4	31
-0.0015	-0.0113	0.0007	-0.0173	54.5	31
-0.0008	0.0045	0.0007	0.0075	54	31
0.0007	0.0255	0.003	0.0472	54.4	31
0.0015	0.024	0.003	0.0555	53.7	31
0.0007	0.018	0.0037	0.0232	54	31
0.0007	0.0127	0.003	0.003	53.5	31
0.0007	-0.003	0.0037	-0.0046	53.3	31
0.0007	-0.0015	0.0067	-0.0023	53.3	31
0.0007	-0.0008	0.0052	0.012	53	31
-0.0015	-0.0068	0.0067	0.0157	53.1	31
-0.0023	-0.0083	0.0067	0.003	52.5	31
-0.0015	-0.0098	0.0015	0.0022	52.7	31
-0.0015	-0.0105	0.0007	0.006	52.3	31
0	-0.0091	0.0015	0.0022	52.3	31
-0.0008	-0.0068	0.0015	0.003	52.3	31
0	-0.0075	0.0052	-0.0143	52.1	31
0.0022	-0.0083	0.0067	-0.0218	51.8	31
0.0015	-0.006	0.0045	-0.0075	51.6	31
0.0022	-0.0015	0.003	0.009	51.6	31
0.0007	0.0015	0.0015	0.006	51.3	31
0.0007	0	0	-0.0046	51.3	31
0.0022	-0.0015	-0.0023	-0.0083	50.8	31
0.0007	-0.003	-0.0023	-0.012	51.2	31
0.0007	-0.0038	-0.0015	-0.0038	50.4	31
0.0015	-0.0015	-0.0038	-0.0046	50.8	31
-0.0008	0.0037	-0.0053	-0.0091	50.1	31
-0.0015	0.0105	-0.0046	-0.0075	50.3	31
0.0015	0.0082	-0.003	-0.0128	50.1	31
0.0015	-0.0008	-0.003	-0.0218	49.9	31
0.0015	-0.0008	-0.003	-0.027	49.7	31
0.0015	-0.0008	-0.0046	-0.012	49.7	31
0.0007	-0.0008	-0.0053	0.0165	49.2	31
0	-0.003	-0.0023	0.024	49.2	31
-0.0008	-0.0075	0.0007	0.039	49	31
0.0015	-0.0091	0.0015	0.06	48.7	31
0.0015	-0.0105	0.003	0.0135	48.7	31
0.003	-0.003	0.0022	-0.0158	48.1	31
0.003	-0.0008	0.0037	-0.0068	48.3	31
0.0007	-0.0046	0.003	-0.0015	47.9	31
-0.0015	-0.003	0.0015	0.0097	47.7	31
-0.0023	-0.0068	-0.0008	-0.0015	47.7	31
-0.0015	-0.0105	-0.003	0.0015	47.3	31
-0.0015	-0.0053	0.0007	0.003	47.3	31
0.0007	-0.0038	0	0.003	46.9	31
0	-0.003	0.0015	0.0052	46.6	31
-0.0015	0.0105	0.003	0.0015	46.3	31
0	0.024	0.0037	0.0037	46.3	31
0	0.0225	0.0052	-0.0053	45.7	31
-0.0015	0.009	0.0045	-0.0068	45.9	31
-0.0023	0.0022	0.0052	-0.0038	45.2	31
-0.0023	-0.0008	0.0015	-0.0053	45.3	31
-0.0008	-0.0038	0	-0.012	44.8	31
-0.0008	-0.0046	-0.0015	-0.0105	44.7	31
-0.0023	-0.0053	-0.0046	-0.0008	44.6	31
-0.0008	-0.0046	-0.0038	0.0127	44	31
0.0007	-0.003	-0.0023	0.033	44.1	31
0.0015	-0.0008	-0.0008	0.0232	43.5	31
0.0007	0	-0.003	-0.003	43.5	31
-0.0008	0	-0.0046	-0.0015	43.2	31
0	-0.0038	-0.0023	-0.0046	42.8	31
0	-0.0143	-0.0008	-0.027	42.7	31
0	-0.0158	0.0022	-0.0225	42.4	31
-0.0015	-0.0135	0.003	-0.0015	41.9	31
-0.0015	-0.0135	0.0007	0.0255	41.7	31
0.0007	-0.0053	-0.0008	0.0382	41.5	31
-0.0008	0.0007	0.0037	0.0165	41	31
-0.0015	0.0037	0.0052	0	40.9	31
0.0007	-0.0015	0.003	-0.0083	40.4	31
-0.0008	-0.0023	0.0015	-0.0075	40.5	31
0	-0.0008	0.0007	-0.0023	39.9	31
0.0007	-0.0008	0.003	-0.003	40	31
0	0.0015	0.003	-0.0008	39.4	31
0.0015	-0.0008	0.0015	-0.0015	39.1	31
0.0015	0.0015	0.0015	0.0007	39	31
0.0022	0	0.0015	0	38.6	31
0.003	0	0.0015	-0.0015	38.3	31
0.0022	0.0015	0.0007	0.0007	38.1	31
0.0007	0.003	0.0007	0.0007	37.7	31
0.0007	0.003	-0.0008	-0.0023	37.4	31
0.0007	0.0015	-0.0015	-0.0075	37.4	31
-0.0008	0.003	0.0007	-0.0098	36.7	31
0.0007	0.0015	-0.0008	-0.0075	36.6	31
0.0007	0.0007	-0.0015	-0.0008	36	31
0.0007	-0.003	0.0007	0.0082	36	31
0.0015	-0.0083	0.0007	0.0015	35.7	31
0.0022	-0.0128	-0.0023	-0.0128	35.2	31
0.0022	-0.0083	-0.0015	0.0015	35.3	31
0.0007	-0.0023	0.0015	-0.0038	34.5	31
0.0007	-0.003	-0.0008	-0.0083	34.7	31
0.0015	0	-0.0008	0.0465	34	31
0.0015	0.0052	0.003	0.0427	34	31
0.0015	0.0187	0.003	0.0135	33.6	31
0.0015	0.0157	0.0007	0.003	33.3	31
0.0015	-0.0053	0.0007	-0.0263	33.1	31
0.0015	-0.0293	0.0007	-0.0256	32.7	31
0.0007	-0.048	-0.0008	-0.024	32.5	31
-0.0008	-0.0368	-0.0015	-0.0015	32	31
-0.0015	-0.0218	-0.0015	0.0165	32	31
-0.0008	-0.0158	0	0.0105	31.4	31
-0.0015	-0.0181	0.0037	0.0075	31.5	31
-0.0023	-0.0083	0.006	-0.0181	30.7	31
-0.0015	0.0607	0.0037	-0.0308	31	31
-0.0008	0.108	0.0067	0.0075	30.2	31
-0.0023	0.063	0.0037	0.0345	30.1	31
-0.0046	0.0435	0.003	0.0352	29.9	31
-0.003	0.0345	0.0052	0.0397	29.6	31
-0.0015	0.003	0.0067	-0.0135	29.3	31
-0.0015	0.0075	0.006	-0.042	28.8	31
0.0015	-0.0015	-0.0008	-0.0158	28.6	31
0.0015	0.006	-0.0008	0.0015	28.4	31
0.0015	0.006	-0.0015	0.0367	28.1	31
0.0015	-0.0083	-0.003	0.0382	27.6	31
0	-0.0091	-0.0015	0.003	27.6	31
0	-0.0158	-0.003	0.0015	27	31
-0.0008	-0.0128	-0.0015	-0.0015	26.7	31
0	-0.012	-0.0053	-0.0128	26.6	31
0.0007	-0.012	-0.0068	-0.0143	26.1	31
0.0007	-0.0143	-0.0046	-0.0181	26	31
0.0045	-0.0113	-0.0008	-0.0128	25.4	31
0.003	-0.0075	0.0015	-0.006	25.6	31
0.0007	-0.0091	0.003	-0.0008	24.7	31
0.0015	-0.0128	0.0015	-0.0225	24.8	31
0.0015	-0.0135	-0.0015	-0.0188	24.3	31
0.0022	-0.006	-0.0038	0.0105	24	31
0.003	0.0127	-0.0046	0.015	23.8	31
0.0015	0.0172	-0.0023	0.012	23.4	31
0.0022	0.009	-0.003	0.0247	22.9	31
0.003	0.0202	-0.0038	0.039	23	31
0.003	0.0045	-0.003	0.027	22.4	31
0.0015	-0.0105	-0.003	0.0217	22.3	31
-0.0015	-0.0046	-0.0008	-0.0053	21.8	31
-0.0015	-0.0098	0.0015	-0.0143	21.6	31
0	-0.0015	0.0022	0.0015	21.4	31
-0.0008	-0.006	-0.0008	-0.003	20.9	31
-0.0023	-0.012	-0.0008	-0.0105	20.8	31
-0.003	-0.0015	-0.0008	-0.012	20.3	31
-0.0015	0.0015	-0.0023	0.009	20	31
-0.0023	-0.0015	-0.0015	0.018	19.9	31
-0.0015	-0.0008	-0.0008	-0.003	19.4	31
-0.0008	0.0015	-0.0038	-0.0203	19.3	31
0	-0.0023	-0.0046	-0.0068	18.9	31
-0.0008	-0.006	-0.003	0.0112	18.7	31
-0.0038	-0.0053	-0.0046	0.0255	18.3	31
-0.003	-0.0046	-0.0068	0.015	18.5	31
-0.0015	-0.0053	-0.0068	-0.003	17.7	31
-0.0008	-0.0046	-0.0046	-0.0015	17.8	31
-0.0008	-0.006	-0.0023	-0.0083	17.2	31
0.0015	-0.0046	0	-0.006	17	31
0.0007	-0.0023	0.0007	-0.006	16.8	31
-0.003	-0.003	-0.0015	-0.0008	16.5	31
-0.003	-0.0046	-0.003	-0.0053	16.5	31
-0.003	-0.0068	-0.0038	-0.0083	16	31
-0.0008	-0.0038	-0.0046	-0.0053	15.7	31
0.0015	-0.0008	-0.0046	-0.0105	15.5	31
0.003	0.0007	-0.0023	-0.0091	15	31
0.0007	0.0007	-0.0008	-0.0091	15.1	31
-0.003	-0.0015	0	-0.0008	14.8	31
-0.003	-0.003	0.0015	0.0075	14.5	31
-0.0008	-0.003	0.0045	0.0075	14.6	31
0.0015	-0.003	0.0067	0.0052	14.2	31
0.003	-0.0008	0.0075	0.0052	13.8	31
0.0052	0	0.0052	0.0067	13.7	31
0.003	-0.0015	0.003	0.006	13.2	31
0.003	-0.003	0.0015	0.0067	13.4	31
0.003	-0.0053	0.003	0.0052	12.5	31
0	-0.0068	0.0067	0.0037	12.8	31
-0.0015	-0.0046	0.0037	0.0007	12.2	31
-0.0015	-0.0015	0.003	-0.0068	12.2	31
-0.0008	-0.0008	0.003	-0.0128	12	31
-0.0008	0	-0.0015	-0.0135	11.7	31
-0.0015	0.003	-0.0046	-0.003	11.6	31
0.0007	0.0067	-0.0075	0.024	11.2	31
0.0015	0.0082	-0.0083	0.033	10.9	31
-0.0008	0.009	-0.0068	0.015	10.8	31
-0.0046	0.0045	-0.0038	0.0112	10.7	31
-0.0075	-0.0068	0.0015	-0.006	10.2	31
-0.0068	-0.0158	0.003	-0.0203	10.2	31
-0.0053	-0.0083	0.0015	-0.0323	10.1	31
-0.0008	0.0037	0.0007	-0.048	9.8	31
0.003	0.0037	-0.0015	-0.0293	9.8	31
0.006	0.0022	-0.0008	-0.003	9.2	31
0.0097	-0.0046	-0.0008	0.0285	9.5	31
0.0075	-0.0083	0.0007	0.0592	9	31
0.003	-0.0015	0.0052	0.0472	9	31
0.0007	-0.0008	0.0082	0.0097	8.8	31
0.0015	-0.0038	0.0097	0.0082	8.6	31
0.0007	-0.0068	0.0082	0.0082	8.6	31
-0.0038	-0.0068	0.0045	-0.0015	8.4	31
-0.0068	-0.0068	0.0045	-0.0038	8.2	31
-0.0068	-0.0038	0.003	-0.0158	8.1	31
-0.003	0.006	-0.0046	-0.0188	8	31
0.0015	0.0067	-0.006	-0.0165	7.6	31
0.0015	0.0045	-0.0023	0.0022	8	31
0.0045	0.0075	0.003	0.0105	7.5	31
0.0067	0.0067	0.0052	0.0195	7.6	31
0.0105	0.0165	0.0052	0.036	7.3	31
0.009	0.0157	0.0067	0.0135	7.2	31
0.0045	-0.0015	-0.0008	-0.0188	7.2	31
0.0007	-0.0181	-0.0128	-0.0068	6.8	31
-0.0053	-0.0218	-0.0195	0.0367	7.2	31
-0.0053	-0.0165	-0.0181	0.0592	6.6	31
-0.0046	-0.0091	-0.0105	0.0585	7	31
-0.003	-0.012	0.0015	0.0405	6.8	31
-0.0015	-0.0083	0.0157	-0.0098	6.5	31
0.0015	0.0195	0.0165	-0.0436	6.4	31
0.0037	0.0165	0.0082	-0.0683	6.2	31
0.003	-0.0015	0	-0.0795	6.1	31
0.003	0.0067	-0.0068	-0.0353	6	31
0.0015	0.0112	-0.003	0.0217	6.1	31
0.0007	0.012	-0.0023	0.036	5.7	31
0.0022	0.0075	-0.0015	0.024	6.1	31
0.003	0.0015	-0.0046	0.048	5.4	31
0.0015	0.0022	-0.0068	0.0277	5.8	31
0.0022	-0.0015	-0.006	0.018	5.3	31
0	0.0022	-0.0091	0.009	5.3	31
-0.0008	0.0052	-0.0091	-0.033	5.3	31
0.0022	0.0067	-0.021	-0.0293	5	31
0.009	0.0075	-0.024	-0.039	5.3	31
0.0105	0.0052	-0.012	-0.012	5	31
0.0045	0.0045	-0.0008	-0.0053	5	31
-0.0008	-0.0113	0.0105	-0.0143	4.9	31
-0.0053	-0.0293	0.0202	-0.003	4.6	31
-0.006	-0.0181	0.0247	0.0165	4.4	31
-0.0023	-0.0098	0.0172	0.0322	4.7	31
0.0015	-0.027	0.0075	0.0082	4.5	31
0.003	-0.024	0.0082	-0.0015	4.6	31
0.0015	-0.0046	0.0172	-0.0105	4.4	31
-0.0008	-0.0053	0.021	-0.0128	4.1	31
-0.0075	-0.0128	0.018	-0.0165	4.5	31
-0.0068	-0.0181	0.0112	-0.0181	3.9	31
-0.0015	-0.0128	0.0045	-0.0181	4.2	31
0.0045	0.0345	-0.0053	-0.0128	3.8	31
0.012	0.0915	-0.012	0.003	4.2	31
0.0165	0.0675	-0.0203	-0.0128	3.7	31
0.012	0.012	-0.021	-0.0113	3.9	31
0.0052	0	-0.0105	0.0052	4	31
0.0007	-0.012	-0.003	0.0082	3.7	31
-0.003	-0.0173	-0.0008	0.0232	3.8	31
-0.0083	-0.0008	0.0007	0.0487	3.9	31
-0.0113	0.015	0.003	0.0525	4	31
-0.0098	-0.0008	-0.0015	0.0247	3.6	31
-0.006	-0.0128	-0.0098	0.0165	3.9	31
-0.0008	-0.0046	0.003	0.0165	3.7	31
-0.0038	-0.0053	0.0277	0.0052	4	31
-0.003	0.009	0.033	0.0045	4	31
0.0037	0.0067	0.0172	0.0075	4	31
0.0127	0.0105	-0.0046	0.0127	4.1	31
0.0232	0.0157	-0.0135	0.0142	3.9	31
0.015	0	-0.0068	0.0067	4.3	31
-0.0008	-0.0143	0.0022	-0.0068	3.9	31
-0.0105	-0.027	0.0142	-0.0105	4.3	31
-0.012	-0.0323	0.0195	-0.0105	4.4	31
-0.0083	-0.042	0.018	-0.0128	4.5	31
-0.0053	-0.042	0.0052	-0.0098	4.7	31
0.0007	-0.0308	-0.0046	-0.0046	4.9	31
0.0067	-0.0353	-0.0015	0.0007	4.5	31
0.0045	-0.054	-0.0046	-0.003	5	31
-0.003	-0.054	-0.0015	0.0007	4.8	31
-0.0015	-0.0098	0	-0.0046	5.1	31
-0.0053	0.0427	0.0052	-0.0195	5.2	31
-0.0098	0.0967	0.0052	-0.0195	5.2	31
-0.0068	0.1042	-0.003	-0.03	5.5	31
-0.0038	0.0757	-0.0098	-0.0368	5.3	31
-0.003	0.0667	-0.0135	-0.024	5.7	31
-0.0046	0.033	-0.0038	-0.0195	5.8	31
-0.0046	0.0105	-0.0008	-0.015	5.7	31
-0.006	0.0015	-0.0015	0.0457	5.9	31
-0.0105	-0.027	0.003	0.0682	6.2	31
-0.0091	-0.0383	0.0037	0.0135	6.1	31
-0.0105	-0.0443	0.0007	0.0217	6.3	31
-0.0091	-0.033	-0.0038	0.0217	6.3	31
-0.003	-0.0105	-0.0083	-0.0105	6.3	31
0.0015	-0.0046	-0.0091	-0.0233	6.6	31
0.0097	0.0045	-0.0105	-0.03	6.4	31
0.012	-0.0008	-0.0128	-0.006	7	31
0.0067	-0.0068	-0.0105	-0.0105	6.7	31
0.0045	-0.006	-0.0053	-0.027	7.2	31
0.0075	-0.003	-0.0046	-0.0113	7.1	31
0.009	-0.0008	-0.006	0.0105	7.3	31
0.0052	-0.0046	-0.003	0.048	7.6	31
0.0045	-0.0038	0.0082	0.0442	7.4	31
0.0045	-0.0023	0.0127	-0.033	7.8	31
0.0037	-0.0023	0.0105	-0.0405	7.7	31
0	-0.0068	0.0037	-0.0046	8	31
-0.0015	-0.0091	-0.0053	0.0405	7.9	31
0.0007	-0.003	-0.0083	0.0382	7.8	31
0.0037	0.0015	-0.006	-0.0083	7.8	31
0.0052	-0.0053	0	0.054	8.1	31
0.0007	-0.0218	0.003	0.0877	7.9	31
-0.0008	-0.0368	0.006	0.0652	8	31
-0.0008	-0.024	0.0052	0.039	8	31
0.0007	0.0112	-0.0046	0.0502	7.6	31
0.0007	0.0232	-0.0105	0.0592	8.1	31
-0.0015	0.0052	-0.0158	0.018	7.4	31
0	0.0015	-0.0173	-0.0083	7.9	31
0.0015	0.0082	-0.0135	-0.042	7.4	31
0.003	0.003	-0.012	-0.0503	7.7	31
0.0045	-0.0015	-0.0068	-0.0398	7.4	31
0.009	0.003	-0.0046	-0.003	7.6	31
0.0262	0.0165	0.0007	0.0277	7.3	31
0.0517	0.027	0.0105	0.0232	7.3	31
0.048	0.0307	0.0127	0	7.3	31
0.0195	0.021	0.0127	-0.054	7.1	31
-0.003	-0.0075	0	-0.075	7.3	31
-0.0195	-0.024	-0.012	-0.0503	7	31
-0.0233	-0.0105	-0.0046	-0.0143	7.3	31
-0.021	0.0037	0.0067	-0.0068	7.3	31
-0.012	0.0082	0.0082	-0.0068	7.3	31
0.0015	0.0082	0.003	0.0165	7.4	31
0.0007	-0.0143	-0.0038	0.021	7.3	31
-0.0008	-0.0338	-0.0015	0.015	7.8	31
-0.003	-0.0218	0.0037	-0.0195	7.5	31
-0.0015	-0.0008	0.0067	-0.0233	7.9	31
0.0082	0.0127	0.003	-0.0195	7.6	31
0.012	0.0195	-0.0015	-0.042	7.6	31
0.0067	0.018	-0.0046	-0.03	7.8	31
0.012	0.015	-0.0083	-0.0308	7.7	31
0.0097	0.0112	-0.0015	-0.0143	7.8	31
0.0045	0.012	-0.003	-0.0068	7.7	31
0.003	0.0015	-0.0068	-0.0143	7.9	31
-0.0068	-0.024	-0.0053	-0.0128	7.6	31
-0.0105	-0.0353	-0.0023	-0.0278	8.1	31
-0.0143	-0.03	0.003	-0.0308	7.6	31
-0.0173	-0.0091	0.0037	-0.039	8	31
-0.012	0.0007	0.0067	-0.0443	7.6	31
-0.0158	-0.0068	0.006	-0.0113	8	31
-0.0173	-0.0091	0.0007	-0.0135	8	31
-0.0165	-0.0053	-0.003	0.0157	8	31
-0.0143	0.0045	-0.0091	0.1012	8.4	31
-0.0053	0.0157	-0.0143	0.105	8.1	31
-0.003	0.021	-0.0046	0.0652	8.2	31
-0.0053	0.0165	0.009	0.0675	8.3	31
-0.0068	-0.0015	0.0105	0.0862	8.6	31
-0.0091	-0.0128	0.0127	0.0652	8.8	31
-0.0068	-0.0105	0.012	0.0382	8.9	31
-0.0038	-0.0091	0.006	0.0232	8.9	31
-0.0068	-0.0068	0.0022	-0.003	9	31
-0.0091	-0.0091	-0.0038	-0.003	9.1	31
-0.0075	-0.0068	-0.0075	-0.0008	9.1	31
-0.006	-0.0008	-0.0083	0.021	9.5	31
-0.0038	-0.003	-0.0075	0.033	9.4	31
0.0007	-0.0023	-0.003	0.0007	9.9	31
0.0015	-0.0068	-0.003	-0.0105	9.5	31
0.0007	-0.0181	0.0007	-0.0135	10.1	31
-0.0023	-0.0256	0.003	-0.0233	9.8	31
-0.0053	-0.0135	-0.0008	-0.0233	10	31
-0.0046	-0.0143	-0.0008	-0.027	10	31
0	-0.0315	0.0015	-0.024	10.3	31
0.0015	-0.0195	0.0052	-0.0218	10.3	31
-0.0008	-0.0068	0.0082	-0.0218	10.5	31
-0.0015	-0.003	0.0022	-0.0181	10.4	31
0	-0.003	-0.0068	-0.0195	10.7	31
0	-0.0075	-0.0038	-0.0188	10.9	31
0.0007	0	-0.0038	-0.0158	10.5	31
0.003	0.0082	-0.003	-0.0158	11.2	31
-0.0008	0.012	0.0015	-0.0158	11.3	31
-0.0053	0.0157	0.006	-0.0165	11.4	31
-0.006	0.0165	0.0105	-0.0233	11.1	31
-0.006	0.0225	0.0127	-0.0203	11.4	31
-0.0023	0.0345	0.0127	-0.0128	11.7	31
-0.0098	0.0292	0.009	0.003	11.7	31
-0.021	0.012	0.0067	0.0285	12.3	31
-0.0143	0.0127	0.0082	0.0105	12.3	31
0	0.0262	0.006	-0.0083	12.3	31
0.0127	0.0307	0.0007	0.0105	12.2	31
0.0075	0.0007	-0.0015	0.0067	12.6	31
-0.0098	-0.0518	0.0007	-0.0053	12.3	31
-0.0143	-0.0555	0.0015	0.003	12.9	31
-0.0143	-0.0248	0.0052	0.0075	12.4	31
-0.012	-0.003	0.0082	-0.0091	12.8	31
-0.0098	0.0045	0.0082	-0.0181	12.6	31
-0.0083	0.0007	0.0052	-0.0023	12.6	31
-0.0053	0.0052	0.0007	0.0135	12.8	31
-0.0068	0.0052	0.0022	0.0127	12.6	31
-0.0053	0.0052	0.0015	-0.0195	12.9	31
-0.0046	0.0045	-0.0038	-0.045	12.6	31
0	0.0007	-0.0068	-0.0233	12.9	31
0.0067	0.0045	-0.0091	0.0165	12.6	31
0.0142	0.0105	-0.0083	0.0757	12.7	31
0.018	0.015	-0.0046	0.081	12.8	31
0.015	-0.0008	-0.0015	0.0382	12.6	31
0.0082	-0.0308	0.0067	0.018	12.5	31
-0.0038	-0.0285	0.0045	-0.0248	12.7	31
-0.012	-0.0008	-0.0046	-0.0413	12.5	31
-0.0105	0.0045	-0.0046	-0.0458	12.3	31
-0.0075	0.0052	-0.0046	-0.0585	12.5	31
-0.0038	0.0045	-0.0015	0.0127	12.2	31
-0.0008	-0.0008	0.003	0.0585	12.8	31
-0.0015	0.0015	0.003	0.0105	12.3	31
-0.0015	-0.0008	-0.0008	0.0232	12.7	31
-0.003	0.0007	0.0015	0.051	12.5	31
-0.0015	0.003	0.0052	0.0525	12.6	31
0.0007	0.0082	0.006	0.0772	12.6	31
-0.0008	0.0097	0.0067	0.033	12.5	31
-0.0008	0.0015	0.0037	-0.0158	12.6	31
0.0052	-0.006	0.0015	0.0075	12.7	31
0.0165	-0.0008	0.0007	0.0127	12.6	31
0.0255	0.0105	-0.0046	0.0015	12.6	31
0.024	0.0105	-0.015	0.0007	12.8	31
0.0142	0.009	-0.0278	-0.0046	12.3	31
0.0075	0.0015	-0.0315	-0.0083	12.8	31
0.009	0.0015	-0.0165	-0.0233	12.5	31
0.0052	-0.0015	-0.0008	-0.0233	12.6	31
-0.0008	-0.0008	0.0105	-0.0158	12.6	31
0	0.0105	0.0165	-0.0158	12.4	31
0.003	0.012	0.0195	-0.0105	12.8	31
0.0052	0.0165	0.0202	-0.0091	12	31
0.0067	0.009	0.0127	-0.0083	12.6	31
0.0075	-0.0038	0.009	-0.0083	12.2	31
0.0075	-0.0098	0.0067	-0.0105	12.1	31
0.0082	0.0052	-0.0008	-0.0135	12.2	31
0.009	0.0142	-0.0105	-0.0263	12.1	31
0.009	0.0142	-0.0181	-0.0436	11.8	31
0.0067	0.0217	-0.0173	-0.057	12	31
0.0045	0.0157	-0.0173	-0.0458	11.7	31
0.0052	0.0127	-0.0158	-0.006	11.6	31
0.006	0.0067	-0.0113	0.042	11.8	31
0.0037	0.0045	-0.0075	0.0495	11.2	31
0.0007	0.0015	-0.006	-0.0053	11.7	31
0.0022	0.0015	-0.0068	-0.0181	11.1	31
0.0015	0.0082	-0.003	0.0457	11.4	31
0.0015	-0.0008	0.0067	0.0727	11.1	31
0.0007	-0.0105	0.0135	0.0705	11.1	31
0.0015	-0.0091	0.009	0.0697	11.1	31
0.0045	-0.0068	0.0015	0.0232	10.8	31
0.0045	-0.0046	-0.0008	-0.0015	11.1	31
0.0075	-0.0015	-0.0038	0.015	10.9	31
0.009	-0.0015	-0.0053	0.009	10.8	31
0.0067	-0.0038	-0.0046	-0.0068	10.8	31
0.0045	-0.0023	-0.003	-0.0128	11.1	31
0.0015	0.003	-0.0008	-0.0098	10.6	31
0.0015	0.0022	0.0015	-0.0143	11	31
0.0022	0.003	0.003	-0.012	10.8	31
-0.0008	0.0037	0.0015	-0.0091	10.8	31
-0.003	0.006	0.0007	-0.003	10.9	31
-0.003	0.0082	-0.0008	0	10.7	31
-0.0015	0.0022	0	-0.0083	11.3	31
0.0022	0.0022	0.0037	-0.006	10.7	31
0.0052	-0.0015	0.0022	-0.0091	11.1	31
0.0007	-0.0046	0.0037	-0.0105	10.8	31
-0.0046	-0.0046	0.0067	-0.0105	11	31
-0.0008	-0.0068	0.006	-0.0105	11	31
0.0022	-0.003	0.0045	-0.0091	10.9	31
0.003	-0.012	0	-0.0135	10.9	31
-0.0023	-0.0218	-0.0068	-0.021	10.8	31
-0.0083	-0.015	-0.012	-0.0428	10.8	31
-0.0053	-0.0068	-0.0068	-0.0668	10.8	31
-0.0068	-0.0046	-0.0046	-0.0518	10.8	31
-0.0083	-0.0046	-0.0083	-0.0008	10.7	31
-0.0075	-0.006	-0.0068	0.0457	11	31
-0.0053	-0.0015	-0.0038	0.0705	10.7	31
-0.003	-0.0015	0.003	0.0315	10.9	31
-0.0008	-0.0091	0.0067	-0.0023	10.8	31
0.0007	-0.0075	0.0045	0	10.7	31
0.0007	-0.0015	0.003	0.0075	10.8	31
-0.0008	0.0015	-0.0008	0.0495	10.7	31
-0.0015	-0.0015	-0.0008	0.0082	10.9	31
-0.0008	-0.0068	0.0082	-0.0585	10.5	31
-0.0015	-0.006	0.0202	-0.0248	10.7	31
-0.0023	-0.0135	0.018	-0.0105	10.6	31
-0.003	-0.0218	0.006	-0.0293	10.7	31
-0.0008	-0.0195	0.0015	0.039	10.4	31
0.0022	-0.012	-0.003	0.1117	10.8	31
0.003	-0.0091	-0.003	0.105	10.3	31
0.003	-0.015	0.0045	0.0712	10.6	31
0.0015	-0.015	0.0112	0.0075	10.4	31
0	-0.0128	0.0075	0.0022	10.4	31
0	-0.0083	0.0015	0.0037	10.4	31
0.0015	-0.0038	0.0007	-0.0113	10.2	31
0.0007	-0.0023	-0.0008	-0.0068	10.3	31
0.0007	-0.0008	-0.0015	-0.0256	9.9	31
0.0007	-0.0015	-0.003	-0.0173	10.2	31
-0.0015	0.0007	-0.003	-0.012	10.1	31
-0.0023	0.0015	-0.0023	-0.0008	9.9	31
-0.003	0.003	-0.0008	0.003	9.9	31
-0.0015	0.0045	-0.0008	-0.0098	9.9	31
-0.0023	0.0067	-0.003	-0.0135	9.8	31
-0.0046	0.0082	-0.0015	-0.0143	9.6	31
-0.0046	0.0052	0	-0.0173	9.4	31
-0.0046	0.0052	0.0015	-0.0293	9.4	31
-0.0046	0.0045	0.0007	-0.0338	9.6	31
-0.0038	0.0015	0.0015	-0.0383	9.2	31
-0.0023	0.0015	-0.0008	-0.0181	9.6	31
-0.0023	0.003	-0.003	0	9.1	31
-0.003	0.0052	-0.0023	-0.0053	9.3	31
-0.003	0.0067	-0.0023	-0.0098	9	31
-0.0015	0.0067	-0.0038	-0.0113	9.1	31
-0.0038	0.0052	-0.0068	0.015	9.1	31
-0.0046	-0.0008	-0.0046	0.0652	8.9	31
-0.0038	0	0.0007	0.0742	9	31
-0.0046	-0.003	0.0015	0.0037	8.8	31
-0.003	-0.0091	-0.0008	-0.0113	8.7	31
-0.0015	-0.0015	0.003	0.0292	8.6	31
-0.0008	0.003	0.0052	0.0225	8.7	31
-0.0015	-0.0008	0.003	0.018	8.2	31
-0.0008	0	0.0015	0.012	8.5	31
-0.0015	0.0037	-0.0038	0.0285	8.3	31
-0.0015	0.0037	-0.003	0.0142	8.2	31
-0.0023	0.0007	-0.0015	-0.0091	8.1	31
-0.0008	-0.0015	-0.0008	-0.0098	7.8	31
-0.0023	-0.0008	0.0022	-0.0195	8.1	31
-0.003	0.0015	0.0007	-0.0075	7.5	31
0	0.003	0.0007	-0.0105	7.9	31
0	0.0045	-0.0008	-0.0091	7.4	31
0.003	0.003	-0.0023	-0.012	7.4	31
0.0015	0.0015	-0.0015	-0.015	7.4	31
0.003	0.003	-0.0015	-0.0128	7.3	31
0.0022	0.003	-0.003	-0.0143	7.1	31
-0.0008	0.0015	-0.0046	-0.012	7	31
0	0.0022	-0.0053	-0.015	7	31
0	0.0022	-0.0046	-0.0075	6.5	31
-0.0023	0.0015	-0.0038	0.0045	6.8	31
-0.003	0.0007	-0.006	0.018	6.4	31
0	-0.0015	-0.0068	0.0157	6.7	31
0.0015	0.0007	-0.006	0.012	6.1	31
0.0015	0.0015	-0.0038	0.0052	6.3	31
0.0015	0	-0.0015	-0.0068	6.1	31
-0.0008	0.0022	-0.0015	-0.0195	6.1	31
0	0.0045	-0.0008	-0.0263	6	31
0.0015	0.006	-0.003	-0.0091	5.6	31
0.0015	0.0052	-0.0046	0	5.8	31
0.003	0.0015	-0.003	-0.006	5.6	31
0.0022	0	-0.006	-0.0203	5.5	31
0.0022	0.0007	-0.0091	-0.0488	5.2	31
0.0015	-0.0008	-0.0068	-0.033	5.3	31
-0.0015	0	-0.0008	0.0195	5.1	31
0	-0.0015	0.0015	0.0502	4.9	31
-0.003	-0.0068	0.0045	0.0442	4.8	31
-0.0053	-0.0105	0.012	-0.0091	4.7	31
-0.003	-0.0135	0.012	-0.0083	4.8	31
-0.0023	-0.0083	0.0045	0.0247	4.5	31
-0.0008	-0.0068	-0.0015	0.0622	4.7	31
-0.0015	-0.0143	0.0015	0.0742	4.2	31
-0.0023	-0.0188	0.0052	0.027	4.5	31
-0.0015	-0.0165	0.0097	0.0315	4	31
-0.0015	-0.0113	0.0097	0.0337	4.2	31
-0.003	-0.006	0.0045	0.0022	4	31
-0.0015	-0.0015	0.0007	-0.0181	3.9	31
-0.0008	-0.0008	-0.0015	-0.033	3.9	31
0	0.0015	-0.003	-0.0578	3.8	31
0.0007	0.0022	-0.0008	-0.0428	3.4	31
0.0015	0.0052	0.0015	0.0127	3.7	31
0.003	0.0067	0.0007	0.0052	3.4	31
0.0022	0.0022	0.0045	-0.0075	3.1	31
0.003	0.0067	0.009	0.0682	3.3	31
0.0045	0.0045	0.012	0.0405	2.9	31
0.0022	0.0007	0.0082	-0.0308	3.1	31
0.003	0.0037	0.003	-0.0053	2.9	31
0.0045	0.0067	-0.0023	0.0037	2.6	31
0.0045	0.009	-0.0053	0.027	2.7	31
0.0045	0.0075	-0.0008	0.027	2.4	31
0.0022	0.0082	0	0.0052	2.6	31
0.0022	0.0052	0.003	-0.0068	2.1	31
0.0022	0.0022	0.0045	-0.0098	2.2	31
0.0015	0.0015	0.003	-0.0143	2.3	31
0.0015	0.0015	0.0015	-0.0105	2.2	31
0.0022	0.0022	0.0007	-0.0046	2.1	31
0.0022	0.003	0.003	-0.0113	2.1	31
0.0022	0.0045	0.003	-0.0068	1.6	31
0.0037	0.0022	0.0015	-0.0128	1.8	31
0.003	0.0007	0.0007	-0.0075	1.5	31
0.0007	-0.0053	0.0007	-0.0091	1.4	31
0	-0.0083	-0.0015	-0.0075	1.6	31
0	-0.003	-0.0008	-0.003	1.3	31
-0.0008	-0.0053	-0.003	-0.0046	1.3	31
-0.0015	-0.0038	-0.0023	0	1.2	31
-0.003	0.0015	-0.0015	-0.003	1.1	31
-0.003	0.0015	-0.003	-0.0008	1.1	31
-0.0023	0.003	-0.0015	-0.0015	0.9	31
-0.0015	0.0037	-0.0008	-0.0008	0.8	31
-0.003	0.003	0.0015	0	0.9	31
-0.003	0.003	0.003	0.0015	0.7	31
0.0015	0.0037	0.0007	0.0007	0.7	31
0.003	0.003	-0.0008	-0.0008	0.8	31
0.003	0.0007	-0.0015	0.003	0.4	31
0.0037	-0.0008	-0.0038	0.0015	0.9	31
0.0022	-0.0008	-0.0038	0.0015	0.4	31
0.0007	-0.0008	-0.0015	-0.0008	0.8	31
-0.0008	-0.0023	-0.0008	0.0015	0.2	31
0.0007	-0.006	-0.0015	0.003	0.5	31
0.0015	-0.0053	-0.003	0.0022	0.3	31
0.0007	-0.003	-0.0023	0.0022	0.2	31
-0.0008	-0.0053	0.0007	0.0015	0.4	31
0.0007	-0.0023	0.0007	0.003	0.1	31
0.0007	-0.003	0.0015	0.0045	0.4	31
-0.0008	-0.003	0.0015	0.006	0.2	31
-0.0046	-0.0008	0	0.009	0.1	31
-0.0053	-0.0023	-0.0008	0.0082	0.2	31
-0.0023	-0.0038	-0.0023	0.003	0.1	31
0.0007	-0.0053	-0.0023	0.0037	0	31
0.0007	-0.0053	-0.003	0.0037	0.2	31
0.0007	-0.0053	-0.0068	0.0007	0	31
0.0007	-0.0015	-0.0046	0.0045	0	31
0.0007	-0.003	-0.0015	0.0067	0.2	31
0.0015	-0.0023	0.0007	0.0067	-0.3	31
0.0015	-0.0015	0.0007	0.0082	0.4	31
0	-0.003	0.003	0.009	-0.1	31
-0.0023	0.0007	0.0082	0.0082	0.2	31
-0.003	0.0022	0.009	0	0	31
-0.0038	0.0015	0.009	-0.0083	0	31
-0.0046	-0.0015	0.006	-0.012	0.3	31
-0.0015	-0.0023	0.0037	-0.0091	0.1	31
-0.0015	-0.0023	0.0052	-0.0083	0.2	31
-0.003	-0.0008	0.0015	0.0015	0.1	31
-0.0015	0.0015	-0.0008	0.015	0.1	31
-0.0023	-0.0023	0.0015	0.015	0	31
-0.0023	-0.0046	0.0015	0.0082	0.5	31
0.0015	-0.0008	0.0015	-0.006	0.1	31
0.0045	0.0015	0.0007	-0.0105	0.4	31
0.0067	0.0037	0.0007	-0.0008	0.3	31
0.006	0.003	-0.0008	0.0015	0.6	31
0.003	0.003	-0.0023	-0.0015	0.4	31
0.003	0.003	-0.0015	-0.003	0.6	31
0.0015	0.0015	-0.0015	0.0007	0.8	31
0.0015	0.003	-0.0015	0.0007	0.5	31
0.0015	0.0045	-0.0015	0.0015	0.9	31
0.0015	0.0052	-0.003	0.0015	0.6	31
0.0015	0.0052	-0.003	0.0007	1	31
-0.0008	0.0007	-0.0015	0.0007	0.9	31
-0.0023	0	-0.0008	-0.0008	0.9	31
-0.0008	0.0037	-0.0015	0.003	1.1	31
-0.0008	0.003	-0.003	0.0007	1	31
0.0015	0.0015	-0.0046	0.003	1.3	31
0.003	-0.0008	-0.003	0.0022	1	31
0.0007	-0.0015	0.0007	0.0015	1.4	31
0.0007	-0.0015	0.0007	0.0015	1.1	31
-0.0008	-0.0015	0	0.0007	1.7	31
-0.003	-0.003	0.0007	0.0015	1.3	31
-0.0023	-0.0038	0	0.0015	1.8	31
-0.0008	-0.0023	0.0007	0.003	1.4	31
0.0015	0	-0.0008	0.0022	1.7	31
0.003	0.0015	-0.0015	0.0015	1.6	31
0.0015	0.0007	-0.0023	0.003	1.5	31
0.0007	-0.0008	-0.0023	0.003	1.8	31
0.003	-0.003	-0.0015	0.003	1.8	31
0.0045	-0.006	-0.0015	0.003	1.7	31
0.003	-0.006	0	0.0007	1.9	31
-0.0008	-0.0068	-0.0023	0.0007	1.8	31
0	-0.0068	-0.0053	0.0007	1.8	31
-0.0008	-0.0053	-0.003	0	2.1	31
-0.0023	-0.0053	-0.0023	0.003	1.9	31
-0.0015	-0.0068	-0.0015	0.0015	2	31
-0.0008	-0.0068	-0.0015	0.0007	2	31
0.0007	-0.0053	-0.0015	0	2	31
0.0015	-0.0053	-0.0023	-0.0015	2.3	31
0.0015	-0.0046	-0.003	-0.0008	2	31
0.0022	-0.0053	-0.0008	0.0007	2.4	31
0.0015	-0.0046	-0.0023	0.0015	2.1	31
0.0015	-0.003	-0.0008	0.0015	2.4	31
0.0022	-0.0008	-0.0023	0.0022	2.2	31
0.0007	0.0015	-0.0038	0.0007	2.2	31
0.0007	0.0015	-0.003	-0.0008	2.4	31
0.0007	0.0015	-0.0008	-0.0008	2.6	31
-0.0008	0.0007	0.0015	0.0007	2.2	31
-0.0015	-0.0015	0.0007	0.0067	2.7	31
-0.0046	-0.003	0.0015	0.009	2.5	31
-0.003	-0.003	0.0015	0.0067	2.5	31
-0.0015	-0.003	-0.0008	0.0015	2.7	31
0.0015	-0.0038	0.0007	-0.003	2.5	31
0.0045	-0.0023	0.0007	-0.0091	2.9	31
0.0052	0	0.0015	-0.0083	2.6	31
0.0045	0.003	0.003	0.0022	2.8	31
0.0022	0.0037	0.0045	0.0165	2.7	31
0.0007	0.0007	0.0052	0.024	2.8	31
0	-0.0015	0.0052	0.0142	3	31
-0.0008	0	0.003	-0.0046	2.9	31
-0.0008	0.0007	0.0037	-0.0008	3.1	31
0	-0.003	0.0052	0.0105	3.1	31
0.0015	-0.003	0.0045	0.0135	2.9	31
0.0015	-0.0008	0.003	-0.0053	3	31
0.0015	0.0007	0	-0.0173	3.3	31
0.0015	0.0015	-0.0015	-0.0135	2.9	31
0.0015	-0.0008	0.0007	-0.0075	3.3	31
0.0007	0.0007	0.003	0.0127	2.9	31
0.0007	0.0015	0.0037	0.0015	3.4	31
0.0015	0.0052	0.0015	-0.0015	3	31
0.0007	0.0067	-0.0008	0.0142	3.3	31
0.003	0.0052	0	0.0067	3.2	31
0.0007	0.0052	-0.0008	0.0067	3.3	31
0.0007	0.006	0.0015	0.003	3.3	31
0.0015	0.006	0.0015	0.0015	3.1	31
-0.0008	0.0052	0.0007	0	3.1	31
-0.0008	0.0037	-0.0015	-0.0046	3.1	31
-0.0023	0.003	-0.0038	-0.0023	3.3	31
-0.0015	0.0045	-0.0015	-0.0046	3.1	31
-0.0008	0.0045	-0.0008	-0.0023	3.4	31
0	0.003	0.0015	-0.003	3	31
-0.0008	0.0022	0.0015	-0.0038	3.5	31
-0.0023	0.003	0	-0.0015	3.1	31
-0.003	-0.0008	0.0007	-0.0023	3.3	31
-0.0023	-0.0023	0	-0.0015	3.3	31
0.0007	-0.0015	-0.0015	0.0007	3.1	31
0.0007	-0.0008	-0.003	0.0022	3.6	31
0.0015	-0.0008	-0.0008	0.0022	3.1	31
0.0007	-0.0015	0	0.0015	3.6	31
-0.0008	-0.0015	0.0007	0.0015	3.1	31
0.0007	-0.0015	0.0015	0.003	3.3	31
0	-0.0046	-0.0023	0.0007	3.3	31
0.0007	-0.0053	-0.0015	0.0015	3.5	31
-0.003	-0.0053	-0.0015	0.003	3.5	31
-0.003	-0.0046	-0.003	0.003	3.4	31
-0.0023	-0.0046	-0.0015	0.0037	3.4	31
-0.003	-0.0046	-0.0008	0.0022	3.2	31
-0.003	-0.003	-0.0008	0.0007	3.6	31
-0.003	-0.0038	-0.0023	0.003	3.1	31
-0.0015	-0.003	-0.0038	0.0052	3.6	31
-0.0008	-0.0008	-0.0015	0.0037	3.2	31
0.0007	-0.0008	-0.0008	0.0015	3.6	31
0.0015	-0.0015	-0.0015	0.0007	3.3	31
0.0007	-0.0015	-0.0008	0.0007	3.6	31
-0.0015	-0.003	0.0007	0.0022	3.6	31
-0.0023	-0.0038	0.0007	0.0037	3.3	31
-0.0023	-0.003	0.0007	0.0015	3.7	31
-0.0023	-0.0046	0.0007	0.0015	3.6	31
-0.0015	-0.0046	0.0015	0.003	3.4	31
-0.0023	-0.0023	0.0015	0.0022	3.6	31
-0.003	-0.003	0.0037	0.0045	3.8	31
-0.0008	-0.003	0.0015	0.0052	3.4	31
-0.003	-0.003	0	0.0052	3.8	31
-0.0015	-0.0015	0.0007	0.0067	3.6	31
-0.0015	-0.0008	-0.0015	0.0052	3.6	31
-0.003	0.0007	0.0007	0.0037	3.7	31
-0.003	0.0007	-0.0008	0.0022	3.6	31
-0.003	0.0015	-0.0015	0.0022	3.9	31
-0.003	0.0015	0	0.003	3.5	31
-0.0015	0.0015	-0.0008	0.003	4	31
0.0015	0	-0.0015	0.0022	3.6	31
0.0015	-0.0008	-0.0023	0.0007	4	31
0.003	0	-0.0008	-0.0008	3.8	31
0.0045	-0.0008	0.0022	-0.0008	3.9	31
0.0045	0	0.0015	-0.0015	3.8	31
0.0015	-0.0008	0.0015	-0.0008	3.9	31
0.0007	0	0.003	0.003	3.6	31
0	0.0007	0.003	0.0015	4	31
-0.0015	0.0022	0.0015	0.0007	3.9	31
-0.0008	0.0045	0.0015	-0.0008	3.9	31
-0.003	0.0022	0.0015	-0.0023	4.2	31
-0.0015	0.0007	-0.0008	-0.0008	3.9	31
0.0015	0.0007	-0.0038	0.0007	4.4	31
0.0037	0.0007	-0.0023	0.0015	4.1	31
0.0037	0.0007	0	0	4.1	31
0.0037	-0.0015	0	0.0015	4.3	31
0.003	-0.0008	-0.0015	0.0045	4.4	31
0.0015	0	-0.0023	0.0022	4.4	31
0.0007	-0.0008	-0.003	-0.0008	4.4	31
-0.0008	-0.0008	-0.0008	-0.0046	4.2	31
-0.0008	-0.0008	-0.0008	-0.003	4.3	31
0	-0.0008	-0.0008	-0.0023	4.5	31
0	0	0.0007	-0.0015	4.2	31
0.0007	-0.0008	0.0015	-0.0015	4.6	31
0.0007	0	0.0015	-0.003	4.2	31
0.0015	-0.0008	-0.0015	-0.0008	4.7	31
0.0022	0.0007	-0.003	0.0015	4.4	31
0.0022	0.0015	-0.0046	0.0037	4.5	31
-0.0008	-0.0008	-0.0023	0.0037	4.6	31
-0.0015	-0.003	0.0015	0.0045	4.5	31
-0.0015	-0.0046	0.0007	0.0045	4.7	31
-0.0015	-0.0053	0.0007	0.0045	4.5	31
-0.0008	-0.0046	0.0015	0.0022	4.7	31
-0.0008	-0.003	0.0007	0.003	4.5	31
0	-0.0015	-0.0015	0.0045	4.7	31
0.0007	-0.0015	-0.0015	0.0007	4.8	31
0.0007	-0.003	0.0015	0.0007	5	31
0.0007	-0.0046	0.0007	0.0007	4.8	31
0	-0.0068	-0.0015	0.0007	5	31
-0.0008	-0.0046	-0.0008	0.0045	4.9	31
0.0015	-0.0046	0.0007	0.009	4.9	31
0.0007	-0.0046	0.0007	0.009	5	31
-0.0008	-0.0038	0.003	0.006	4.8	31
0.0015	-0.0038	0.0007	0.0022	5.1	31
0.0022	-0.003	-0.0008	-0.0046	4.9	31
0.0015	-0.0015	0.0007	-0.0091	5.4	31
0.0015	-0.0008	-0.0015	-0.0053	4.9	31
0.0015	0.0015	-0.0038	-0.0023	5.3	31
-0.0008	0.003	-0.0046	0.0045	5	31
0	0.0022	-0.003	0.0097	5.2	31
-0.0008	-0.0008	0.0007	0.0052	5.3	31
-0.0023	-0.0015	0.0015	0.0075	5.3	31
-0.0023	0.0007	0.0007	0.0067	5.1	31
-0.0023	-0.0008	0.0015	0.0052	5.3	31
0	0.0007	0.0015	0.0082	5.4	31
0.0007	0.0015	0.003	0.0067	5	31
0.0007	0	0.0015	0.006	5.5	31
0.0007	-0.0008	0.0015	0.0037	5.1	31
0.003	-0.0015	0.0007	0.0022	5.5	31
0.0015	-0.0015	-0.0008	-0.0008	5.3	31
0.0015	-0.003	-0.0008	0	5.3	31
0.003	-0.003	-0.0023	-0.0008	5.6	31
0.0022	-0.0015	-0.003	-0.003	5.2	31
0.003	0	-0.0023	-0.0015	5.7	31
0.0015	0.0007	0.0007	-0.0008	5.3	31
0.0015	0.0007	0	-0.0008	5.8	31
0.0007	0.0015	-0.0008	-0.0015	5.5	31
0.0007	0	-0.0008	-0.003	5.6	31
-0.0008	-0.0008	0.0007	-0.0015	5.7	31
-0.0015	-0.0008	0.0022	-0.0015	5.7	31
-0.0008	-0.0008	0.0015	-0.0015	5.8	31
0	-0.0008	0.0015	-0.0015	5.7	31
0.0007	-0.0008	0.0015	-0.0008	6	31
0.0007	0.0015	0.0007	0.0007	5.7	31
0.0015	0.0015	0.0022	0	6.1	31
0.0015	0.0037	0.003	0.0007	5.5	31
0.0007	0.0052	0.0015	0.003	6.1	31
0.0007	0.0067	0.0007	0.0015	5.8	31
-0.0008	0.006	0.0007	-0.0015	6	31
-0.0008	0.0045	0.0037	-0.0015	5.9	31
-0.0015	0.0045	0.0045	0.0015	5.9	31
-0.0015	0.0052	0.0007	0.003	6.2	31
-0.0008	0.006	-0.003	0.0045	6	31
-0.0015	0.006	-0.0008	0.0037	6.2	31
-0.0015	0.0045	0	0.003	6.1	31
0	0.006	-0.0015	0.0037	6	31
0.0007	0.0067	-0.0015	0.003	6.2	31
-0.0023	0.006	-0.0038	0.0015	6.3	31
-0.0038	0.0082	-0.003	0.003	6.1	31
-0.003	0.0105	-0.003	0.0037	6.3	31
-0.0023	0.021	-0.0008	0.003	6.3	31
-0.0008	0.0307	-0.0008	0.0022	6.3	31
-0.0015	0.0277	-0.0015	0.003	6.6	31
-0.0015	0.0187	-0.0008	0.0015	6.3	31
-0.0008	0.0052	-0.0015	0.003	6.8	31
0	-0.0008	0	0.0067	6.4	31
-0.0008	-0.0046	-0.0008	0.0037	6.7	31
0	-0.0068	-0.0015	0.0022	6.5	31
0.0015	-0.0083	-0.0015	0.0022	6.5	31
0.0007	-0.0135	0	0.0007	6.7	31
0	-0.0143	0.0007	-0.0015	6.6	31
-0.0015	-0.0143	0.0022	0.0007	6.5	31
0.0007	-0.012	0.0015	0.003	6.9	31
0.0007	-0.0143	0.0015	0.0022	6.6	31
0.0007	-0.0181	0.003	0.0067	6.8	31
0.003	-0.0203	0.003	0.009	6.8	31
0.003	-0.024	0.0007	0.0045	6.7	31
0.0007	-0.0233	0	0.0007	7	31
0	-0.0218	0.0007	0.003	6.7	31
-0.0008	-0.0181	0	0.003	7	31
-0.0008	-0.0158	0	0.0015	7	31
0.0015	-0.015	0	0.0052	7.1	31
0.0015	-0.0128	0.0007	0.003	7.3	31
-0.0008	-0.0113	-0.0008	0.0015	7	31
-0.0008	-0.0105	0.0007	0.0007	7.2	31
0.0015	-0.0091	0	0	7.4	31
0.0007	-0.0068	-0.0008	0.0007	7.4	31
-0.0015	-0.0083	0.0007	0	7.5	31
-0.0008	-0.0068	0	0.0022	7.6	31
-0.0008	-0.0046	0.0007	0.0015	7.3	31
0	-0.0038	-0.0015	0.0007	7.9	31
0.0007	-0.0023	-0.0008	-0.0015	7.5	31
0.0022	-0.0008	0.0007	-0.003	7.9	31
0.0037	-0.0008	0	-0.003	7.8	31
0.003	0	-0.0008	-0.0053	8	31
0.0022	0.003	-0.0008	-0.0046	8	31
0.003	0.0045	-0.0008	-0.003	7.9	31
0.0022	0.0067	-0.0015	-0.0038	8.1	31
0.0007	0.0067	-0.0008	-0.0046	8	31
0.0015	0.0075	0	-0.003	8.2	31
0.0007	0.0075	0	-0.0023	8.2	31
-0.0015	0.0052	0.0007	-0.0008	8.2	31
0.0007	0.0052	0.003	-0.0008	8.3	31
-0.0008	0.0037	0.0045	-0.0008	8.5	31
-0.0008	0.0067	0.003	0.0007	8.2	31
-0.0008	0.0067	0.0015	0.0015	8.5	31
-0.0008	0.0067	0.003	0.0015	8.7	31
0	0.0067	0.0015	0.0045	8.6	31
-0.0015	0.0045	0.0015	0.0045	8.9	31
0	0.0045	0.0015	0.0037	8.6	31
0.0007	0.003	0.0015	0.003	9.2	31
0.0022	0.003	0.0007	0.0015	8.7	31
0.0015	0.0022	0.0007	0.0022	9.3	31
0	0.0015	0.0022	0.0037	9	31
0	0.0015	0.0022	0.0045	9.4	31
0.0007	-0.0008	0.003	0.0037	9.4	31
0.0022	0	0.0007	0.0015	9.4	31
0.003	-0.0008	-0.0008	0.0022	9.5	31
0.003	-0.0008	0	0.0007	9.6	31
0.003	-0.0023	-0.0008	0	9.7	31
0.0015	-0.0046	-0.003	0	9.6	31
0	-0.0015	-0.003	0	10.1	31
0.0015	-0.0008	-0.0008	0.0015	9.9	31
0.0007	0	0	0.0007	10.3	31
-0.0008	0.0007	0.0007	0.0007	10.1	31
-0.0015	0.003	-0.0008	0.0015	10.5	31
-0.0015	0.0007	-0.0015	0.0015	10.2	31
-0.003	0.0007	0.0007	0.0007	10.4	31
-0.006	0.0022	-0.0015	0.0022	10.5	31
-0.0038	0.0022	-0.0015	0.003	10.7	31
-0.003	0.0022	-0.0008	0.0015	10.8	31
-0.0008	0.0007	-0.0008	0.003	10.7	31
-0.003	0.003	-0.0015	0.0015	11	31
-0.003	0.003	-0.0015	0.0007	11	31
-0.0023	0.0015	-0.0008	0.003	11.2	31
-0.0046	0.0022	-0.0015	0.003	11.3	31
-0.003	0.0045	-0.0008	0.0037	11.5	31
-0.0015	0.006	-0.0008	0.0045	11.3	31
-0.0008	0.0052	-0.0015	0.003	11.7	31
-0.0015	0.0045	0	0.0015	11.6	31
-0.0008	0.0037	0.0015	-0.0008	11.7	31
-0.0008	0.0037	0.0007	0	12	31
-0.0015	0.003	-0.0008	0.0015	11.8	31
-0.0015	0.0082	-0.0015	0.0007	12.3	31
-0.0015	0.0217	-0.0008	0.0007	12.1	31
0	0.0285	0.0007	0.0037	12.6	31
-0.0015	0.0232	0.0015	0.0022	12.2	31
-0.0008	0.0142	-0.0008	-0.0023	12.7	31
0	0.0022	-0.0015	-0.0023	12.8	31
0.0015	-0.0015	-0.0015	-0.0015	12.6	31
0.0007	-0.0068	0.0007	-0.003	13	31
-0.0008	-0.012	0	0.0022	13.2	31
-0.0008	-0.012	-0.0008	0.0052	13	31
0	-0.0128	0	0.0082	13.6	31
0.0015	-0.0113	0.0015	0.0082	13.3	31
0	-0.0158	0	0.0022	13.8	31
0.0015	-0.0203	-0.0008	0.0037	13.7	31
0.0007	-0.0225	-0.0008	0.0067	13.7	31
-0.0015	-0.024	0	0.0045	14.4	31
0.0007	-0.0218	0.0015	0.015	14	31
0	-0.0165	0.003	0.0202	14.4	31
-0.0015	-0.0158	0.0007	0.0067	14.4	31
-0.0023	-0.0143	-0.0015	0.003	14.6	31
-0.0015	-0.0105	-0.0008	0.0015	14.8	31
-0.0008	-0.0098	-0.0008	0.0022	14.8	31
0.0007	-0.0046	0.0007	0.003	15.1	31
0.0007	-0.003	-0.003	0	15.2	31
0.0007	-0.0046	-0.0023	-0.0008	15.2	31
0.0007	-0.0015	0.0007	-0.003	15.3	31
-0.0008	-0.0015	0.0015	-0.0015	15.8	31
0.0007	-0.0015	0.0007	-0.0008	15.6	31
0	-0.0015	0.0007	-0.0008	16.1	31
0.0007	-0.0008	0.0007	-0.0008	15.9	31
0.0015	-0.0015	-0.0015	-0.0038	16.6	31
0.0007	0	-0.0008	-0.003	16.2	31
0	-0.0008	-0.0008	-0.003	16.7	31
-0.0008	-0.0015	0.0007	-0.0038	16.7	31
-0.0008	0.0007	0.0015	-0.0053	17	31
-0.0015	0.0015	0.0007	-0.0083	17.1	31
-0.0015	0.0022	0	-0.0128	17.1	31
-0.0008	0.0015	-0.0008	-0.0128	17.5	31
0.0015	0.0015	-0.0008	-0.0053	17.6	31
0.0015	0.0015	0.0007	0.003	17.8	31
0.0007	-0.0015	-0.0008	0.0052	18	31
0.0015	-0.0008	-0.0023	0.0082	18.3	31
0.0007	-0.0015	-0.0023	0.0082	18	31
-0.0015	-0.006	-0.0015	0.0067	18.6	31
-0.0023	-0.006	0	0.0075	18.4	31
-0.003	-0.0053	0	0.012	18.9	31
-0.0023	-0.0068	0.0015	0.012	18.9	31
-0.0008	-0.0091	0.0015	-0.0015	19	31
0	-0.006	0.0015	-0.0015	19.5	31
0	-0.0015	0.0015	0.0037	19.2	31
0.0015	0	0.0022	0.003	19.8	31
0.0015	0.003	0.0037	0.0082	19.6	31
0.0015	0.0045	0.0015	0.0067	20	31
0	0.0052	0	0.003	20.2	31
-0.0008	0.0067	0.0007	0	20.3	31
0.0007	0.0082	0.0007	0.0007	20.6	31
0.0015	0.0112	-0.0008	0.0015	20.8	31
0.0007	0.0135	0	-0.0008	20.8	31
0.0022	0.0142	-0.0015	-0.0023	21.2	31
0.0015	0.0157	-0.0015	-0.0046	21.3	31
0	0.0165	-0.0008	-0.0023	21.5	31
0.003	0.015	-0.0023	-0.003	21.9	31
0.003	0.0135	-0.0015	-0.0046	21.8	31
0.0022	0.0127	-0.0038	-0.0068	22.4	31
0.0022	0.0097	-0.006	-0.0068	22.2	31
0.0015	0.009	-0.0053	-0.0083	22.9	31
0.0022	0.012	-0.0046	-0.012	22.7	31
0.0015	0.0172	-0.0015	-0.0113	23.2	31
0.0015	0.0315	-0.0015	-0.012	23.4	31
0.0007	0.0345	-0.0015	-0.0091	23.5	31
0.0015	0.0315	-0.0008	0.0007	23.7	31
0.0015	0.027	-0.0008	0.0157	23.9	31
0.003	0.009	0.0015	0.0195	24.4	31
0.003	-0.012	0.0015	0.0097	24.6	31
0.0007	-0.0256	0.003	0.0052	24.9	31
-0.0008	-0.0278	0.0075	0	24.9	31
-0.0015	-0.0256	0.0067	-0.0015	25.4	31
-0.0015	-0.0218	0.0007	-0.0015	25.5	31
-0.0008	-0.021	0.0007	0	25.7	31
-0.0008	-0.0203	0.0037	0.0052	26	31
-0.0008	-0.0203	0.0052	0.003	26.2	31
-0.0015	-0.0195	0.0037	-0.0015	26.7	31
-0.0015	-0.021	-0.0008	0.003	26.6	31
-0.003	-0.0218	0.0007	0.0082	27.4	31
-0.0023	-0.0195	-0.0008	0.0052	27.3	31
-0.003	-0.0195	-0.0008	0.0075	27.7	31
-0.003	-0.0158	0.0015	0.0127	28	31
-0.003	-0.0105	0	0.0097	28.2	31
-0.003	-0.0105	0	0.0052	28.3	31
-0.003	-0.0091	0.0015	0.0082	29	31
-0.0008	-0.0105	0.0007	0.0067	28.8	31
0.0007	-0.0091	0.0015	0.0015	29.6	31
0	-0.0083	0.0022	-0.0023	29.5	31
0.0007	-0.0075	0.0007	-0.006	30	31
0.0007	-0.0046	0	-0.0075	30.3	31
0	-0.0023	0	-0.0113	30.5	31
-0.0008	-0.0023	-0.0008	-0.0083	30.9	31
0.0007	-0.0008	-0.0008	0	31	31
0.0007	-0.0008	-0.0008	0.0045	31.5	31
0	0.0007	0.0007	0.009	31.8	31
0.0007	0.0045	-0.0023	0.0082	31.9	31
0.0015	0.0037	-0.0015	0.0015	32.4	31
0.0007	0.003	-0.0023	0.0022	32.6	31
0.0007	0.003	-0.003	0.009	33.1	31
0.003	0.003	-0.0015	0.0195	33.5	31
0.0022	0.003	-0.0015	0.0195	33.7	31
0.0007	-0.0008	-0.0008	0.0015	34.1	31
0.0022	0.0045	0.0007	-0.003	34.5	31
0.0022	0.0075	-0.0008	0.0052	34.7	31
0.0015	0.006	0.0007	0.003	35.3	31
0.0015	0.0067	0.003	0.0045	35.3	31
0.0007	0.0045	0.003	0.0067	36.2	31
0.0015	0.0045	0.0037	0.006	36	31
0.0022	0.0052	0.0037	0.006	36.8	31
0.0015	0.0045	0.0052	0.0052	37	31
0	0.003	0.0037	0.0007	37.4	31
-0.0008	0.003	0.0015	-0.003	37.8	31
-0.0008	0.0052	0.0022	-0.0046	38.2	31
-0.0015	0.0052	0.0015	-0.0038	38.5	31
0	0.0052	0.003	0.0007	38.8	31
0	0.0067	0.0037	0	39.3	31
-0.0015	0.0052	0.0015	-0.0046	39.6	31
-0.0023	0.0052	-0.0008	0.0007	40.2	31
-0.0008	0.0075	-0.0015	0	40.2	31
-0.0008	0.0112	-0.0008	-0.0075	40.9	31
-0.0008	0.0127	-0.0008	-0.003	41	31
0	0.0112	-0.0008	0.0015	41.8	31
0	0.012	-0.0015	-0.0008	41.8	31
-0.0015	0.0112	-0.0023	-0.003	42.5	31
-0.0015	0.0105	-0.0038	-0.003	42.7	31
-0.0008	0.0105	-0.003	0.0007	42.9	31
-0.0008	0.0082	-0.0008	0.0015	43.6	31
-0.0008	0.009	0	0.003	43.8	31
-0.0008	0.0157	0.0007	0.0037	44	31
0.0007	0.0292	-0.0023	0.0045	44.4	31
0.0007	0.0367	-0.0015	0.003	44.6	31
0	0.033	-0.0023	0.0015	44.8	31
0.0007	0.0285	-0.003	0.0015	45.4	31
-0.0008	0.0142	-0.0008	0.0007	45.5	31
0	0.0015	-0.0023	0	45.8	31
0.0007	-0.0023	-0.003	-0.0015	46.2	31
0.0022	-0.0075	-0.003	-0.0023	46.3	31
0.0052	-0.0105	-0.0015	-0.0053	46.9	31
0.0045	-0.0128	-0.0015	-0.0083	46.8	31
0.003	-0.0143	-0.0015	-0.0038	47.5	31
0.0022	-0.015	-0.0008	0.006	47.3	31
0.0015	-0.0181	-0.0023	0.0165	47.8	31
0.0007	-0.0195	-0.0038	0.0172	48	31
0.0022	-0.024	-0.0046	0.0082	48.1	31
0.0007	-0.0256	-0.003	0.0007	48.3	31
0	-0.0218	-0.0046	-0.0008	48.4	31
0.0007	-0.0195	-0.0023	0.003	48.5	31
-0.0015	-0.0173	-0.0015	0.0015	49	31
-0.0023	-0.0158	-0.0015	0.0015	49	31
-0.0038	-0.0143	-0.003	0.0015	49.1	31
-0.0038	-0.012	-0.0015	0.0015	49.5	31
-0.0023	-0.0113	-0.0015	0.003	49.4	31
-0.0008	-0.0091	-0.0015	0.0037	49.8	31
0.0007	-0.006	-0.0008	0.0052	49.8	31
0.003	-0.0053	-0.0015	0.003	50	31
0.0037	-0.003	-0.0015	0.0015	50.4	31
-0.0008	0	-0.0008	0.0022	50.4	31
-0.0023	-0.0008	0	0.0015	50.6	31
-0.0023	-0.0008	0	0.0015	50.4	31
0.0022	0.0007	0	0.0007	50.8	31
0.0052	0.0007	-0.0008	-0.0008	51	31
0.0045	0.0015	0	-0.0015	51.1	31
0.003	0.0045	0.0007	-0.0008	51.1	31
-0.0008	0.003	-0.0008	-0.0008	51.6	31
-0.0023	0.0007	-0.0008	-0.0008	51.2	31
-0.0053	0.0015	0.0007	-0.0008	51.7	31
-0.003	0.0007	0.0022	0.0007	51.3	31
0	0.003	0.0015	0	51.6	31
0.0015	0.0022	0.003	0.0007	51.6	31
0.003	0.0007	0.0045	0.0015	51.6	31
0.0007	-0.0008	0.0045	0.0007	52	31
0.0015	-0.0015	0.0045	0.0015	51.8	31
0.0007	-0.0015	0.0045	-0.0008	52	31
0.0007	-0.0015	0.0037	-0.0015	52.1	31
0.0007	-0.0023	0.0007	-0.003	52.2	31
0	-0.0023	0.0007	-0.0008	52.2	31
0.0015	-0.003	0.0015	0.0007	52.4	31
0.0007	-0.0023	0.003	-0.0015	52.4	31
0.0007	-0.0008	0.003	-0.0053	52.6	31
0.0007	0.0007	0.0015	-0.0091	52.7	31
-0.0023	0.003	0.0007	-0.006	52.7	31
-0.0023	0.0045	-0.0008	-0.0015	53	31
-0.003	0.003	-0.0015	0.003	52.6	31
-0.0046	0.003	-0.0015	0.0022	53.4	31
-0.0015	0.006	-0.0008	0.0052	53.3	31
-0.0008	0.0045	-0.0008	0.0112	53.6	31
0.0007	0.0015	-0.0008	0.0067	53.6	31
0.0015	0.0007	0	0.0015	53.8	31
0.0015	0.003	-0.0015	0.0007	54	31
-0.0008	0.0052	-0.0008	0.003	53.9	31
-0.0015	0.0082	-0.0023	0.0015	54.4	31
-0.0015	0.0127	-0.003	-0.0015	54.4	31
-0.0015	0.0225	-0.0038	-0.0015	54.5	31
-0.0008	0.033	-0.006	-0.003	54.9	31
-0.0008	0.0337	-0.0068	0.0052	55.1	31
-0.0015	0.0255	-0.0038	0.0172	55.1	31
-0.0015	0.0052	-0.0038	0.0142	55.7	31
-0.0008	-0.0083	-0.003	0.0067	55.6	31
0	-0.0098	-0.0015	0.0082	55.9	31
0.0022	-0.0165	-0.0015	0.0075	56.1	31
0.0037	-0.0195	-0.0015	0.003	56.1	31
0.0037	-0.0195	-0.0015	0.0015	56.8	31
0.0015	-0.0233	-0.0023	-0.0008	56.5	31
0.0007	-0.0256	-0.003	0.0015	57.1	31
0	-0.0248	-0.0023	0.0037	56.9	31
-0.0008	-0.0233	-0.003	0.0037	57.5	31
-0.0008	-0.0233	-0.0015	0.0037	57.6	31
-0.0015	-0.0225	0	0.0015	57.6	31
0.0007	-0.0203	-0.0008	0.0007	57.8	31
0.0015	-0.0188	0.0015	0.0015	58	31
0.003	-0.0173	0.0022	0.0022	58	31
0.003	-0.0165	-0.0008	0.003	58.3	31
0.003	-0.0158	-0.0015	0.0022	58.7	31
0.0045	-0.0143	-0.0008	0.0045	58.5	31
0.0015	-0.0128	0	0.0045	59.2	31
0.0022	-0.0105	-0.0008	0.003	58.9	31
0.0022	-0.0098	0	0.0037	59.5	31
0.0015	-0.0075	-0.0008	0.003	59.4	31
0.0015	-0.0068	-0.0038	0.003	59.7	31
0	-0.0068	-0.003	0.003	59.9	31
-0.0015	-0.0068	-0.003	0.0022	59.9	31
-0.0015	-0.006	-0.003	0.003	60.4	31
-0.0015	-0.006	0.0007	0.0015	60.2	31
-0.0015	-0.0068	0.0022	0	60.5	31
-0.003	-0.0053	0.0052	-0.0015	60.7	31
-0.0015	-0.0023	0.0052	-0.003	60.9	31
-0.0015	0.0007	0.003	-0.0053	60.9	31
-0.003	0.0007	0.003	-0.0046	61.2	31
-0.0023	0.0022	0.0022	0	61.2	31
-0.0038	0.003	0.0045	0	61.4	31
-0.0023	0.0067	0.0052	-0.0008	61.9	31
-0.0008	0.006	0.0045	0.0037	61.6	31
-0.0008	0.0082	0.0052	0.0015	62.1	31
-0.0008	0.0082	0.0037	-0.003	61.7	31
-0.0015	0.0097	0.0052	-0.0008	62.3	31
-0.0015	0.0195	0.0052	-0.0015	62	31
-0.0046	0.0337	0.0052	-0.0008	62.4	31
-0.0046	0.042	0.006	0.0007	62.3	31
-0.003	0.0375	0.0037	0.0067	62.4	31
-0.003	0.0337	0.0015	0.0082	62.5	31
-0.0015	0.021	0.0007	0.0015	62.9	31
0.0015	0.0037	0.0007	0.0052	63	31
0.0015	-0.0023	0.0015	0.0037	63	31
0.0022	-0.0053	0.0015	0.003	62.9	31
0.0015	-0.0098	0.003	0.003	63.1	31
0.0007	-0.0135	0.0037	0.0007	63.4	31
-0.0008	-0.0165	0.0052	0.0022	63.4	31
-0.0008	-0.0195	0.0045	0.003	63.7	31
-0.0015	-0.0203	0.0045	0.003	63.5	31
-0.0046	-0.0181	0.0022	0.0022	63.7	31
-0.0023	-0.0158	0.0007	0.003	64	31
0.0007	-0.0165	0.0015	0.0022	64	31
0	-0.0195	0.0015	0.0007	64.3	31
0	-0.0165	0	0.0007	64	31
-0.0015	-0.012	0.0007	-0.0008	64.6	31
-0.0008	-0.0068	0.0007	-0.0015	64.6	31
-0.0008	-0.0046	0.0007	-0.0023	64.8	31
-0.003	-0.0046	0.0022	-0.0008	64.9	31
-0.0015	-0.0053	0.003	-0.0015	65.3	31
-0.0008	-0.0075	0.0022	-0.0038	64.9	31
0.0015	-0.0068	0.003	0.003	65.3	31
0.0037	-0.0046	0.0052	0.0082	65.3	31
0.0037	-0.0038	0.0052	0.009	65.4	31
0.0015	0.0037	0.003	0.0075	65.7	31
0.0015	0.0067	0.0007	0.003	65.5	31
0.0045	-0.003	0.0007	0.0015	65.7	31
0.0045	-0.0083	0.0015	0.0007	65.7	31
0.0052	-0.0083	0.0007	-0.0008	65.8	31
0.0037	-0.0083	-0.0008	-0.003	66	31
0.0015	-0.0053	-0.0015	-0.0053	65.8	31
0.0015	-0.003	-0.0023	-0.0068	66.1	31
0.0007	0.0015	-0.0053	-0.006	66.1	31
-0.0008	0.0052	-0.0053	-0.0053	66.1	31
-0.0008	0.006	-0.0053	-0.0015	66.2	31
-0.0015	0.0052	-0.0053	0.0015	66.1	31
-0.003	0.0075	-0.0053	0.0052	66	31
-0.0015	0.0075	-0.0046	0.0052	66.4	31
0.0015	0.0105	-0.0046	0.0015	66	31
0.0015	0.0157	-0.0053	-0.0015	66.4	31
-0.0008	0.0142	-0.0046	-0.0015	66	31
-0.0015	0.0165	-0.0038	0.0015	66.3	31
0	0.018	-0.0038	0.0045	66.2	31
0.0015	0.0202	-0.0053	0.0082	66.1	31
0.0022	0.0217	-0.0046	0.009	66.3	31
0.0015	0.0277	-0.0053	0.0075	66	31
0.0007	0.0427	-0.0068	0.0052	66.3	31
-0.0023	0.0502	-0.006	0.0022	66.2	31
-0.0046	0.0427	-0.0068	0.003	66.1	31
-0.0015	0.0352	-0.0053	0.0007	66	31
-0.0046	0.027	-0.0068	0.0022	66.1	31
-0.0046	0.0105	-0.006	0.0067	65.8	31
-0.0038	-0.0046	-0.0068	0.009	65.8	31
-0.0046	-0.012	-0.0075	0.0082	65.9	31
-0.0023	-0.0188	-0.006	0.0022	65.6	31
-0.0015	-0.0233	-0.0083	0.0007	65.8	31
-0.0008	-0.0195	-0.0083	-0.0023	65.4	31
-0.0008	-0.0188	-0.0068	-0.0038	65.7	31
-0.0015	-0.0233	-0.0053	-0.0023	65.1	31
-0.0008	-0.0203	-0.0038	-0.0015	65.3	31
-0.0008	-0.0165	-0.003	-0.0008	65.2	31
-0.0008	-0.0135	-0.0015	0.0045	65.2	31
0	-0.012	0.0007	0.0082	65.2	31
0.0015	-0.0173	0.003	0.0045	64.7	31
0.0037	-0.0135	0.0022	0.0007	64.8	31
0.0045	-0.0098	0.0015	-0.0046	64.7	31
0.0037	-0.0188	0.0007	-0.003	64.6	31
0.0045	-0.0165	-0.0015	0.0037	64.2	31
0.0037	-0.015	-0.0008	0.0015	64.5	31
0.0037	-0.0173	0.0007	-0.0015	63.8	31
0.0037	-0.015	0.0007	-0.003	64.3	31
0.0037	-0.0165	0.0015	0.0007	63.7	31
0.0052	-0.0158	0.0015	0.009	63.8	31
0.003	-0.0181	0.0007	0.0067	63.7	31
0.003	-0.0173	0.0015	-0.0038	63.3	31
0.0022	-0.0143	0	-0.0053	63.5	31
0.0037	-0.012	0.0007	-0.0008	62.9	31
0.0052	-0.0113	0.0007	0.0015	63.2	31
0.0022	-0.0158	0.0007	0.003	62.5	31
0.0007	-0.0113	0.0015	-0.0008	62.5	31
-0.0023	-0.0068	0.0007	-0.0053	62.3	31
-0.003	-0.0038	0.0007	-0.003	62.1	31
-0.0015	0.0015	-0.0008	0.0007	62	31
-0.0008	0.0165	-0.0015	0	61.8	31
0	0.0292	-0.0023	0.0007	61.7	31
-0.003	0.018	-0.0023	0.0015	61.1	31
-0.0046	0.009	-0.0008	0.0015	61.3	31
-0.0053	0.0075	0	0.0015	60.6	31
-0.0046	0.0052	0.0007	-0.0015	60.9	31
-0.003	0.0097	0	-0.0008	60.3	31
-0.003	0.0105	-0.0008	-0.0015	60.3	31
-0.0008	0.015	-0.0023	-0.0053	59.9	31
0.0007	0.0187	-0.0038	0	59.6	31
0.0022	0.0157	-0.003	0.0052	59.7	31
0.003	0.0165	-0.0046	0.003	59.1	31
0.003	0.0172	-0.0038	0.0052	59.1	31
0.0052	0.0195	-0.0015	0.0052	58.9	31
0.0052	0.0247	0.0015	0.003	58.4	31
0.0052	0.024	0.0015	0.003	58.4	31
0.0052	0.0247	0.003	0	58.3	31
0.0037	0.0352	0.0015	-0.0023	57.8	31
0.003	0.042	0.0007	-0.003	57.7	31
0.0022	0.0405	0.0015	-0.0015	57.6	31
0.0022	0.0405	0.0022	0.0015	57.1	31
0.0015	0.0367	0.003	0.0045	57.1	31
-0.0008	0.033	0.0022	0	56.5	31
0.0007	0.0285	0.0015	-0.0038	56.9	31
0.0007	0.024	0.0015	-0.0015	56.3	31
0	0.0202	0.003	0.0045	56.4	31
0.0007	0.0172	0.003	0.0172	55.9	31
0.0015	0.0067	0.0007	0.012	55.9	31
0.0037	-0.0091	0.0007	0.003	55.7	31
0.003	-0.021	0	0.006	55.5	31
0.0022	-0.0263	0.0022	0.003	55.2	31
0.003	-0.0315	0.006	0.0007	55.2	31
0.003	-0.0346	0.006	-0.0023	54.8	31
0.003	-0.0368	0.003	-0.0091	54.5	31
0.0015	-0.0383	0.0052	-0.0165	54.5	31
0.0015	-0.039	0.0052	-0.0173	54.2	31
0.0007	-0.042	0.0007	-0.0023	54.1	31
0.0007	-0.0398	-0.0015	0.0112	53.7	31
0	-0.0383	-0.003	0.018	53.7	31
-0.003	-0.0353	-0.0015	0.0277	53.5	31
-0.003	-0.0285	0.0007	0.0232	53.1	31
-0.0015	-0.0203	0.003	0.012	53.2	31
-0.0015	-0.021	0.0052	0.0045	52.6	31
-0.003	-0.0233	0.0037	-0.0083	52.7	31
-0.0038	-0.0218	0.003	-0.0023	52.5	31
-0.0038	-0.0203	0.003	0.0007	52.3	31
-0.0053	-0.0188	0.003	-0.0023	52.1	31
-0.0038	-0.0195	0.0015	-0.0053	51.7	31
-0.003	-0.015	0.003	-0.0083	51.4	31
-0.0046	-0.0128	0.0015	0.0015	51.7	31
-0.0038	-0.015	0.0015	0.015	51	31
-0.0038	-0.0188	0.0037	0.0135	51.3	31
-0.0046	-0.0181	0.0045	0.0007	51	31
-0.0046	-0.012	0.003	0.0045	50.7	31
-0.0053	-0.0098	0.0015	0.003	50.5	31
-0.0046	-0.003	0.0007	0.003	50.4	31
-0.0023	0.0142	0.0015	0.0022	50.4	31
-0.0023	0.0232	0.0015	-0.0091	49.9	31
-0.0023	0.0165	-0.0008	-0.0203	49.9	31
-0.0015	0.0075	-0.0008	0.0015	49.6	31
-0.003	0.0015	0	0.0315	49.5	31
-0.0015	0.0045	-0.0008	0.0187	49.5	31
-0.0008	0.012	-0.003	0.0015	49.1	31
0	0.0165	-0.0008	-0.0128	48.9	31
0.0015	0.024	0.0015	-0.006	48.9	31
0	0.0405	0.0015	-0.0008	48.5	31
-0.0008	0.0517	0.0022	-0.006	48.2	31
0	0.0592	0.0015	-0.003	48.3	31
-0.0015	0.066	0.0015	-0.0068	47.7	31
-0.0008	0.0532	0.003	-0.0008	48.1	31
0.0015	0.0375	0.003	0.0082	47.2	31
0.003	0.0255	0.0015	0.0037	47.6	31
0.003	0.0187	0.003	-0.0128	46.9	31
0.003	0.012	0.003	-0.0165	47	31
0.0015	-0.0015	0.0015	0.0037	46.7	31
0.0015	-0.0105	0.0022	0.0165	46.4	31
0.0022	-0.012	0.003	0.0135	46.2	31
