File Name: 10Apie.log
Channel 1: 'Recto femoral', 16748 values, engineering units: mV, no filters.
Channel 2: 'Biceps Femoral', 16748 values, engineering units: mV, no filters.
Channel 3: 'Vasto Medial', 16748 values, engineering units: mV, no filters.
Channel 4: 'Semitendinoso', 16748 values, engineering units: mV, no filters.
Channel 5: 'Flexo', 16748 values, engineering units: deg, no filters.
Digitals combined (event=16, d=8, c=4, b=2, a=1): 16748 values, .

-0.0008	-0.0053	-0.0008	0.0007	9.1	31
0.0007	-0.0158	-0.0008	-0.0008	9	31
0.003	-0.0091	-0.0008	-0.0015	9.5	31
0.0022	-0.0098	-0.0023	-0.003	9.1	31
0.0022	-0.0075	-0.0015	-0.0038	9	31
0.0015	-0.0068	-0.0015	-0.003	9.2	31
0.0007	-0.0083	-0.003	-0.0023	9.3	31
0	-0.0038	-0.0015	-0.0015	9.2	31
0	-0.0053	-0.0023	-0.0015	9.2	31
-0.0008	-0.0023	-0.0038	0	9.1	31
-0.003	-0.0015	-0.0046	0.0015	9.4	31
-0.0015	0.003	-0.0046	0.003	9.4	31
-0.0008	0.0007	-0.0053	0.0015	9	31
-0.0015	0.003	-0.0068	0.006	9.4	31
-0.0023	0.0045	-0.0046	0.0067	9.2	31
-0.0023	0.003	-0.0023	0.0045	9	31
-0.0008	0.0007	-0.0008	0.0105	9.4	31
-0.0008	-0.003	0.0022	0	9.1	31
-0.0008	-0.003	0.0037	-0.0038	9.2	31
-0.0015	-0.006	0.0045	0.0067	9.4	31
-0.0008	-0.006	0.0037	0.0067	9	31
-0.0015	-0.0083	0.0007	0.0082	9.3	31
-0.003	-0.0075	0.0007	0.0052	9.2	31
-0.0023	-0.0053	0.0045	0.0045	9.2	31
-0.0008	0.0037	0.0045	0.0067	9.1	31
0	0.0202	0.003	0.0052	9.3	31
-0.0015	0.0255	0.003	0.0022	9.2	31
-0.0008	0.0022	0.0007	-0.0023	9	31
-0.0015	-0.0053	0.0007	-0.0038	9.3	31
-0.0015	0.0015	0.0007	-0.0023	9.1	31
-0.0015	-0.0158	0.0007	-0.0015	9.3	31
-0.0023	-0.0135	0.0015	-0.003	9.3	31
-0.0015	-0.0098	0.0015	-0.0098	9.1	31
-0.0015	-0.0105	0.0007	-0.0158	9.4	31
0	-0.0165	0	-0.015	9	31
-0.0008	-0.0293	0.0007	-0.0128	9.5	31
-0.0015	-0.0203	-0.0008	0.0007	9	31
0.0007	-0.0165	-0.0008	0.0187	9.2	31
0	0.0022	0.0015	0.0127	9.2	31
0.0007	0.0577	0.0015	0.0037	9.2	31
0.0022	0.0772	-0.0008	0.0052	9.1	31
0.0022	0.0225	-0.0015	-0.0105	9.4	31
0.0015	0.0015	-0.003	-0.0143	9	31
0.003	-0.0015	-0.0023	-0.003	9.4	31
0.0045	-0.0128	-0.0008	0.0082	9	31
0.0037	-0.0098	-0.0008	0.009	9.5	31
0.0022	-0.0195	-0.0008	-0.0015	9.1	31
0.003	-0.0143	0	0.003	9.1	31
0.003	-0.0188	0.0007	0.0007	9.4	31
0.003	-0.0165	0.0015	0.0015	9	31
0.003	-0.0008	0.003	0.0045	9.4	31
0.0022	0.0255	0.0015	0.0052	9	31
-0.0008	0.0225	0.0022	0.0052	9.4	31
-0.0008	-0.0008	0.0015	0.0007	9.2	31
-0.0008	-0.006	0.0022	-0.0008	9.2	31
0.0007	-0.0165	-0.0008	0.0007	9.3	31
0.0015	0.0172	0	0.0045	9.4	31
-0.0008	0.0285	0.0007	0.003	9	31
-0.0015	-0.0075	-0.0008	0.0015	9.4	31
-0.0008	-0.0173	0.0015	0.0037	9.2	31
-0.0023	-0.0105	0.0007	0.0037	9.3	31
-0.0008	0.003	0	0.0067	9.2	31
-0.0008	0.0225	0.0007	0.0067	9.1	31
-0.0008	0.0135	-0.0015	0.0052	9.3	31
-0.0008	-0.003	-0.0015	0.003	9.1	31
-0.0015	-0.012	-0.0015	0.003	9.4	31
-0.003	-0.0143	-0.0015	0.0015	9.1	31
-0.0015	0.0045	-0.0015	-0.0015	9.4	31
-0.0015	0.0097	-0.0008	-0.0068	9.1	31
-0.0008	-0.003	0.0015	-0.0091	9.4	31
-0.0008	0.003	0.0015	-0.0023	9.4	31
0	0.0127	0.003	0.0082	9.3	31
0.0015	-0.0195	0.0037	0.006	9	31
0.0007	-0.0293	0.003	-0.0023	9.2	31
-0.0015	-0.0173	0.003	-0.0015	9.4	31
-0.0008	-0.0091	0.003	0.0007	9.1	31
-0.0015	0.0142	0.0037	0.0075	9.4	31
0.0007	0.009	0.0007	0.0112	9.1	31
0.0007	0.018	-0.0008	0.0052	9.4	31
0.0007	0.024	0.0007	0.003	9	31
0.0015	0	0.0007	0.0052	9.5	31
0	0.0007	0.0015	0.0045	9.1	31
0.0022	0.0007	0.0007	0.0045	9.4	31
0.0015	-0.0075	-0.0008	-0.0015	9.2	31
-0.0008	-0.0128	-0.0008	-0.0068	9	31
0.0007	-0.0143	-0.0015	-0.0015	9.3	31
0.0007	0.0015	-0.0015	0.0007	9.1	31
0.0015	0.0007	0.0007	0.003	9.2	31
0.0022	-0.0023	0.0015	0.0037	9.3	31
0.003	-0.0023	0.0007	0.003	9.2	31
0.003	-0.0015	0.0007	0.0015	9.3	31
0.003	-0.003	-0.0008	0.0022	9.3	31
0.0022	-0.0091	-0.0023	0.0022	9.1	31
0.0015	-0.0143	-0.003	-0.003	9.4	31
-0.0008	-0.0158	-0.0038	-0.003	9	31
0	-0.012	-0.0046	-0.0015	9.3	31
0.0007	-0.0135	-0.0046	0	9.1	31
-0.0008	-0.0046	-0.003	0.0015	9.1	31
-0.0008	0.0157	-0.0046	0.0045	9.4	31
0	0.027	-0.003	0.0015	9	31
-0.0008	0.0082	-0.0023	-0.0008	9.5	31
0.0007	-0.0015	-0.003	0.003	9.4	31
0.0007	-0.0008	-0.003	0.009	9.2	31
-0.0015	-0.0083	-0.0038	0.0195	9.1	31
-0.0015	-0.0046	-0.0015	0.0142	9.3	31
-0.0015	-0.0128	-0.0015	0.0022	9.2	31
-0.0015	-0.012	0.0007	0.0045	9.5	31
-0.0015	-0.0098	0.0007	0.0045	9.1	31
-0.0008	-0.0091	-0.0015	0.0007	9.4	31
-0.0008	-0.0091	-0.0015	-0.0046	9	31
-0.0008	-0.0128	-0.0008	-0.006	9.4	31
-0.0008	-0.0128	0	-0.0046	9	31
-0.0008	-0.0203	0.0007	-0.0053	9.4	31
-0.0015	-0.033	0.0007	-0.006	9.2	31
-0.0015	-0.0256	0.0007	-0.0068	9.2	31
-0.0008	0	0.0007	-0.006	9.4	31
-0.0015	0.0217	0.003	-0.0046	9.2	31
-0.0015	0.0427	0.0022	0.0007	9.1	31
-0.0008	0.0472	0.0007	0.0067	9.3	31
-0.0008	0.0352	0.0022	0.0105	9.2	31
-0.0008	0.0315	0.0015	0.0045	9.1	31
-0.0008	0.0217	-0.0008	0.003	9.4	31
-0.0015	0.015	-0.0015	0.009	9	31
-0.0008	0.0165	0	0.0067	9.4	31
0	0.003	0.003	0.0045	9.2	31
0.0015	-0.003	0.0015	0.0007	9	31
0.0007	-0.0046	0.0015	0.003	9.3	31
0.0015	-0.0068	0.0015	0.003	8.9	31
0.003	-0.0046	0.0015	0.0037	9.4	31
0.0015	-0.0083	0.0007	0.003	9	31
0.0007	-0.0091	-0.0008	-0.0038	9.3	31
0.0015	-0.0091	-0.0008	-0.0015	9	31
0.0015	-0.012	-0.003	-0.003	9	31
0.0015	-0.0143	-0.003	-0.0015	9.3	31
0.003	-0.0158	-0.003	0.0022	9.3	31
0.003	-0.015	-0.003	0.0045	9.2	31
0.0015	-0.0165	-0.0015	0.0015	9.3	31
0.0007	-0.0188	0	-0.0038	9.3	31
-0.0008	-0.0143	0.0015	-0.0038	9	31
0.0007	0.0075	0.0015	-0.003	9.4	31
0	0.018	0.0022	-0.003	9	31
-0.0008	0.003	0.003	-0.003	9.4	31
-0.0008	0.0105	0.0015	0	9	31
-0.0015	0.015	0.0007	-0.003	9.2	31
-0.0038	-0.0165	0	-0.0075	9.1	31
-0.0038	-0.0256	0.0015	-0.0053	9.2	31
-0.0023	-0.015	0.003	-0.003	9.1	31
-0.0008	-0.0015	0.0015	0.0007	9.1	31
0	0.0172	0.0015	0.0045	9.3	31
0	0.0195	0.0007	0.0052	9.1	31
0	0.0352	0.0007	0.0075	9.1	31
0.0007	0.0487	0.0007	0.0082	9.2	31
-0.0008	0.0142	-0.0008	0.0052	9.3	31
-0.0008	0.0022	0.0015	0.006	9	31
-0.0008	-0.0091	0.0015	0.0052	9.2	31
-0.0015	-0.0285	0.0015	0.0052	9	31
-0.0008	-0.0158	0.0007	0.0037	9.1	31
-0.0015	-0.0128	-0.0015	-0.0008	9.3	31
0	-0.0165	-0.0046	-0.0015	9.1	31
-0.0015	-0.0135	-0.0046	0.0022	9.3	31
-0.0008	0.003	-0.0046	0.003	9	31
0.0022	0.0397	-0.003	0.0015	9.2	31
0.0022	0.0465	-0.003	-0.0008	9	31
0.0007	0.003	-0.0038	-0.0038	9.4	31
0.0007	0.0022	-0.003	0	9.2	31
0.003	-0.006	-0.0023	0.0015	9.2	31
0.0015	-0.0218	-0.0023	0.0007	9.3	31
0.0007	-0.015	-0.0015	0.0015	9.3	31
-0.0008	-0.0128	0.0015	0.0022	9	31
-0.0008	0.012	-0.0008	0.0037	9.2	31
-0.0015	-0.0038	-0.0008	0.0015	9.3	31
-0.003	-0.0181	0	0.0015	9.4	31
-0.0023	-0.012	0.0015	0.0015	9.3	31
-0.0008	-0.0038	0.0052	-0.0015	9	31
0	0.009	0.006	-0.0015	9.4	31
-0.0008	-0.0068	0.0067	-0.0046	9.1	31
0.0007	-0.0158	0.0052	-0.0053	9.3	31
0.0007	-0.0158	0.0045	-0.0083	9.2	31
0.0015	-0.0195	0.0022	-0.0083	9.1	31
0.0045	-0.0083	0.0022	0.0142	9.3	31
0.0037	0.003	0.0037	0.036	9.3	31
0.003	-0.0015	0.0022	0.03	9.3	31
0.0022	-0.0135	0.0015	0.0165	9.2	31
0.0015	-0.024	0.0007	0.0067	9.1	31
0.0022	-0.0181	0.0007	0.0127	9.2	31
0.0007	-0.0015	-0.0015	0.0157	9.4	31
0.0007	0.0045	-0.0023	0.0105	9	31
0.0015	0.0127	0	0.0067	9.4	31
0.0015	0.0075	-0.0008	0.0007	9	31
0.0015	0.0285	-0.0008	0.0037	9.5	31
0.0015	0.06	-0.0015	0.003	9.2	31
0.0022	0.0202	-0.0015	-0.0053	9.3	31
0.0007	0.0045	-0.0015	-0.0135	9.4	31
0.0007	0.003	-0.003	-0.0195	9	31
0	-0.0181	-0.003	-0.0188	9.3	31
0.0007	-0.012	-0.0023	-0.012	9.1	31
0.0007	-0.012	-0.0023	0.009	9.1	31
-0.0008	-0.0105	-0.0015	0.0165	9.2	31
-0.0008	-0.012	-0.003	0	9.2	31
0.0015	-0.0083	-0.0046	-0.0008	9.2	31
0.0015	0.003	-0.0015	0.0097	9.4	31
0.0007	0.0067	0	0.0142	9	31
-0.0008	0.0045	0.0007	0.0015	9.3	31
-0.0008	-0.0053	-0.0008	-0.0098	9.2	31
-0.0008	-0.006	-0.0023	-0.0046	9.1	31
0.0007	-0.0068	-0.0015	-0.0053	9.4	31
0.0007	-0.0053	-0.0015	-0.0023	9	31
-0.0008	0.0007	-0.0008	0.0007	9.5	31
0	0.0045	0.0007	-0.0008	9	31
-0.0015	0.0015	0.0007	-0.003	9.5	31
-0.0015	-0.0008	0	-0.0068	9.1	31
-0.0008	0.0015	-0.0008	-0.0046	9.3	31
-0.0015	-0.0083	-0.0008	-0.0046	9.3	31
-0.0015	-0.0098	0.0007	-0.0038	9.1	31
-0.0038	-0.0105	0.0007	-0.0023	9.1	31
-0.0046	-0.0105	0.0015	-0.0008	9.3	31
-0.0053	-0.0068	0.0007	0	9.4	31
-0.0038	-0.0113	-0.0008	-0.0008	9.3	31
-0.0046	-0.0091	0.0007	0.0015	9.5	31
-0.0046	0.0127	0.0045	0.0022	9	31
-0.0015	0.0315	0.0052	0.0022	9.4	31
-0.003	0.0097	0.003	-0.0015	9	31
-0.0015	-0.0105	0.0015	0.0007	9.3	31
-0.0015	-0.0046	0.0007	0	9.2	31
-0.0015	-0.0075	-0.0008	-0.0023	9.1	31
-0.0015	-0.0038	0.0007	-0.0015	9.3	31
-0.0008	0.0022	-0.0015	0.0015	9	31
0	0.0127	-0.0023	0.0045	9.3	31
-0.0015	0.0112	-0.0015	0.0037	9.2	31
-0.0015	-0.0181	-0.0008	0.0015	9.1	31
-0.0015	-0.0143	0.0015	0	9	31
-0.0015	0.0007	0.0007	0.0022	9.1	31
0.0007	-0.0068	0.0007	0.0015	9.1	31
0.0015	0.003	-0.0008	-0.0023	9.4	31
0.0015	0.039	-0.0008	-0.0068	9.1	31
0.0022	0.0412	-0.0015	-0.0083	9.1	31
0.0007	0.0067	-0.003	-0.0105	9.2	31
0.0015	-0.0046	-0.0023	-0.0105	9.1	31
0.0022	-0.003	-0.0015	-0.003	9.4	31
0.0015	-0.0053	0.0007	0.0045	9.1	31
0.0015	-0.0075	0	0.0067	9.4	31
0.0015	-0.0181	-0.0008	0.0052	9.2	31
0.0015	-0.0165	-0.0008	0.009	9.5	31
0.003	-0.0143	-0.0015	0.0082	9.1	31
0.0045	-0.0195	0.0015	0.0067	9.3	31
0.0015	-0.0075	0.0015	0.0105	9.2	31
0.0007	0.0292	0.0022	0.0105	9.2	31
0.003	0.0345	0.0015	0.0105	9.1	31
0.0015	-0.0158	-0.0015	0.0052	9.4	31
0.0015	-0.0203	-0.0008	0.0052	9.1	31
0.0015	-0.0128	-0.0015	0.0045	9.2	31
0.0015	-0.0068	-0.003	-0.0015	9.3	31
0.0015	0.0232	-0.0046	-0.0015	9.1	31
0.0015	0.018	-0.0046	0	9.4	31
0.0007	0.0127	-0.0046	0.0045	9.1	31
0.0007	0.0082	-0.003	0.0037	9.4	31
0.0007	-0.0053	0	-0.0008	9.3	31
0.0015	0.0105	0.0007	-0.0015	9.2	31
0.0007	0.0007	0.0007	-0.0068	9.4	31
0	-0.0165	0.0007	-0.0091	8.9	31
0.0015	0.0105	0.003	-0.0023	9.2	31
0.0007	0.0127	0.003	0.0015	9.4	31
-0.0008	0.0127	0.003	0.0105	9.3	31
-0.0023	0.0217	0.0045	0.015	9.1	31
-0.0015	0.0112	0.003	0.0105	9.4	31
0.0007	-0.003	0.0007	0.006	8.9	31
-0.0008	-0.0015	-0.0008	0.0015	9.4	31
-0.0008	0.0135	0	0.0157	9	31
0.0007	0.0067	-0.0008	0.0307	9.4	31
0.0007	-0.0135	-0.0015	0.0135	9.1	31
0.0007	-0.0181	-0.0015	-0.0008	9.3	31
0.0015	-0.0135	-0.0008	-0.003	9.3	31
0.0015	-0.0165	-0.0015	-0.0053	9.1	31
0.0015	-0.0113	-0.003	-0.0008	9.4	31
0.0015	-0.0135	-0.0023	0.0007	9.1	31
0.0007	-0.0098	-0.0015	0.0052	9.4	31
0.0022	-0.0053	-0.0015	0.0075	9.4	31
0.006	-0.0046	-0.0008	0.006	9.1	31
0.0045	-0.0091	-0.003	0.006	9.3	31
0.0015	-0.0128	-0.0038	0.006	9.3	31
-0.0008	-0.0113	-0.0015	0.006	9	31
-0.0008	-0.0181	-0.0008	0.0015	9.3	31
0	-0.012	0	-0.0008	9.3	31
0	-0.0113	-0.0008	-0.006	9.1	31
0.0007	-0.0113	0.0015	-0.012	9.4	31
-0.0008	-0.0083	0.0015	-0.0173	9	31
-0.0008	0.0037	0.0007	-0.0181	9.4	31
0.0015	0.0232	-0.0008	-0.0098	9	31
0.0007	0.0127	0	0.006	9.4	31
0.0007	-0.003	0.0015	0.0142	9.1	31
0.0007	-0.0008	0.0015	0.006	9.3	31
-0.0008	-0.006	0.0015	0.0037	9.4	31
-0.0015	-0.0105	0.0015	0.003	9.2	31
-0.0015	-0.0098	-0.0008	-0.0008	9.3	31
-0.0015	-0.0075	-0.0015	-0.0008	9.2	31
-0.0008	-0.003	-0.0008	-0.0015	9	31
-0.0008	-0.0046	-0.0008	-0.0046	9.1	31
-0.0015	0	-0.0015	-0.0075	9.4	31
-0.0015	0.0127	0	-0.0068	9	31
-0.0023	0.0217	0.0015	-0.0053	9.6	31
-0.003	0.003	0.0007	-0.0008	9	31
-0.0008	-0.0008	0.0007	0.0097	9.3	31
-0.0015	-0.006	-0.0015	0.0052	9.1	31
-0.0015	-0.0083	-0.0008	-0.0053	9.2	31
-0.0015	0	-0.0008	0.0052	9.3	31
-0.0008	-0.0128	0	0.0105	9	31
-0.0015	-0.0053	0.003	0.003	9.4	31
-0.0015	-0.0038	0.0015	-0.0008	9.1	31
-0.0015	-0.0038	0.0007	-0.003	9.3	31
-0.003	0.009	0.0015	-0.0053	9.3	31
-0.0015	0.018	0.0007	-0.003	9.1	31
-0.003	0.0232	0.0015	-0.003	9	31
-0.0015	0.0255	0.0007	-0.0023	9.2	31
-0.0008	0.0307	-0.0008	0.0052	9.3	31
-0.0015	0.0427	-0.0008	0.0067	9.3	31
-0.0015	0.0135	-0.0008	0.0052	9.4	31
-0.003	-0.0233	-0.0015	0.009	9.2	31
-0.0015	0.009	-0.0008	0.0105	9.4	31
-0.0023	0.0202	-0.0008	0.0082	9	31
-0.003	0.0052	-0.0008	0.0052	9.4	31
-0.003	-0.021	0	0.0052	9	31
-0.0038	-0.0263	0	0.0052	9.4	31
-0.0015	-0.0195	-0.0008	0.0067	9.2	31
-0.0008	-0.0105	0.0007	0.0112	9	31
-0.0008	-0.0143	0.0015	0.0082	9.2	31
-0.0008	-0.0075	0.0015	-0.0015	9.2	31
-0.0015	0.0157	0.003	-0.003	9.1	31
-0.0008	-0.006	0.0045	0.0022	9.4	31
-0.0008	0.0045	0.003	0.009	9.2	31
0.0007	-0.0128	0.0022	0.0037	9.2	31
0.0007	-0.027	0.0037	-0.0038	9.3	31
0.0007	-0.0203	0.003	-0.0068	9.1	31
0.0015	-0.0181	0.0015	-0.0083	9.4	31
0.0022	-0.0083	0.0007	-0.0053	9.2	31
0.003	-0.0105	-0.0008	0.0007	9.3	31
0.0037	0.012	0.0015	0.0007	9.4	31
0.003	0.0255	0.0007	-0.0046	9	31
0.0022	0.0255	-0.0015	-0.0015	9.5	31
0.003	-0.0038	-0.0015	0.0007	9	31
0.0045	-0.0105	-0.0015	-0.0015	9.3	31
0.0067	-0.0015	-0.0008	-0.0038	9.1	31
0.0052	0.0075	0.0007	-0.0105	9.3	31
0.0052	0.0157	0.003	-0.0158	9.1	31
0.0045	-0.0098	0.0052	-0.0173	9.4	31
0.003	-0.0075	0.0045	-0.0075	9	31
0.003	-0.006	0.0015	0.0127	9.4	31
0.003	-0.003	0.0022	0.0285	9.1	31
0.003	0.003	0.003	0.0232	9.4	31
0	-0.0046	0.0007	0.0082	9.2	31
-0.0015	0.0007	-0.0023	0.003	9.2	31
-0.0015	0.0045	-0.003	0.0007	9.3	31
-0.0023	0.0037	-0.0008	0.0007	9	31
-0.0015	0.0007	-0.0008	0.0045	9.4	31
-0.003	0.0022	-0.0015	0.0067	9.1	31
-0.003	0	-0.0023	0.0007	9.2	31
-0.0015	-0.0008	-0.0008	-0.0015	9.4	31
-0.0008	-0.0023	-0.0015	-0.0008	9.3	31
-0.0015	-0.0091	-0.0023	-0.003	9.2	31
-0.0023	-0.012	-0.0008	-0.0046	9.4	31
-0.003	-0.0128	0.0015	-0.0083	9	31
-0.0023	-0.0143	0.0015	-0.0091	9.4	31
-0.0015	-0.015	0.0007	0.0015	9.1	31
-0.0008	-0.0008	0.0007	0.024	9.1	31
0.0007	0.0285	-0.0008	0.027	9.3	31
0.0015	0.0292	-0.0015	0.0195	9	31
0.0022	-0.0068	-0.003	0.015	9.4	31
0.0015	-0.0128	-0.0046	0.0015	9	31
0.0007	-0.0098	-0.003	-0.0068	9.4	31
0.0007	-0.0015	-0.003	-0.0098	9.1	31
0.0007	0.0015	-0.0015	-0.006	9.4	31
-0.003	-0.012	0	0.0052	9.1	31
-0.0015	0.0007	-0.0008	0.0172	9.1	31
-0.0015	0.015	0	0.0165	9.3	31
-0.0008	0.0015	0	0.0022	9.2	31
0.0007	-0.0165	-0.0015	-0.0015	9.3	31
0.0007	0.0112	-0.0015	-0.0075	9.1	31
0.0015	0.051	-0.0008	-0.012	9.4	31
0.0015	0.0405	-0.0008	-0.0158	9	31
0.0007	-0.0053	-0.0008	-0.015	9.4	31
0.0007	-0.0218	0.0007	-0.0038	9	31
0.0015	-0.0323	0	0.006	9.4	31
0.003	-0.0383	0	0.012	9.2	31
0.0022	-0.021	0.0015	0.0022	9.2	31
0.0015	-0.0158	0.0037	0.0015	9.4	31
0.003	0.0097	0.0037	0.003	9	31
0.003	0.0382	0.0015	0.003	9.5	31
0.0015	0.0502	0.0015	0.0052	9	31
0.0015	0.0412	0.0007	0.0015	9.3	31
0.0015	0.0015	0.0007	0.003	9.2	31
0	-0.027	-0.0015	-0.0015	9.3	31
0.0007	-0.0293	-0.0023	-0.0015	9.1	31
-0.0008	-0.0233	0	-0.0015	9.4	31
-0.0015	0.0142	0.0007	-0.0015	9.1	31
-0.0015	0.027	-0.0008	-0.003	9.2	31
-0.0015	-0.0038	-0.0008	-0.0015	9.2	31
0.0007	-0.003	0	0.0067	9	31
-0.0008	-0.0165	0.0015	0.0052	9.4	31
-0.0008	-0.027	-0.0015	0.0052	9.1	31
-0.0008	-0.0165	-0.003	0.0082	9.5	31
-0.0008	-0.015	-0.0008	0.006	9	31
-0.0008	-0.0046	-0.0023	0.0007	9.4	31
-0.0023	-0.0015	-0.0046	-0.003	9.1	31
-0.0015	-0.0181	-0.0015	-0.0038	9.3	31
-0.0038	-0.006	0.0007	-0.0015	9.4	31
-0.0015	0.024	0	0.0007	9.2	31
-0.0015	0.009	-0.003	0.0052	9.2	31
-0.0038	0.003	-0.0015	0.0105	9.1	31
-0.0023	0.0045	-0.003	0.0112	9.3	31
0	0.0097	-0.0015	0.0067	9.2	31
0.0007	0.0172	0	-0.003	9.2	31
0.0007	0.0022	-0.0008	-0.0068	9.1	31
0.0015	-0.0113	0	-0.0038	9.4	31
0.0015	-0.0053	0.0007	-0.0008	9	31
0.0022	-0.0015	0.0015	0.0007	9.2	31
0.0015	-0.0068	0	0.0007	9.1	31
0.003	0.0037	-0.0023	-0.003	9.1	31
0.003	-0.0015	-0.0008	-0.0091	9.4	31
0	-0.0098	0.0007	-0.0128	9.1	31
0.0007	-0.003	0.003	-0.0165	9.4	31
0.0015	-0.0053	0.003	-0.012	9.1	31
0	-0.0083	0.0007	-0.0091	9.3	31
-0.0008	-0.0083	0	-0.0075	9.4	31
-0.0015	-0.006	0.0007	-0.0015	9.2	31
-0.0015	-0.0068	0.0007	0.003	9	31
-0.0015	-0.0128	0.0015	0.0052	9.4	31
-0.0023	-0.0165	0.003	0.009	9	31
-0.0015	-0.0105	0.003	0.012	9.5	31
-0.0015	0.0045	0.0022	0.0082	9	31
-0.0015	0.0052	0.003	0.0052	9.4	31
-0.0015	0.003	0.003	0.0052	9.1	31
-0.0038	0.0435	0.0015	0.009	9.2	31
-0.0015	0.0652	0	0.006	9.4	31
0	0.0262	0.0015	0	9	31
0.0007	0.0015	0.0015	-0.0008	9.4	31
0.0015	-0.0015	0	0.0015	9.1	31
0.0007	-0.0075	-0.0015	0.0052	9.2	31
0.0015	-0.0091	-0.0008	0.0075	9.3	31
0.0015	-0.012	-0.0023	0.0067	9.2	31
0.0015	-0.0105	-0.0023	0.0082	9.4	31
0.003	-0.0083	-0.003	0.009	9.4	31
0.0007	-0.0105	-0.0038	0.0097	9.2	31
0.0007	-0.0068	-0.0046	0.0082	9.2	31
0.0015	0.0045	-0.0038	0.0082	9.3	31
-0.0008	0.015	-0.003	0.0022	9.1	31
-0.0008	-0.0008	-0.0015	-0.006	9.5	31
-0.0015	-0.0128	0.0007	-0.0046	9	31
-0.0015	-0.0083	0.0007	-0.0015	9.4	31
-0.0015	-0.0143	0	0	9	31
-0.0023	-0.015	0.0007	0	9.4	31
-0.0023	-0.0165	0.003	-0.0023	9.3	31
-0.003	-0.0158	0.0037	-0.003	9.4	31
-0.0023	-0.0046	0.0022	-0.0053	9.3	31
-0.0015	0.0127	0.0007	-0.0091	9.2	31
-0.0023	0.0142	-0.0008	-0.0128	9.3	31
-0.0008	0.0195	-0.0015	-0.0091	9.2	31
-0.0008	0.0337	0	0.0007	9.4	31
0	-0.0015	0.0007	0.0157	9.1	31
-0.0015	-0.0263	-0.0008	0.012	9.4	31
-0.0008	-0.0248	0.0007	-0.0083	9	31
0	-0.0278	0.003	-0.003	9.4	31
-0.0015	-0.0158	0.0037	0.0045	9	31
-0.0015	-0.0075	0.0022	0.0187	9.4	31
0.0007	0.0105	-0.0008	0.024	9.3	31
0.0015	0.0495	0.0007	0.0067	9.3	31
0.0015	0.0532	0.0015	0.0015	9.1	31
0.0022	0.006	0.003	-0.0105	9	31
0.0015	-0.015	0.0022	-0.0113	9.4	31
0.003	-0.0135	0.0007	-0.0008	9.3	31
0.0045	-0.0008	-0.0015	0.0135	9.2	31
0.0037	0.012	-0.0008	0.021	9.3	31
0.003	-0.003	-0.0008	0.0135	9.2	31
0.0022	-0.0075	-0.0023	0.0082	9.1	31
0.0022	0.0007	-0.0015	0.0052	9.3	31
0.0045	0.0315	-0.0015	0.009	9.2	31
0.003	0.0165	-0.0015	0.006	9.3	31
0.0022	-0.0113	-0.003	0.003	9.3	31
0.0015	-0.0038	-0.0015	0.0037	9.2	31
0	-0.0143	0	0.0082	9.4	31
0.0015	-0.012	-0.0015	0.0045	9	31
0.0007	-0.0165	-0.0023	-0.0008	9.6	31
0.0007	-0.012	-0.0023	0.0007	9	31
0.0007	-0.0053	-0.0015	-0.003	9.4	31
0	0.003	-0.0008	-0.003	9.1	31
0.0007	0.0112	-0.0008	-0.0053	9.2	31
0.0007	-0.0098	-0.0008	-0.0091	9.3	31
0.0007	-0.012	-0.0008	-0.0098	9.1	31
0.0007	-0.0158	-0.0015	-0.0105	9.1	31
-0.0015	-0.0128	-0.0015	-0.0068	9.5	31
-0.003	-0.012	-0.0008	-0.0053	9.2	31
-0.0038	-0.0105	0.0015	-0.0038	9.4	31
-0.0038	0.0022	0.0022	0.0007	9.1	31
-0.003	0.0142	0	0.003	9.4	31
-0.0038	0.012	-0.0015	0.0015	9	31
-0.003	0.0015	-0.0008	0.0045	9.3	31
-0.0023	0.006	-0.0015	0.0045	9.4	31
-0.0038	-0.0046	-0.0015	-0.0015	9	31
-0.003	-0.0068	0	-0.003	9.3	31
-0.0023	-0.0038	-0.0008	-0.003	9.1	31
-0.0038	-0.0046	-0.0008	0.003	9.2	31
-0.0015	-0.0038	0.0007	0.0075	9.4	31
-0.0008	-0.0008	0.0007	0.0105	9.1	31
-0.0008	-0.0068	-0.0008	0.0022	9.3	31
0.0007	-0.0248	-0.0015	-0.003	9.4	31
-0.0008	-0.0195	-0.0008	0	9.1	31
-0.0008	-0.0128	-0.0015	-0.003	9.2	31
0	0.0022	-0.0008	0.0015	9.3	31
0.0022	0.012	0.0022	0.003	9.1	31
0.0022	-0.003	0.003	0.0052	9.4	31
0.003	0.0112	0.003	0.0105	9	31
0.0022	0.0345	0.0015	0.009	9.4	31
0.003	0.0202	0	0.012	9	31
0.0037	0.0022	0.0007	0.012	9.4	31
0.0052	0.0352	0.0007	0.006	9.2	31
0.0052	0.0502	0.0015	-0.0008	9.3	31
0.0037	0.0097	0.0007	0.0015	9.3	31
0.0037	-0.0015	0.0007	0.003	9.2	31
0.0022	0.006	0	0.0007	9.4	31
0.0007	0.0067	0.0015	-0.0008	9.3	31
0	0.0007	0.0007	-0.0038	9.2	31
-0.0008	-0.0143	-0.0008	-0.003	9.1	31
0.0007	-0.0113	0.0007	0.0015	9.4	31
0.0007	-0.0128	-0.0008	0.0105	9	31
-0.0008	-0.0135	-0.0008	0.0067	9.5	31
-0.0015	-0.015	0	-0.0046	9.2	31
0	-0.0165	-0.0008	-0.0046	9.4	31
0.0015	-0.012	0	-0.003	9.3	31
-0.0008	-0.012	-0.0015	-0.0008	9.3	31
-0.0008	-0.0098	-0.0015	0.0007	9.4	31
-0.0008	-0.0098	-0.0008	-0.0015	9	31
-0.0015	-0.0075	-0.0008	-0.0015	9.4	31
0	-0.0053	0	-0.0015	9	31
-0.0008	-0.006	0.0007	-0.0008	9.3	31
-0.0008	-0.0105	0.0015	-0.0015	9.4	31
-0.0008	-0.0113	0.0015	-0.0008	9.3	31
-0.0023	-0.0091	0.0015	-0.0008	9.3	31
-0.003	-0.0098	0.0015	-0.0015	9.3	31
-0.0046	-0.012	0	-0.0023	9.4	31
-0.003	-0.0165	-0.0023	-0.003	9.1	31
-0.0015	-0.0053	-0.003	-0.0008	9.5	31
-0.0023	0.0067	-0.0015	0.0007	9.1	31
-0.0023	-0.0098	-0.0015	0.0007	9.5	31
-0.003	-0.0181	-0.0008	0.0007	9	31
-0.003	-0.0053	0	0.0045	9.4	31
-0.0015	0.0067	0.0007	0.0067	9.2	31
-0.0008	0.0495	0.0045	0.009	9.4	31
-0.0008	0.063	0.0022	0.009	9.2	31
-0.0015	0.0082	0.0007	0.003	9.2	31
-0.0015	-0.0128	-0.0008	0.003	9.3	31
0	-0.003	-0.0008	0.0045	9.4	31
0.0015	0.0097	-0.0015	0.003	9.4	31
0.0007	0.0112	-0.003	0.0022	9.3	31
-0.0008	-0.0068	-0.0008	0.003	9.4	31
0.0015	-0.0008	-0.0008	0.0015	9.3	31
0	-0.0023	0	-0.0008	9.4	31
0.0007	0.0052	0	0.0022	9.2	31
0.0022	0.009	0	0	9.4	31
0.0015	0.0022	0.0015	-0.0046	9.3	31
0	0.0097	0.0015	-0.0038	9.2	31
0.0015	0.0127	0.0015	-0.003	9.4	31
0.0015	0.0007	0.0045	-0.0015	9.1	31
0.0015	-0.0083	0.003	0	9.6	31
0.0022	-0.0053	0	0.0015	9	31
0.0007	-0.0046	0.0015	-0.0015	9.5	31
0.0007	-0.003	0.0007	-0.0008	9.4	31
0.0015	-0.0091	0.0015	0.003	9.2	31
0.0022	-0.0105	0.0007	-0.0008	9.3	31
0.0015	-0.012	0.0015	-0.003	9.4	31
0.0007	-0.015	0.0045	-0.003	9	31
0.0015	-0.0135	0	0	9.5	31
0.0007	-0.0143	0.0007	0.0007	9.2	31
0	-0.0128	0.0015	0.0007	9.4	31
-0.0008	-0.0053	0.0022	0.003	9.4	31
0	0.0067	0.0045	0.0052	9.2	31
-0.0015	0.0232	0.0015	0.0082	9.4	31
-0.0015	0.0307	-0.0015	0.0105	9.1	31
-0.0015	0.0015	-0.0023	0.0045	9.4	31
-0.0015	-0.0023	-0.0015	-0.0023	9.2	31
-0.0015	0.0022	-0.003	-0.0008	9.3	31
-0.0015	-0.0046	-0.0023	0.0015	9.3	31
-0.0008	0.0015	-0.0015	0.0007	9.3	31
0	-0.0098	-0.0008	0	9.4	31
0.0007	-0.012	-0.0008	-0.0008	9.4	31
0.0022	-0.0105	-0.0008	-0.0015	9.2	31
0.0022	-0.0068	-0.0015	0	9.3	31
0.0022	-0.0091	-0.0008	-0.0008	9.2	31
0.0022	-0.0105	0.003	-0.0015	9.1	31
0.0007	0.0045	0.0007	-0.0008	9.5	31
0.0007	0.0195	0.0007	-0.0015	9	31
0.0022	0.0112	-0.0008	-0.003	9.6	31
0.0022	-0.0068	-0.003	-0.0008	9.1	31
0.0015	-0.0008	-0.0023	0.0007	9.4	31
0.0022	-0.006	-0.0046	0.0015	9.1	31
0.0007	0.0022	-0.003	0.006	9.4	31
0.0007	0.0142	-0.0015	0.0082	9.3	31
0.0022	0.0067	-0.0015	0.0082	9.3	31
0.0015	0.0097	-0.0015	0.0105	9.4	31
0.0022	0.0127	-0.0008	0.0112	9.2	31
0.0015	0.0142	0	0.0097	9.4	31
0.0015	0.003	-0.0008	0.009	9.3	31
0.0007	-0.0091	0	0.0067	9.5	31
0.0007	-0.0023	0	0.0082	9.4	31
-0.0008	0.0225	-0.0008	0.0105	9.6	31
-0.0023	0.0255	0.0015	0.0082	9	31
-0.0008	0.0007	0.0015	0.0022	9.4	31
-0.0008	-0.0075	-0.0015	-0.0015	9.4	31
0.0015	-0.0053	-0.0008	-0.0008	9.4	31
0.0015	-0.0143	0	-0.0008	9.4	31
0.0007	-0.0188	-0.0008	-0.0038	9.1	31
0.0007	-0.0203	0	-0.003	9.5	31
0.0015	-0.0195	0	-0.0015	9.1	31
0.0007	-0.0181	-0.0008	0	9.4	31
-0.0008	-0.0068	-0.0008	0.0015	9.4	31
-0.0008	0.0225	0	0.0022	9.3	31
-0.003	0.027	-0.0008	0.0052	9.3	31
-0.0015	0.0045	0.0007	0.0007	9.4	31
-0.0008	-0.0038	0	-0.0038	9.2	31
-0.0015	-0.0038	0.0007	-0.0046	9.3	31
-0.0008	-0.0195	0.0007	-0.0053	9.4	31
-0.0023	-0.0195	0.0007	-0.003	9.4	31
-0.0008	-0.0046	0.003	0.0015	9.4	31
0.0015	0.0225	0.0015	0.0082	9.2	31
-0.0008	0.0397	0.003	0.0112	9.5	31
0.0007	0.0165	0.0007	0.0082	9.1	31
0.0007	0.0067	0	0.009	9.6	31
0	-0.0091	0.0015	0.003	9	31
0.0007	-0.0225	0	-0.0008	9.5	31
0.0007	-0.0188	0.0015	-0.0023	9.4	31
0.0007	-0.0256	0.0015	-0.0068	9.3	31
0.0007	-0.0233	0.0015	-0.0083	9.3	31
0	-0.0218	0.0007	-0.0068	9.3	31
-0.0008	0	-0.0008	-0.003	9.1	31
-0.0015	0.0007	0.0007	-0.0053	9.3	31
0.0007	-0.0105	0.0007	-0.0053	9.4	31
0.0022	0.0052	0.003	-0.0053	9.3	31
0.0007	0.024	0	0.0037	9.4	31
0.0007	0.0352	-0.0008	0.015	9.2	31
-0.0008	0.0082	-0.0015	0.0067	9.4	31
-0.0008	-0.0165	-0.0023	0.0112	9.2	31
-0.0008	-0.0135	-0.0008	0.0202	9.3	31
-0.0015	-0.0203	-0.0023	0.003	9.3	31
0.0007	-0.0195	-0.003	-0.0068	9.3	31
0.0015	-0.0158	-0.0023	-0.0038	9.5	31
0.0015	0.0022	0	-0.0091	9.2	31
0.0015	0.0135	0	-0.0091	9.1	31
0.0015	-0.0023	0	-0.0143	9.4	31
0.0007	-0.0068	-0.0008	-0.0181	9.4	31
-0.0008	-0.0008	-0.0008	-0.0053	9.2	31
-0.0008	0.0045	0.003	0.0105	9.4	31
0.0007	-0.0046	0.0007	0.012	9	31
-0.0008	-0.012	0.0007	0.009	9.5	31
-0.0008	0.0067	0.0007	0.012	9	31
0.0007	0.009	-0.0023	0.0105	9.4	31
0.0015	-0.003	-0.0008	0.0127	9.2	31
0	0.0007	-0.0015	0.0105	9.3	31
-0.0023	0.0097	-0.0008	0.0082	9.4	31
-0.0015	0.0232	-0.0008	0.0105	9.2	31
-0.0015	0.018	-0.0008	0.0045	9.4	31
-0.0015	0.0082	0.003	0.0045	9	31
-0.0008	0.018	0.003	0.0045	9.4	31
-0.0015	0.0052	0.0045	0.0007	9.4	31
-0.0015	-0.0105	0.0037	-0.0015	9.1	31
-0.0008	-0.0105	0.0037	-0.003	9.4	31
-0.0008	-0.0105	0.0022	-0.003	9.4	31
-0.0015	-0.0091	0.0015	-0.0046	9.2	31
-0.0023	-0.0075	0.0015	-0.003	9.4	31
-0.0015	-0.0053	0	-0.0038	9.4	31
-0.0015	-0.0053	-0.0008	-0.0046	9	31
-0.0023	-0.0038	-0.0015	-0.0038	9.5	31
-0.0008	-0.0023	0	-0.0015	9	31
0.0015	0	0.0007	-0.0015	9.5	31
0.0045	0.0007	0	0.003	9	31
0.0045	0.003	-0.0008	0.0037	9.4	31
0.0015	0.0082	-0.0008	0.0015	9	31
0.0007	0.0067	0	0.0015	9.4	31
0.0007	0.0045	-0.0008	0.0015	9.3	31
0	0	0.0007	0.0015	9.3	31
-0.0008	-0.0053	-0.0008	0.0007	9.4	31
-0.0008	-0.0083	-0.003	-0.003	9.1	31
-0.0015	-0.0091	-0.003	-0.0015	9.4	31
-0.0015	-0.0068	-0.003	0.0037	9.1	31
-0.0023	-0.0046	-0.0023	0.0127	9.4	31
-0.0015	-0.006	-0.003	0.0127	9	31
-0.0015	-0.0091	-0.0015	-0.0015	9.4	31
-0.0023	-0.0105	0.0007	-0.0015	9.2	31
-0.0015	-0.0091	0.003	0.003	9.4	31
-0.0008	-0.0105	0.003	0.0052	9.2	31
0.0015	-0.006	0.003	0.0142	9.4	31
0.0007	0.0165	0.0052	0.012	9.4	31
-0.0008	0.0202	0.0045	0.003	9.1	31
-0.0008	-0.0068	0.0015	-0.006	9.4	31
0.0015	-0.0158	-0.0008	-0.0075	9.4	31
0.0007	-0.0158	-0.0015	-0.0038	9.4	31
0	-0.0195	-0.0008	-0.0046	9.4	31
0.0007	-0.012	0.0015	-0.0046	9.4	31
0.0007	0	-0.0008	-0.003	9.3	31
0.0015	0.039	0	0.0037	9.3	31
0.003	0.0562	0	0.0082	9.2	31
0.003	0.0262	-0.0008	0.0187	9.3	31
0.0015	0.0075	0.0007	0.018	9.4	31
0.0015	-0.0068	-0.0008	-0.0015	9	31
0.0015	-0.0053	-0.0023	0.0037	9.4	31
0.0015	0.0015	-0.0053	0.003	9	31
-0.0008	-0.0008	-0.0068	-0.0046	9.5	31
0.0007	0.0045	-0.0053	-0.0015	9.1	31
0	0.0082	-0.0046	-0.0053	9.5	31
-0.0008	0.0052	-0.0023	-0.003	9	31
0	-0.0038	-0.003	-0.003	9.1	31
-0.0015	0.0022	-0.003	0.0007	9.3	31
-0.0023	-0.0038	-0.003	0.0015	9.4	31
-0.0008	-0.0128	-0.0023	0.003	9.3	31
-0.0008	-0.0165	0.0007	0.0045	9.5	31
-0.0015	-0.0233	0.0007	0.0015	9	31
-0.0015	-0.0225	-0.0015	-0.0008	9.5	31
0	-0.0128	0	-0.0015	9.2	31
0.0007	0.0075	0.0007	-0.0015	9.3	31
-0.0008	-0.0008	0.0007	0.0007	9.3	31
-0.0008	0.003	0.0015	0.0082	9.2	31
0.0007	0.0345	0.0022	0.009	9.3	31
0.0022	0.027	0.0015	0.0075	9.1	31
0.0015	0.0172	0.0015	0.0045	9.3	31
0.0015	0.0157	0.0007	-0.0053	9.3	31
0.0015	-0.0068	-0.0008	-0.0068	9.4	31
0.0015	-0.0053	-0.0015	-0.006	9.4	31
0.0007	-0.0105	-0.0023	-0.0053	9.4	31
0.0007	-0.0165	-0.003	-0.0053	9.3	31
0.0022	-0.0053	-0.0008	-0.0068	9.3	31
0.0045	0.0142	-0.0015	-0.0046	9.4	31
0.0045	0.0165	-0.0015	0	9.2	31
0.0045	-0.0233	0.0007	0.003	9.4	31
0.0045	-0.0233	0.0015	0.0052	9.2	31
0.003	-0.0225	0.0022	0.0067	9.6	31
0.003	-0.0203	0.0007	0.009	9	31
0.0015	0.0052	0.0015	0.009	9.5	31
-0.0008	0.0142	0.0022	0.0007	9.1	31
0	0.012	0.0007	-0.0068	9.4	31
-0.0023	0.0037	0.0007	-0.003	9	31
-0.003	-0.006	0.0015	0.003	9.4	31
-0.0015	-0.0128	0.0015	0.003	9.4	31
-0.0023	0.0045	0.003	0.003	9.1	31
-0.0015	0.0015	0.0022	-0.0008	9.2	31
-0.0015	-0.0008	-0.0008	-0.0023	9.3	31
-0.0008	-0.0008	0.0015	0.0007	9.2	31
-0.0015	-0.0098	0.003	0.0045	9.1	31
0.0007	0.0067	0.0015	0.0067	9.4	31
-0.0008	0.0075	0.0022	0.0067	9.1	31
-0.003	0.003	0.003	0.0052	9.4	31
0	0.009	0.003	0.0037	9	31
-0.0008	0.0075	0.0007	0.003	9.4	31
-0.0008	-0.0046	-0.0008	0.0007	9.2	31
-0.0015	-0.0158	0.0007	-0.0015	9.3	31
-0.0023	-0.0075	0.0015	-0.0015	9.1	31
-0.0008	-0.0128	-0.0015	-0.003	9.1	31
-0.0015	-0.0135	-0.0023	-0.003	9.4	31
-0.0015	-0.012	0.0007	-0.0023	9	31
-0.0015	-0.012	0.0007	-0.0015	9.3	31
-0.0008	-0.0053	-0.0008	-0.0008	9.1	31
0.0015	-0.0083	-0.0008	-0.0023	9.3	31
0.0022	-0.0038	-0.0015	-0.0046	9.3	31
0.0015	-0.0046	-0.003	-0.006	9.4	31
0.0007	-0.0046	-0.0023	-0.0068	9.2	31
0.003	-0.0068	0	-0.003	9.4	31
0.0015	-0.0053	-0.0015	0.0015	9.3	31
-0.0008	-0.0008	-0.0008	0.0082	9	31
-0.0015	0.0007	0.0007	0.0157	9.4	31
-0.0015	-0.0046	0.0015	0.0195	9.1	31
-0.0023	0.0007	0.0015	0.012	9.5	31
-0.0023	0.024	0.0015	0.0067	8.9	31
-0.0015	0.0232	0.0015	0.0075	9.4	31
-0.003	0.0045	0.0007	0.0015	9	31
-0.0023	0.0015	0.0015	0.0037	9.2	31
-0.0008	0.0022	-0.0008	0.003	9.3	31
0.0007	-0.0015	-0.0015	0.0052	9.2	31
0	-0.0008	-0.0008	0.0052	9.3	31
-0.0015	-0.0046	-0.0008	0.0045	9.4	31
-0.0015	-0.0008	-0.0015	0.0127	9	31
0.0007	0.0075	-0.003	0.0082	9.4	31
0	0.0157	-0.0023	0.0075	9.2	31
-0.0008	0.0052	-0.0015	0.0007	9.1	31
0.0007	-0.006	0	-0.0038	9.3	31
0.0015	-0.003	-0.0023	-0.0046	9	31
0.0015	-0.0075	-0.006	-0.0075	9.3	31
0.0015	-0.0075	-0.0053	-0.0008	9.1	31
0.0007	-0.0075	-0.0038	-0.0046	9.3	31
0	0.0052	-0.0015	-0.006	9.1	31
-0.0008	0.0232	-0.0008	0.0007	9	31
-0.0015	0.0127	-0.0008	0.0075	9.4	31
-0.0008	-0.003	0.0015	0.0165	9.4	31
0	-0.003	0.0007	0.0075	9.1	31
0	-0.0046	0.0007	-0.0068	9	31
0.0007	-0.003	0.003	-0.0046	9.1	31
0.0007	-0.0008	0.0037	-0.0068	9.1	31
0.0015	0.0007	0.0037	-0.0083	9.4	31
0.003	0.0015	0.0045	-0.0083	9	31
0.003	-0.0015	0.003	-0.012	9.4	31
0.0022	0	0.003	-0.0098	8.9	31
0.0022	-0.0008	0.003	0.006	9.4	31
0.0007	0.0015	0.0015	0.0195	9.1	31
-0.0008	0.0007	0.0007	0.012	9.3	31
0.0007	0.0007	-0.0015	0.009	9.3	31
0.0007	-0.0008	0	0.0067	9	31
0.0007	-0.0023	0.0007	0.0045	9.4	31
0.0015	-0.0015	-0.0015	0.0052	9	31
-0.0008	-0.0046	-0.0015	0.0022	9.1	31
-0.0008	-0.0083	-0.0023	0.0015	9.2	31
0.0007	-0.0105	-0.0015	0.0007	9.2	31
0.0007	0.0007	0.0007	0.003	9.1	31
-0.0008	0.0082	0.0015	-0.0015	9.4	31
-0.0008	0.0015	0.0015	-0.0053	9.1	31
-0.0015	-0.0046	0.0007	-0.0068	9.3	31
-0.0023	-0.0046	0.0015	-0.0053	9.2	31
-0.0015	-0.0053	0	0.0067	9.2	31
0	-0.0046	-0.0015	0.0097	9.4	31
0.0007	-0.003	-0.0008	0	9	31
0	-0.0015	-0.0015	-0.0008	9.4	31
-0.0008	0.0007	-0.0023	0.003	9	31
0.0007	-0.0053	-0.0038	0.0007	9.4	31
0.0007	-0.0083	-0.0023	0.0015	9	31
0.0007	-0.0105	0.0007	0.0007	9.4	31
0.0015	-0.0083	0	0.0015	9.1	31
0	-0.0046	-0.0023	0.003	9.2	31
0.0007	0.0007	-0.0023	0.0045	9.1	31
0	0.0112	-0.0008	0.0067	9.4	31
0	0.0015	0.0015	0.003	9.2	31
0	-0.0083	0.0007	0.0007	9.1	31
-0.0023	-0.0053	-0.0015	0	9.3	31
-0.0023	-0.003	-0.0008	-0.003	9.1	31
-0.0015	0.0022	0	-0.0023	9.5	31
-0.0015	0.0105	0	0.0007	9	31
-0.003	0.0202	0.0007	0.0037	9.4	31
-0.0023	0.009	0	0.003	9	31
-0.0015	-0.0038	0.0015	0.0015	9.5	31
-0.0023	-0.0083	0.0007	0.0037	9.1	31
-0.003	-0.0046	0	0.0022	9.3	31
-0.0023	0.0217	0.0007	0.0052	9.4	31
-0.0008	0.0202	0.0015	0.003	9.2	31
-0.0008	-0.0046	0	0.0007	9.3	31
-0.0008	0.0097	-0.0008	0.003	9.2	31
-0.0015	0.0195	-0.0015	0.0022	9	31
-0.0015	-0.0068	-0.0008	0.003	9.2	31
-0.0015	-0.0105	0	0.003	9.3	31
-0.0008	-0.0113	-0.0008	0.0015	9	31
-0.003	-0.0135	-0.0008	0.0022	9.4	31
0	-0.0091	-0.0008	0.0007	9	31
0.0015	-0.0083	0	-0.0023	9.2	31
0.0015	-0.0023	0.0007	-0.003	9.4	31
0.003	-0.0046	0.0015	-0.0015	9.2	31
0.0015	-0.003	0.0015	-0.003	9.3	31
0.003	-0.0053	0.0022	-0.0053	9.1	31
0.0022	-0.0075	0.0022	-0.003	9.5	31
0.0015	-0.0068	0.0015	-0.0038	9.1	31
0.0007	-0.0068	0.0015	-0.0046	9.4	31
0.0015	-0.0015	0.0015	-0.003	9.3	31
0.0015	0.0007	0.003	-0.0008	9.4	31
-0.0008	0.0142	0.003	0.0045	9.3	31
0.0007	0.024	0.0015	0.0045	9.5	31
-0.0015	0.012	0.0015	0.0007	9	31
-0.0015	0.0052	0	-0.003	9.4	31
-0.0008	0.009	-0.0015	-0.003	9.2	31
0.0007	0.0052	-0.0008	-0.0046	9.3	31
0.0015	0.0052	0.0022	-0.006	9.1	31
0.0015	0.0037	0.003	-0.003	9	31
0.0022	0.0037	0.0022	0.0007	9.4	31
0.0007	0.0045	0.0045	0.0045	9	31
-0.0008	0.0045	0.0022	0.0052	9.3	31
0	0.006	0	0.006	9.2	31
0.0015	0.003	-0.0008	0.0052	9.1	31
0	0.0007	-0.0015	0.0045	9.3	31
0	-0.0015	-0.0023	0.0052	9.4	31
-0.0008	-0.0046	-0.003	0.0075	9.2	31
-0.0008	-0.006	-0.003	0.0097	9.4	31
0	-0.0075	-0.0038	0.0067	9.1	31
-0.0015	-0.0075	-0.0038	0.0052	9.4	31
-0.0015	-0.0083	-0.003	0.006	9.4	31
0.0007	-0.0053	-0.0015	0.003	9	31
-0.0008	0.0015	-0.0008	0.003	9.4	31
0.0007	0.0052	0	0.0045	9	31
0	-0.0083	0.0015	0.0007	9.4	31
0.0015	-0.0128	0.0007	-0.0008	9	31
0.003	-0.0083	0.0015	-0.0015	9.4	31
0.0015	-0.012	0.003	-0.0015	9.1	31
0.0015	-0.0083	0.0015	0	9.2	31
0.0037	-0.0068	0.0015	0.0007	9.3	31
0.0045	-0.006	0	0.0007	9.2	31
0.003	-0.0046	0.0007	0.0015	9.4	31
0.0045	-0.0015	-0.0015	0.003	9.2	31
0.0037	0.0015	-0.003	0.0015	9.3	31
0.0015	0.0007	-0.0015	0	9	31
0.0007	-0.0008	-0.0008	-0.0008	9.4	31
0.0007	0	0.0007	0.0007	9	31
0.0007	0	0.0007	0.0067	9.4	31
0.0007	-0.0015	-0.0008	0.0097	9	31
0	-0.0015	-0.003	0.0052	9.3	31
-0.0015	-0.0091	-0.0046	0.0022	9.1	31
0.0007	-0.0128	-0.003	0.0015	9.3	31
-0.0008	-0.0046	-0.0046	0	9.3	31
0	0.006	-0.003	0.0022	9	31
-0.0008	0.009	-0.0015	0.0045	9.5	31
-0.0008	0.0165	-0.0015	0.003	9	31
-0.0008	0.0337	-0.0008	-0.0008	9.3	31
0	0.0187	-0.0015	-0.0023	9.1	31
0	0.0135	-0.0008	-0.0008	9.3	31
-0.0015	0.0135	0.0007	-0.0008	9	31
-0.0015	-0.0143	0.0007	-0.0015	9.1	31
-0.0008	-0.0173	0.0007	-0.0008	9.1	31
-0.0015	-0.0165	0.0015	-0.0008	9.3	31
-0.0023	-0.0188	0.0007	-0.0038	9.3	31
-0.0008	-0.0143	0	-0.0023	9	31
0.0007	-0.0075	0.0015	0.0015	9.4	31
-0.0015	0.0127	0.0015	0.0105	8.8	31
-0.003	0.009	-0.0008	0.0202	9.4	31
-0.0015	-0.0008	-0.003	0.0075	9	31
-0.0008	0.009	0.0007	-0.0038	9.4	31
-0.0008	-0.0075	0.0015	-0.0008	9.1	31
0.0007	-0.0188	0.0007	0.0007	9	31
0	-0.0143	0.0015	0.0022	9.3	31
-0.0008	-0.0233	0.003	0.0045	9.1	31
-0.0015	-0.015	0.003	0.0037	9.2	31
-0.0008	0.0052	0.0007	0.006	9.3	31
0	0.0157	0.0007	0.0045	9.3	31
-0.0015	-0.0023	0.0007	0.0007	9	31
-0.0008	-0.0068	0.0007	-0.0008	9.4	31
-0.0008	-0.0015	0.0007	-0.0015	9	31
0.0007	-0.0008	0	0.0007	9.2	31
0.0007	0.0015	0	-0.0038	9	31
0.0007	-0.0083	0.0007	-0.0091	9.3	31
0	-0.0046	0.0007	-0.0053	9.2	31
0.0015	-0.0053	-0.0008	0	9	31
0.0015	-0.0046	0.0007	0.003	9.4	31
0.0007	-0.0008	0.0007	0.0067	8.9	31
0.0015	0	0.0015	0.0105	9.2	31
0.0022	0.0037	0.0007	0.0142	9	31
0.0015	0.0007	-0.0008	0.0127	9	31
0.0015	0.0007	0.0015	0.0082	9.2	31
0	-0.0015	0.0015	0.0037	9.2	31
0	-0.0015	0.003	0.0007	8.9	31
-0.0008	-0.0015	0.003	-0.0008	9.4	31
0	-0.0008	0	-0.0015	9	31
0.0015	0.0007	-0.0015	-0.0015	9.4	31
-0.0008	0.003	-0.0008	-0.0015	9.1	31
-0.0008	0.0052	-0.0008	-0.0008	9.1	31
-0.0015	0.0067	-0.0015	0	9.1	31
-0.0008	0.0105	-0.0008	-0.0008	9.1	31
-0.0008	0.012	-0.0008	-0.0015	9.2	31
0.0007	0.0075	-0.0008	-0.003	9	31
0.0015	0.003	-0.0015	-0.0015	9.1	31
0.0015	0.0045	-0.0008	0.0015	9.2	31
0.0007	0.0045	0	0.0007	9	31
0.0007	0.003	0	0.0007	9	31
-0.0008	-0.0015	-0.0008	0.0015	9	31
-0.0008	0.0015	-0.0015	0.003	9	31
-0.0008	0.0045	-0.003	0.0015	9.2	31
-0.0008	0.0022	-0.0046	-0.0008	9.2	31
0.0015	0.0007	-0.0023	0.0015	9	31
0	-0.0038	-0.0008	0.003	9.2	31
-0.0015	-0.0023	0	0.0022	8.9	31
-0.0008	-0.0053	-0.0015	0.003	9.4	31
-0.0008	-0.012	-0.0015	0.0067	8.8	31
-0.0008	-0.0165	-0.0008	0.0075	9.4	31
-0.0023	-0.0158	0.0007	0.0022	9	31
-0.0015	-0.0128	0.0015	-0.006	9	31
-0.0008	-0.0105	0.0022	-0.0113	9	31
-0.0015	0.0015	0.0037	-0.0158	9.1	31
0.0015	0.0217	0.0045	-0.0181	9.1	31
0.003	0.039	0.0022	-0.0046	9.2	31
0.0022	0.0427	0.0015	0.0127	9	31
0.003	0.0082	0.0015	0.003	9	31
0.0045	-0.0128	-0.0008	-0.0091	9.4	31
0.003	-0.012	-0.0008	-0.0083	9	31
0.0022	-0.0158	-0.0008	-0.0091	9.2	31
0.0037	0.003	0.0007	0.012	8.9	31
0.0022	0.027	0.0015	0.03	9.3	31
0.0007	0.0322	0.0007	0.0202	9	31
-0.0008	0.0135	-0.0008	0.0142	9.1	31
-0.0008	0.006	-0.0008	0.009	9.2	31
-0.0008	0.0015	-0.0015	0.0015	9	31
-0.0008	-0.0091	-0.0023	0.0015	9.3	31
0.0007	-0.0091	-0.0008	-0.0015	8.8	31
0.0015	-0.0128	-0.0008	-0.0046	9	31
0.0007	-0.0091	-0.0015	-0.0105	9	31
-0.0008	-0.0091	-0.0008	-0.0135	9	31
-0.0008	-0.0046	-0.0008	-0.0105	9	31
-0.003	-0.0046	0.0007	-0.006	9.1	31
-0.0008	-0.0135	0.0022	0.0112	9	31
-0.0008	-0.0165	0.0015	0.024	9	31
-0.0015	-0.0181	0.003	0.0165	9.1	31
0	-0.0181	0.0007	-0.0008	8.9	31
-0.0008	-0.0188	-0.0008	-0.0008	9.2	31
-0.0015	-0.0165	0.0007	0.0045	8.9	31
-0.003	-0.0053	0.003	0.0007	9.2	31
-0.003	-0.0015	0.0037	-0.0015	8.8	31
-0.0023	-0.0143	0.0022	-0.0053	9.2	31
-0.0015	-0.0105	0.0022	-0.003	8.9	31
-0.0008	0.0082	0	0	9.2	31
0	0.012	0	0.0037	9	31
-0.0008	0.0037	0	0.0037	9	31
-0.0008	0.0112	0	0.0067	9.1	31
0	0.009	0.0007	0.0067	9.2	31
-0.0008	-0.0053	0	0.003	9	31
-0.0008	0.003	0	0.0015	9	31
-0.0008	0.0067	-0.0008	0	9	31
0.0007	0.003	-0.0015	-0.0008	9	31
0.0007	0	-0.0038	-0.0015	9.1	31
0.0007	-0.0046	-0.003	0.0007	8.9	31
-0.0008	-0.0038	-0.003	0.0007	9.2	31
-0.0015	-0.003	-0.003	0.0007	9	31
-0.0015	-0.003	-0.0023	0.0015	9	31
-0.0015	-0.0023	-0.0015	0.0015	9.1	31
-0.0015	0.0007	-0.0008	0.0007	8.9	31
0	0.0015	0	-0.0008	9.3	31
0.0015	0	0.0007	-0.0008	9.1	31
0.0015	0.0007	0.0015	-0.0015	9.1	31
0.0015	0.0022	0	-0.0008	9	31
0.0015	0.0045	-0.0008	-0.003	9.3	31
0.0015	-0.003	0.0007	-0.0053	9	31
0.0022	-0.0068	0.0015	-0.003	9.2	31
0.0015	-0.0046	0.0007	0.0007	8.8	31
-0.0008	-0.0068	-0.0023	0.0045	9.4	31
0.0007	-0.0046	-0.0023	0.0075	9	31
0.003	-0.006	-0.0023	0.0052	9.4	31
0.0007	-0.0053	-0.0015	0.0007	9	31
0	-0.006	-0.0008	-0.0023	9.1	31
0.0015	-0.0046	-0.0015	-0.0008	9.2	31
0.0007	0.0007	-0.0015	0.0067	9	31
0.0015	-0.0008	0	0.0112	9.3	31
0.0007	-0.0008	0.0007	0.0067	9	31
0.0007	-0.0015	0.0022	0.0022	9.2	31
0.0022	-0.0008	-0.0008	0	9.1	31
0.0022	-0.0008	-0.0015	0.0015	9.2	31
0.0007	-0.0046	0	0.009	9.1	31
0	-0.0008	0	0.018	9.4	31
0.0015	0.0142	0.0015	0.015	9.1	31
0	0.0187	0.0007	-0.0023	9.1	31
0.0007	0.0075	-0.0008	-0.0083	9.1	31
0.0015	0.0022	0	-0.003	9.3	31
-0.0008	-0.0015	0	-0.003	9.2	31
0.0015	-0.0023	-0.0015	-0.0008	9.1	31
0.0007	0.0015	-0.003	0.003	9.4	31
-0.0008	0.0067	-0.0015	0.0045	9	31
0	0.018	-0.0015	0.0052	9.4	31
-0.0015	0.0105	-0.0008	0.0037	9.1	31
-0.0008	0.0015	0	0.003	9.5	31
-0.0008	0.0015	-0.0015	0.0045	9.2	31
-0.0015	-0.0053	-0.0008	0.003	9.4	31
-0.0015	0.0015	-0.0015	0.003	9.3	31
-0.003	0.0052	-0.003	0.0015	9.4	31
-0.003	-0.0015	-0.0038	-0.0008	9.3	31
0	-0.0053	-0.003	-0.0015	9.2	31
0.0015	-0.0046	-0.0008	-0.0008	9.5	31
0.003	-0.0008	0.0015	0.0007	9.2	31
0.0007	-0.0038	0.003	-0.0008	9.5	31
0.0007	-0.0083	0.0022	0	9.1	31
-0.0008	-0.0083	0.0037	-0.0008	9.5	31
-0.0008	-0.0091	0.0045	-0.003	9.2	31
-0.0008	-0.0105	0.003	-0.0008	9.5	31
-0.0015	-0.006	0.0037	0.0007	9.4	31
-0.0008	0.0022	0.0037	0.0052	9.4	31
0	0.0052	0.0045	0.0052	9.6	31
0	0.0052	0.0037	0.0045	9.4	31
-0.0008	0.0097	0.003	0.0022	9.6	31
-0.0015	0.0007	0.0045	-0.0008	9.5	31
-0.0015	-0.0023	0.003	0.0007	9.4	31
-0.0008	0.0052	0.0007	0.003	9.4	31
-0.0008	-0.0008	0	0.003	9.7	31
0	-0.0008	0.0007	0.003	9.5	31
0.0007	0.0007	0.0015	0.0052	9.7	31
0.0007	-0.003	0	0.0015	9.6	31
0.0015	0	-0.003	0	9.6	31
0.0007	0.0007	-0.0046	-0.0008	9.8	31
0.0007	0.0022	-0.0046	0.0007	9.6	31
0.0007	0.0052	-0.0015	0.0015	9.9	31
0.0007	-0.0015	-0.0015	-0.0023	9.6	31
0	-0.003	-0.0015	-0.0015	10	31
0	-0.0046	0.0007	-0.0008	9.5	31
-0.0008	-0.0105	-0.0008	-0.0008	9.8	31
-0.0008	-0.006	-0.0008	0.0007	9.8	31
-0.0008	0	-0.0015	-0.0008	9.9	31
0	-0.0008	-0.0015	-0.0008	9.8	31
-0.0008	-0.0015	-0.0008	-0.0015	10	31
0.0007	-0.0015	-0.0008	-0.0015	9.8	31
0.0015	-0.0068	-0.0008	-0.0008	9.9	31
0.0007	-0.0068	-0.0008	-0.0015	10	31
0.0007	-0.0046	-0.0008	-0.003	9.9	31
0	-0.0046	0	-0.003	10.1	31
-0.0008	-0.0008	-0.0015	-0.0046	9.9	31
-0.0008	0.009	-0.0008	-0.003	10	31
0	0.0232	0.0007	-0.0046	10	31
-0.0015	0.012	-0.0015	-0.0038	10.1	31
0.0007	-0.012	-0.0008	0.0052	10.1	31
0.0007	-0.015	-0.0015	0.0067	10	31
-0.0008	-0.0158	-0.0008	0.0045	10.2	31
0.0007	-0.0158	0	0.0045	10.3	31
0	-0.0113	-0.0008	0.0045	10.3	31
-0.0008	-0.0053	0.0007	0.009	10.3	31
0.0015	0.0255	0.0007	0.018	10.3	31
0.0007	0.0555	0.0007	0.021	10	31
-0.0015	0.0315	-0.0008	0.009	10.6	31
-0.0015	-0.0038	-0.0008	0.0015	10.2	31
-0.0023	-0.0015	0.0022	0.003	10.6	31
-0.0015	-0.0091	0.0022	-0.0008	10.3	31
-0.0008	-0.0068	0.003	-0.006	10.5	31
0	-0.0068	0.003	-0.015	10.6	31
0.0022	-0.0105	0.0015	-0.0195	10.3	31
0.0015	-0.0105	0.0007	-0.012	10.8	31
0.003	-0.015	-0.0008	0.009	10.4	31
0.0015	-0.0143	0.0007	0.0232	10.6	31
0	-0.0143	0	0.015	10.6	31
-0.0008	-0.0046	0.0007	0	10.6	31
0.0007	-0.003	-0.0008	-0.0128	10.6	31
0.003	0.0105	-0.0008	-0.0158	10.8	31
0.0015	0.0225	0	-0.0046	10.7	31
0.0007	0.003	-0.0008	0.0165	10.8	31
-0.0008	-0.0038	-0.0015	0.039	10.9	31
-0.0015	-0.0053	-0.0008	0.039	10.8	31
-0.003	-0.0083	0.0015	0.0127	11.1	31
-0.0008	-0.0053	0.0007	-0.0015	10.6	31
0	-0.0075	-0.0008	-0.0008	11.2	31
-0.0008	-0.0053	0	-0.0091	10.7	31
0.0007	-0.0091	-0.0015	-0.003	11.2	31
0.0007	-0.012	-0.003	0.003	11.1	31
0	-0.0075	-0.003	0.0127	11.2	31
-0.0008	-0.0038	-0.0015	0.021	11.2	31
0.0007	0	-0.0015	0.0037	11.1	31
-0.0008	-0.0008	-0.0015	-0.0046	11.2	31
-0.0008	0.0007	-0.0008	-0.0015	11.2	31
-0.0008	0.0105	0	-0.0015	11.2	31
-0.0015	0.027	-0.0008	-0.0046	11.2	31
-0.0015	0.0157	-0.003	-0.0038	11.5	31
-0.0015	0.0015	-0.0008	-0.0038	11.1	31
-0.0015	0.0165	0.0007	-0.0008	11.7	31
-0.0015	0.0105	0.0015	-0.0008	11.3	31
-0.0008	-0.0105	0.0015	-0.0046	11.5	31
-0.0015	-0.0091	-0.0008	-0.0008	11.5	31
-0.0008	-0.0098	-0.0015	-0.0008	11.5	31
-0.0023	-0.0083	0.0015	-0.0008	11.7	31
-0.0008	0.0022	0.0022	-0.0015	11.4	31
0.0007	0.0015	0.0007	-0.0068	11.9	31
0.0015	-0.0015	0.0007	-0.0091	11.7	31
0.0007	0	0.0015	-0.0075	11.7	31
-0.0008	0.0067	0.0022	-0.006	11.7	31
0.0007	0.0052	0.0015	-0.003	11.9	31
0.0015	-0.0046	0.0015	-0.0008	11.9	31
0.0022	-0.0015	0.003	0.0007	11.8	31
0.0015	-0.0023	0.0037	0.0015	11.9	31
0.0007	-0.006	0.0015	0.0022	11.7	31
0.0007	-0.0068	0.0007	0.003	12.1	31
0.0007	-0.0098	0.0007	0.0007	11.7	31
0.0015	-0.0091	-0.0008	-0.0008	12.2	31
0.0015	-0.0105	-0.0008	-0.0008	11.8	31
0.0007	-0.0105	-0.0008	0.0037	12.3	31
0.0007	-0.0075	-0.0008	0.003	12	31
-0.0008	0.0045	-0.0008	0.0022	12.1	31
0.0007	0.0165	-0.0023	0.0007	12.1	31
0.0007	0.0082	-0.0015	-0.0015	12	31
0.0015	-0.0015	-0.0015	-0.0008	12.4	31
0.003	-0.003	-0.003	-0.0015	12.3	31
0	-0.0046	-0.0015	-0.0008	12.2	31
0	-0.003	-0.0015	0.0015	12.4	31
0	0.0015	-0.0015	0.003	12.5	31
0	0.0007	-0.0008	0.003	12.2	31
-0.0008	0.0007	0	0.0045	12.6	31
0.0015	0.0007	0.0015	0.0007	12.5	31
0.0022	0	-0.0015	-0.0015	12.5	31
-0.0008	0.0007	-0.0008	-0.0015	12.6	31
-0.0015	0	0	-0.0008	12.6	31
-0.0023	0.003	0.0007	0.0022	12.8	31
-0.0015	0.0022	0.0015	0.0037	12.5	31
-0.0008	0.0015	0.0022	0.0045	13	31
-0.0015	0.003	0.0045	0.0037	12.5	31
-0.0008	0.0007	0.003	0.0052	12.9	31
-0.0008	-0.0015	0.0037	0.006	12.7	31
-0.0008	-0.0046	0.0052	0.009	12.8	31
0	-0.0046	0.0045	0.0075	13	31
-0.0008	-0.0046	0.003	0.0037	13.1	31
-0.0008	-0.0068	0.0015	0.003	12.8	31
-0.0015	-0.0015	0.0007	0.0022	13.1	31
-0.0023	0.0052	-0.0008	0.0007	13.1	31
0.0007	0.0105	-0.0008	0.0007	13.1	31
-0.0008	0.0112	-0.0015	0.003	13.4	31
-0.0008	0.0082	-0.0008	0.0015	13.1	31
-0.0008	0.015	-0.0015	-0.0008	13.4	31
-0.0008	0.006	-0.0015	-0.0046	13.4	31
0.0007	-0.0046	-0.0008	0.0007	13.4	31
0.0007	-0.0015	-0.0015	0.006	13.5	31
0.0022	-0.0083	-0.0015	-0.0015	13.3	31
0.0022	-0.006	-0.0023	-0.0091	13.7	31
0.003	-0.0068	0.0007	-0.0158	13.5	31
0.0015	-0.0053	0	-0.021	13.5	31
-0.0008	0	-0.0008	-0.0181	13.7	31
0.0007	0.0075	-0.0008	-0.0008	13.9	31
0.0007	0.0022	-0.0008	0.027	13.6	31
0.0007	-0.0083	0.0015	0.0465	14	31
0	-0.0091	0.0007	0.0277	13.7	31
-0.0015	-0.0128	0	0.0112	14.1	31
-0.0015	-0.0091	-0.0015	0.0165	13.8	31
0.0007	-0.0046	-0.003	0.0225	13.9	31
0.0007	0.0037	-0.0015	0.027	14	31
0.0015	0.0165	-0.0015	0.0015	14.1	31
0.0007	0.0142	-0.0015	-0.0105	14.3	31
0	-0.0038	-0.0015	-0.012	14	31
-0.0008	-0.0083	-0.0008	-0.0225	14.2	31
-0.0008	-0.0113	0.0007	-0.0158	14.2	31
-0.0008	-0.0091	0.0007	-0.0015	14.3	31
-0.0023	-0.0023	0.0007	0.0007	14.3	31
-0.0008	-0.0046	0	-0.0135	14.3	31
-0.0015	0.0007	-0.0015	-0.0068	14.4	31
-0.0015	0	-0.0023	0.0022	14.7	31
0.0015	0.0015	-0.0015	0.0052	14.5	31
0.0015	-0.0023	-0.0008	0.0157	14.6	31
-0.0008	-0.0128	-0.0008	0.0135	14.8	31
-0.0015	-0.024	-0.0008	0.0015	14.5	31
-0.003	-0.0256	-0.0015	-0.0181	14.8	31
-0.003	-0.0181	-0.0015	-0.0128	14.6	31
-0.0015	-0.0128	-0.0008	0.0007	15.1	31
-0.0015	-0.0083	0.0015	0.009	14.7	31
0	0.0052	0.0007	0.0135	15.1	31
0.0007	0.0352	-0.0008	0.0097	14.8	31
-0.0008	0.0352	-0.0023	0.0052	15	31
0.0007	0.0045	-0.003	-0.0075	15	31
0.0015	0.0007	-0.0015	-0.0015	15.2	31
0.0022	-0.003	-0.0008	0.0067	15.2	31
0.0015	-0.0128	-0.0008	0.0037	15.2	31
0.0015	-0.012	-0.0015	0.003	15.4	31
0.003	0.0007	0.0022	-0.0046	15	31
0.0015	0.0202	0.0037	-0.0158	15.5	31
0.0007	0.0135	0.0015	-0.0158	15.1	31
0.0007	0.018	0.0022	0	15.6	31
0.0022	0.0405	0.0045	0.0127	15.2	31
0.003	0.0217	0.0037	0.0082	15.6	31
0.0015	0.0007	0.0037	0.0015	15.4	31
0.0015	0.0022	0.0045	0.0097	15.7	31
0.0007	-0.0008	0.0015	0.0052	15.6	31
0	-0.0008	0.0007	-0.0038	15.5	31
-0.0008	-0.003	0.0007	-0.0008	15.7	31
0.0007	-0.0053	-0.0008	-0.0023	15.7	31
0.0007	-0.0083	-0.0008	0.0082	15.7	31
-0.0008	-0.0203	-0.0023	0.0112	15.9	31
-0.0015	-0.0278	-0.0023	0.0082	15.9	31
-0.003	-0.0256	0.0007	0.009	15.7	31
-0.003	-0.0203	0.0007	0.0007	16	31
-0.0008	-0.0135	-0.0008	0.012	15.8	31
-0.0008	-0.0046	-0.0023	0.012	16.1	31
-0.0015	0.012	-0.003	-0.0008	16.2	31
-0.0015	0.0142	-0.0038	-0.006	16	31
-0.0015	-0.006	-0.0008	-0.0105	16.3	31
-0.003	-0.0046	0	-0.0135	15.9	31
-0.003	-0.003	-0.0015	-0.0128	16.4	31
0.0007	-0.012	-0.0015	-0.0105	16	31
0.0015	-0.0091	-0.0015	-0.012	16.6	31
0.0015	-0.0128	-0.0008	0.0067	16.3	31
0.0015	-0.0023	0	0.027	16.4	31
0.0007	0.0202	0.0007	0.0135	16.5	31
0.0015	0.0277	0.003	-0.0046	16.4	31
0.0007	0.0015	0.0015	-0.0083	16.1	31
0.0015	-0.0053	0	-0.0053	16.7	31
-0.0008	0.009	-0.0015	0.0135	16.4	31
-0.0015	0.0142	-0.003	0.0217	16.7	31
-0.0015	0.012	-0.003	0.003	16.6	31
-0.0015	-0.0023	-0.003	-0.0046	16.6	31
-0.0008	0.0037	-0.0046	-0.0023	16.7	31
-0.0015	0.0022	-0.0038	-0.0046	16.6	31
-0.003	0.0007	-0.0015	-0.0008	17	31
-0.0038	-0.0015	-0.0008	0.0007	16.6	31
-0.0038	-0.0091	-0.003	-0.006	16.9	31
-0.003	-0.0068	-0.0038	-0.0113	16.9	31
-0.0008	-0.0068	-0.0015	-0.0158	16.9	31
-0.0008	-0.0105	-0.0008	-0.0203	16.8	31
0.0015	-0.0158	0	-0.0203	17	31
0.0022	-0.0083	0.0022	-0.0113	17	31
0.0022	0.012	0.0007	0.0052	17.1	31
0.0015	0.0292	0.0022	0.0292	17.3	31
0.0015	0.0135	0.0067	0.045	16.9	31
0.003	0.009	0.0082	0.0427	17.3	31
0.0045	0.0157	0.0075	0.0292	16.9	31
0.0045	0.0007	0.003	0.0082	17.5	31
0.0022	0.003	0.0045	-0.0008	17.1	31
0.0007	0.0007	0.003	-0.0008	17.3	31
-0.0008	-0.006	0	0.0075	17.3	31
-0.0008	-0.0113	0	0.0067	17.3	31
0	-0.0165	0	-0.003	17.5	31
-0.0008	-0.012	0.0015	0.0015	17.3	31
0.0007	-0.0091	0.0007	-0.0046	17.4	31
0.0007	-0.0008	0.0007	-0.0015	17.5	31
0.0007	0.0045	-0.0008	-0.0008	17.5	31
0.0022	0	-0.0008	-0.0023	17.6	31
0.003	0.0007	0.0007	-0.0046	18	31
0.003	-0.0015	-0.0008	-0.0105	17.4	31
0.0022	-0.0015	-0.0015	-0.0083	17.9	31
0.003	0.0015	-0.0008	-0.0105	17.5	31
0.0022	0.0007	0	-0.0113	17.8	31
0.0037	0.0007	-0.0015	-0.0128	17.8	31
0.0037	0.0007	-0.0008	-0.0158	17.6	31
0.0022	0.0015	-0.0015	-0.0233	18	31
0.003	0.0007	-0.0038	-0.024	17.7	31
0.0037	0	-0.003	-0.0165	18.1	31
0.0022	0.0007	-0.0046	-0.0091	17.6	31
0.0015	-0.003	-0.0023	0.0202	18	31
0.0015	-0.0068	0	0.0502	18	31
0	-0.0083	0.0007	0.0315	18	31
-0.0015	-0.0083	-0.0015	0.0097	18.1	31
-0.0038	-0.0091	-0.0015	0.0052	18.3	31
-0.0023	-0.006	0.0007	0.0022	18.4	31
-0.0015	-0.0015	-0.0008	0.0195	18	31
-0.0023	-0.0008	0.0007	0.0195	18.4	31
-0.0038	-0.0015	0	0.018	18.2	31
-0.0038	-0.0068	0.0007	0.009	18.6	31
-0.0023	-0.0075	-0.0008	0.0067	18.2	31
-0.0015	-0.0053	0	0.0067	18.6	31
0	-0.003	0.0007	-0.0008	18.3	31
-0.0008	-0.0023	-0.0008	0.0105	18.6	31
-0.0015	-0.0015	-0.0015	-0.0015	18.4	31
-0.0023	0.0007	-0.0015	-0.0053	18.5	31
-0.0015	0.0075	0.0015	-0.0068	18.6	31
0	0.012	0.0015	-0.0128	18.6	31
-0.0015	0.0015	0.003	-0.0083	18.6	31
0	-0.0023	0.0037	-0.012	18.7	31
-0.0008	-0.003	0.0037	-0.0158	18.6	31
-0.0015	-0.0068	0.003	-0.0256	18.9	31
-0.0015	-0.0008	0.0022	-0.0256	18.9	31
0	0.0007	0.0022	-0.0278	18.6	31
0	-0.0023	-0.0008	-0.0165	18.9	31
0.0007	-0.0008	0.0007	0.021	18.7	31
-0.0008	-0.0038	-0.0008	0.0202	18.9	31
-0.0015	-0.0105	0	0.0007	18.8	31
0	-0.0083	0.0045	0.0202	18.9	31
-0.0008	-0.012	0.006	0.027	19.1	31
-0.0015	-0.0218	0.003	0.0007	18.9	31
-0.0015	-0.0008	0.0037	0.0037	19.2	31
-0.0023	0.0195	0.006	0.0232	19.1	31
-0.0015	0.012	0.0015	0.012	19.2	31
-0.003	0.033	0.0007	0.0067	19	31
-0.0015	0.0735	0.003	0.0127	19.2	31
-0.0008	0.054	0.0022	0.0045	19.4	31
-0.0023	-0.0038	0.0007	0.0127	19.4	31
-0.0023	-0.0135	-0.0015	0.0157	19.2	31
-0.0023	-0.0195	-0.0015	0.0067	19.4	31
-0.003	-0.0278	-0.0015	-0.0008	19.1	31
-0.0023	-0.0203	-0.0008	-0.0105	19.7	31
-0.0008	-0.0256	-0.0008	-0.0188	19.3	31
-0.0023	-0.0203	-0.003	-0.0233	19.5	31
-0.0015	-0.024	-0.0023	-0.012	19.5	31
-0.0015	-0.021	-0.003	0.0067	19.6	31
-0.0015	-0.0158	-0.0053	0.0292	19.7	31
0.0015	-0.0143	-0.006	0.0165	19.5	31
0.0007	-0.0091	-0.0053	-0.012	19.7	31
0.0022	-0.0091	-0.0053	-0.0053	19.7	31
0.003	-0.0053	-0.0038	-0.0023	19.7	31
0.0015	-0.006	-0.003	-0.0023	19.8	31
0.0022	-0.0091	-0.0038	0.003	19.7	31
0.0007	-0.0105	-0.003	0	19.5	31
0.0007	-0.0105	-0.0038	-0.0015	20.1	31
0.0007	-0.0008	-0.0038	-0.0068	19.5	31
0.0015	0.0217	-0.0023	-0.0053	20.1	31
0.0015	0.033	-0.0008	-0.0105	19.6	31
0.0015	0.039	-0.0015	-0.0165	20.1	31
0.0022	0.0345	0	-0.0158	19.9	31
0.0037	0.0292	0.0022	-0.012	19.8	31
0.0052	0.024	0.0037	0.0082	20.1	31
0.0037	0.0082	0.003	0.0255	19.9	31
0.0052	0.0277	0.0022	0.024	20.2	31
0.0052	0.0217	0.0015	0.0307	19.9	31
0.0022	-0.0046	-0.0008	0.027	20.1	31
0.0015	-0.0053	-0.0015	0.003	20.1	31
0.0015	-0.0083	-0.003	-0.003	20.2	31
0.0015	-0.0015	-0.0008	-0.0053	20.2	31
0.0007	-0.003	-0.0008	0.0037	20.2	31
0.0015	-0.0015	0	0.0067	20.3	31
0.0007	-0.0015	0.0015	0.003	20.2	31
0.0007	-0.0083	0.0015	0.0075	20.3	31
0	-0.0083	0	0	20.2	31
-0.0023	-0.012	-0.0008	0.0015	20.6	31
-0.0015	-0.0113	0.0007	0.0007	20.1	31
-0.003	-0.012	0.0007	0.0007	20.6	31
-0.0023	-0.0105	-0.0008	-0.0008	20.1	31
-0.0015	-0.0083	-0.0008	-0.0053	20.5	31
-0.0008	-0.0046	0.0007	-0.0091	20.3	31
-0.0008	-0.003	0.0015	-0.0128	20.4	31
-0.0008	-0.0083	0	-0.0091	20.6	31
0.0007	-0.0068	0.0007	-0.0008	20.6	31
0.0007	-0.0068	-0.0008	-0.012	20.5	31
-0.0008	0.0015	0.0015	-0.0195	20.7	31
-0.0015	0.012	0.0007	0.0052	20.5	31
-0.0008	0.003	0	0.009	20.7	31
-0.0008	0.003	0.0037	0.0097	20.7	31
0.0015	0.0082	0.0045	0.0217	20.6	31
0	-0.0008	0.003	0.024	20.8	31
-0.0015	0.0007	0.0022	0.024	20.7	31
-0.0008	-0.0015	0.0015	0.009	20.8	31
-0.0015	-0.0053	0.0015	0.0037	20.9	31
-0.0008	-0.0053	0	0.0045	20.7	31
-0.0015	-0.006	-0.0023	0.009	21	31
-0.0008	-0.0091	-0.003	0.009	20.8	31
0.0007	-0.0105	-0.0008	-0.0046	21.1	31
0.0015	-0.0083	0.0007	-0.0023	20.8	31
0.0007	-0.0105	-0.003	0.006	20.9	31
-0.0008	-0.0075	-0.0023	0.015	20.9	31
0	-0.0046	-0.0008	0.0105	21.1	31
-0.0008	-0.0068	-0.0008	-0.0015	20.8	31
0.0007	-0.0053	0	-0.003	21.3	31
0.0007	-0.003	-0.0023	-0.0053	20.9	31
0	-0.0023	-0.0008	-0.0083	21.3	31
-0.0008	-0.0068	0.0007	-0.0091	21.1	31
-0.0008	-0.0053	-0.0008	-0.0083	21.4	31
-0.0008	-0.0015	0.0007	-0.0091	21.3	31
-0.0008	0.0082	0.0007	-0.0091	21	31
-0.0015	0.0315	0.0015	-0.003	21.4	31
-0.0008	0.0277	0.0007	-0.0023	21.2	31
0.0015	0.003	-0.0008	-0.0015	21.4	31
0.0007	0.0015	0.0022	0.0007	21.5	31
0.0007	0	0.003	-0.003	21.1	31
0.0007	-0.0023	0.0007	-0.0008	21.5	31
0.0007	0	-0.0008	-0.0015	21.4	31
0.0007	-0.003	-0.0015	-0.0038	21.4	31
0.0007	-0.0023	-0.0008	-0.0038	21.7	31
0.0015	-0.0038	0.0007	-0.003	21.5	31
0.0015	-0.0023	0.0007	0.0007	21.5	31
0.0015	-0.0008	0.0015	0	21.8	31
-0.0008	0.0015	0.0015	-0.0015	21.5	31
0.0007	0.003	0.0007	-0.0046	21.7	31
0.0015	0.003	-0.0008	-0.003	21.5	31
0.0007	0.003	-0.0008	-0.0023	21.9	31
0.0007	-0.0015	-0.0008	-0.0023	21.5	31
-0.0008	-0.0053	-0.0008	0.0052	21.8	31
0.0007	-0.0091	0.0007	0.0112	21.7	31
0.0015	-0.0098	-0.0023	0.018	21.8	31
0.0015	-0.0105	-0.0015	0.0217	21.8	31
0.0015	-0.0105	-0.0008	0.0015	21.9	31
0.0007	-0.0068	-0.0008	-0.0165	21.9	31
0.0007	0.0045	-0.0015	-0.0075	21.7	31
0.0015	0.0202	-0.0015	0.0045	22.1	31
0.0022	0.018	-0.0015	0.0112	21.8	31
0	0.012	-0.0015	0.0075	22.2	31
0.0015	0.0165	0.0007	0.0105	21.7	31
0.0015	0.0045	0.0015	0.0217	22.1	31
-0.0008	0.0022	0.0007	0.0067	22.1	31
0.0007	-0.0008	0.0007	-0.0015	22	31
-0.0008	-0.0038	0.0007	0.0022	22.2	31
-0.0008	-0.003	0.0007	0.0097	21.9	31
-0.0008	-0.0098	0.0007	0.009	22.3	31
-0.0015	-0.0105	0	-0.0046	22	31
-0.0015	-0.0128	-0.0008	-0.0008	22.2	31
0	-0.0015	0.0007	-0.0015	22.2	31
0	0.009	0.0007	-0.012	22.4	31
0	0.0105	0.0007	-0.012	22.3	31
-0.0008	0.0105	0.0007	-0.003	22.1	31
0.0007	0.009	0.003	0.0082	22.4	31
0.0007	0.006	-0.0015	0.0097	22.3	31
0.0007	0.0037	-0.003	0.0105	22.6	31
0.0015	-0.0015	-0.0015	0.0067	22.4	31
-0.0008	-0.0068	-0.0015	0.009	22.6	31
0	-0.0046	0.0022	0.009	22.3	31
-0.0015	-0.0105	0.0037	-0.0023	22.7	31
-0.0023	-0.0098	0.0015	0.0037	22.5	31
0.0007	-0.006	0.0015	0.0127	22.7	31
0	-0.0128	-0.0015	-0.003	22.6	31
-0.0008	-0.021	0.0007	-0.0143	22.6	31
-0.0008	-0.0158	0.0015	-0.0068	22.8	31
0.0007	-0.0091	0.0015	-0.0068	22.8	31
0.0007	-0.0181	0.0007	-0.0038	22.7	31
0	-0.0203	-0.0008	0.0045	22.9	31
-0.003	-0.0233	-0.0008	0.0045	22.9	31
-0.003	-0.0195	-0.0015	-0.0008	22.6	31
-0.003	-0.0083	-0.0015	-0.0015	23	31
-0.0015	-0.0158	-0.0023	0.0015	22.9	31
0.0015	-0.024	-0.0046	-0.003	23	31
-0.0015	-0.0225	-0.0046	-0.0068	23.1	31
0.0007	0.0052	-0.0046	-0.0053	22.9	31
0.0015	0.015	-0.0038	-0.0135	23.4	31
0.0015	-0.0143	0	-0.0113	22.9	31
0.0022	0.0097	0.0022	-0.0053	23.5	31
0.0022	0.0787	0.003	-0.006	23	31
0.003	0.108	0.003	0.0232	23.4	31
0	0.0502	0.0015	0.0262	23.5	31
-0.0015	0.0045	0	0.0007	23.5	31
-0.0015	-0.0135	-0.0015	0.0007	23.6	31
-0.0015	-0.0256	0.0015	-0.0023	23.6	31
0.0007	-0.0113	0.003	0.0142	23.5	31
0.0007	-0.0158	0.0015	0.0375	23.7	31
0.0015	-0.006	0.0052	0.048	23.7	31
0.0007	0.0112	0.0052	0.0442	23.7	31
0	0.036	0.003	0.0007	23.9	31
-0.0015	0.0187	-0.0008	-0.012	23.7	31
-0.0015	-0.0128	-0.0008	-0.0015	23.9	31
0.0007	-0.003	0.0015	-0.006	23.7	31
-0.0008	-0.0105	0.0007	-0.0053	24	31
-0.0008	-0.006	0.0015	-0.015	24	31
0.0007	-0.003	-0.0008	-0.0135	24	31
0.0015	-0.0015	-0.003	-0.0083	24.4	31
0.0007	0.0015	-0.0015	-0.012	24.1	31
0.0015	0.0007	-0.003	-0.0091	24.1	31
0	0.003	-0.003	-0.0098	24.2	31
-0.0008	0	-0.003	-0.0105	24.3	31
-0.0015	0.0007	-0.003	-0.0105	24.2	31
-0.0015	0.0007	-0.0023	-0.0091	24.6	31
0.0015	0.0007	-0.0015	0.0037	24.3	31
0.0015	-0.0015	-0.0038	0.0225	24.7	31
0.0015	-0.0053	-0.0038	0.0232	24.4	31
0.0015	-0.0105	-0.0015	0.0045	24.7	31
0.0007	-0.012	-0.0008	-0.015	24.6	31
0.0015	-0.0091	0.0007	-0.0195	24.5	31
0.0015	-0.0091	0.0007	-0.0091	24.8	31
0.0015	-0.0075	-0.0008	-0.0015	24.5	31
0.0015	-0.0083	0.0007	-0.0023	24.9	31
0.0015	-0.0083	0.0007	-0.0053	24.7	31
0.0007	-0.0046	0.0007	-0.0083	24.7	31
0.0007	-0.0008	0.003	-0.0105	25	31
-0.0008	-0.0083	0.0045	-0.0083	25	31
0	-0.0068	0.0015	0.0007	24.9	31
0.0015	0.0007	-0.0008	0.0127	25.2	31
0	0.0037	-0.0008	0.0157	25	31
0.0007	0.0045	-0.0015	-0.0083	25.1	31
0	0.0052	-0.0008	-0.021	25.3	31
0.0007	0.0052	0.0007	-0.0203	25.1	31
0.0007	-0.003	0.0015	-0.0181	25.6	31
-0.0008	-0.0008	0.0007	0.0112	25.1	31
0.0015	0.0022	0.0015	0.0495	25.5	31
-0.0008	-0.0075	0.0015	0.078	25.3	31
-0.0015	-0.0158	-0.0008	0.0652	25.6	31
-0.0046	-0.0218	0.0007	0.03	25.6	31
-0.0053	-0.0195	0.0037	0.0127	25.6	31
-0.0046	-0.015	0.003	0.0045	25.6	31
-0.003	-0.0128	0.0045	0.0015	25.7	31
-0.0015	-0.0038	0.0052	-0.0008	25.6	31
-0.003	-0.0046	0.0052	-0.0046	25.7	31
-0.0046	-0.0075	0.0015	-0.0038	26.1	31
-0.003	-0.0053	-0.0008	-0.0053	25.7	31
-0.003	-0.006	-0.0015	-0.006	26.1	31
-0.003	-0.0008	-0.0046	-0.0083	25.8	31
-0.0015	0.0015	-0.0038	-0.0105	26	31
-0.0015	0.0037	-0.0046	-0.0083	26.2	31
-0.0008	0.0045	-0.0053	-0.0075	26	31
-0.003	0.006	-0.0046	-0.0075	26.4	31
0	0.009	-0.0038	-0.0098	26.1	31
0.003	0.0097	0.0007	-0.0158	26.5	31
0.0015	0.0127	0.0015	-0.0203	26.2	31
0.003	0.015	-0.0008	-0.0195	26.6	31
0.003	0.0165	-0.0008	-0.0128	26.5	31
0.003	0.0157	-0.0008	-0.0053	26.7	31
0.003	0.0097	0	-0.0015	26.6	31
0.0015	0.0075	0	0.0015	26.8	31
0.003	0.012	0.0015	0.0075	26.9	31
0.003	0.0097	0.0022	0.012	26.7	31
0.0007	0.0082	0.0015	0.0195	27.2	31
0	0.0097	0.0045	0.0307	26.9	31
0	0.0045	0.0037	0.0367	27.2	31
-0.0008	0.0007	0.0037	0.0307	27	31
0	-0.0105	0.0007	0.0217	27.3	31
-0.0015	-0.0195	-0.0038	-0.0068	27.3	31
-0.0015	-0.0195	-0.003	-0.015	27.2	31
-0.0015	-0.0225	-0.0008	-0.0053	27.6	31
-0.0023	-0.024	-0.0008	-0.0203	27.3	31
-0.0015	-0.0053	-0.0008	-0.0143	27.8	31
-0.0008	0.0097	0.0007	-0.0083	27.6	31
0.0007	0.0112	-0.0008	-0.0113	27.6	31
0.0007	0.015	0.0022	0.0022	27.8	31
0	0.0007	0.0052	0.0037	27.9	31
0	-0.0098	0.003	-0.0046	27.9	31
0.0022	-0.0083	0.0007	-0.0173	27.9	31
0.0022	-0.0008	-0.0038	-0.0308	28.2	31
0.0015	0.009	-0.0053	-0.0233	27.9	31
0.0015	0.0112	-0.0053	-0.0105	28.4	31
0.0022	0.015	-0.0053	-0.0128	27.9	31
0.003	0.0157	-0.003	-0.0113	28.6	31
0.0022	0.0157	-0.0008	0.0127	28.2	31
0.003	0.003	-0.0008	0.039	28.4	31
0.0007	-0.0135	-0.003	0.0202	28.5	31
-0.0015	-0.0173	-0.0046	-0.0083	28.5	31
-0.0023	-0.006	-0.003	0.0292	28.9	31
-0.0015	0.0015	0.0007	0.0405	28.7	31
0.0007	0.0022	0.0007	0.0345	28.8	31
0	0.0015	0.0007	0.054	28.9	31
0.0007	-0.0105	0.0007	0.012	28.8	31
0	-0.0143	0.0022	-0.012	28.8	31
-0.0008	-0.0143	0.0052	-0.0091	29.2	31
0	-0.0113	0.0067	-0.006	29	31
-0.0008	-0.0068	0.0037	-0.0046	29.4	31
-0.0008	-0.012	-0.0008	-0.0091	29.4	31
-0.0015	-0.0143	-0.003	-0.003	29.3	31
-0.0015	-0.0105	-0.003	-0.0023	29.7	31
-0.0008	-0.0038	0.0007	0.0052	29.3	31
-0.0015	0.0007	0.0007	0.009	29.9	31
-0.0008	0.003	-0.0023	-0.0023	29.3	31
-0.0015	0.0015	-0.003	-0.0428	30	31
-0.0015	0.0052	-0.0038	-0.0428	29.9	31
0.0007	0.0135	-0.0015	-0.0181	29.8	31
-0.0008	0.018	-0.0015	-0.0158	30	31
0	0.0277	-0.0008	-0.003	30.1	31
0.0007	0.0345	0.003	0.0217	30.1	31
-0.0015	0.0262	0.0015	0.0307	30.4	31
-0.0023	0.0277	0.0052	0.0277	30.3	31
-0.0015	0.0285	0.0067	0.024	30.3	31
-0.003	0.003	0.0052	0.0202	30.5	31
-0.003	0.003	0.0052	0.039	30.4	31
-0.0023	0.0007	0.0052	0.0292	30.7	31
-0.003	-0.0098	0.0052	0.024	30.6	31
0	-0.0113	0.0052	0.012	30.7	31
0.0015	-0.0203	0.0045	-0.0113	30.9	31
0.003	-0.0203	0.003	-0.0046	30.7	31
0.0045	-0.0188	0.0015	-0.006	31.2	31
0.003	-0.0158	0.0007	-0.0105	30.8	31
0.0045	-0.0181	-0.0008	-0.027	31	31
0.0045	-0.0158	-0.0015	-0.0233	31.2	31
0.003	-0.0091	-0.003	-0.0248	31.3	31
0.0052	-0.015	-0.0046	-0.0285	31	31
0.0045	-0.0105	-0.0053	-0.0256	31.7	31
0.0015	-0.0053	-0.0046	-0.0353	31.2	31
0.0015	-0.0091	-0.0053	-0.0368	31.7	31
0	-0.0165	-0.0053	-0.0098	31.6	31
-0.0008	-0.0188	-0.0053	0.027	31.7	31
0	-0.0053	-0.0038	0.0405	31.9	31
-0.0015	0.003	-0.0023	0.0135	31.8	31
-0.0023	0.0022	-0.003	-0.0068	32.1	31
-0.003	0.0165	-0.0015	0.0472	31.9	31
-0.0015	0.0352	0.0007	0.078	32.2	31
-0.0008	0.0292	0	0.078	32.2	31
-0.003	0.0015	-0.0008	0.0427	32	31
-0.0038	-0.0008	0.0015	0.0157	32.4	31
-0.0008	0.003	0.003	0.0232	32.6	31
-0.0015	-0.0083	-0.0008	-0.0105	32.5	31
-0.003	0.0022	0.0007	-0.0233	32.6	31
-0.0015	0.0015	0.0052	-0.0285	32.8	31
-0.0008	-0.0083	0.0075	-0.0008	32.5	31
0.0007	-0.0105	0.0067	0.0247	32.9	31
0.0015	-0.0165	0.0022	-0.003	32.6	31
0.003	-0.0143	-0.0008	-0.0188	33.2	31
0.0037	-0.0128	-0.0015	-0.0278	32.7	31
0.0015	-0.0091	-0.0046	-0.0346	33.1	31
-0.0008	-0.0046	-0.0053	-0.0465	33.1	31
0.0007	-0.0015	-0.0053	-0.057	33.1	31
0.0022	0.0015	-0.0046	-0.0555	33.4	31
0	0.006	-0.0015	-0.0428	33.1	31
0.0015	0.0135	-0.0008	-0.0158	33.3	31
0.0052	0.0202	-0.0008	0.0105	33.4	31
0.0052	0.0202	-0.0008	0.0352	33.6	31
0.003	0.0142	0.0015	0.0457	33.6	31
0.0015	0.0052	0.0037	0.0382	34	31
0.0015	-0.0015	0.0052	0.0105	33.6	31
0.0007	-0.0038	0.0052	-0.0105	33.9	31
0.0015	0.003	0.0067	0.006	34	31
0.0007	0.009	0.0052	0.0082	34	31
-0.0046	0.0097	0.0045	0.0187	34.3	31
-0.0046	0.009	0.0022	0.0375	34.1	31
-0.003	-0.0015	0.0007	0.024	34.6	31
-0.003	-0.0053	0.0007	0.0015	34.2	31
-0.0015	0.0045	0.0015	0	34.6	31
-0.0015	0.0007	0.0015	0.0127	34.4	31
-0.003	-0.012	0.0007	0.009	34.5	31
-0.0023	-0.0091	0.0007	0.0142	34.8	31
-0.0008	-0.0068	0	0.0112	34.9	31
-0.0015	-0.0098	-0.0015	-0.0008	34.8	31
-0.0015	-0.0068	0	-0.0053	35.1	31
-0.0008	-0.0046	-0.0023	-0.0218	35.1	31
0.0015	-0.0023	-0.0046	-0.0443	34.8	31
0.003	0.0037	-0.0053	-0.06	35.4	31
0.0052	0.0142	-0.0046	-0.0555	35.1	31
0.0052	0.0135	-0.0038	-0.0668	35.6	31
0.0037	0.018	-0.0075	-0.0398	35.4	31
0.0052	0.0277	-0.006	0.0187	35.5	31
0.006	0.0157	-0.0046	0.0247	35.7	31
0.0037	0.003	-0.006	0.0382	35.7	31
0.0015	0.0045	-0.003	0.066	35.9	31
-0.0015	-0.0068	-0.0023	0.0195	35.7	31
-0.006	-0.0248	-0.0015	-0.0173	36.1	31
-0.0046	-0.0128	0.0045	0.0367	36	31
-0.0008	0.0045	0.0082	0.078	36.1	31
-0.0008	-0.0143	0.0105	0.0772	36.4	31
-0.003	-0.0308	0.0067	0.0532	36.3	31
-0.0068	-0.0503	0.0015	0.003	36.4	31
-0.0068	-0.0533	0.003	-0.0068	36.6	31
-0.0053	-0.0338	0.003	0.0075	36.6	31
-0.0053	-0.0353	0.003	-0.0053	36.6	31
-0.0046	-0.0256	0.0037	-0.0038	36.9	31
-0.003	-0.0225	0.0007	-0.0105	36.8	31
-0.0015	-0.0165	-0.0023	-0.0315	37.2	31
0.0007	-0.0091	-0.0023	-0.0428	36.9	31
0.0015	-0.0053	-0.0015	-0.0548	37.5	31
0.003	0.0045	-0.003	-0.06	37.1	31
0.0045	0.0082	-0.003	-0.0413	37.6	31
0.0052	0.0165	-0.0015	-0.012	37.5	31
0.0052	0.0255	-0.0015	0.0015	37.6	31
0.0052	0.036	-0.0008	0.0195	37.7	31
0.0037	0.03	-0.003	0.018	37.9	31
0.0015	0.0217	-0.0068	-0.0038	37.9	31
0.0007	0.0307	-0.0046	-0.0015	38.1	31
0.0015	0.0345	-0.0008	0.0105	38.3	31
0.0015	0.0285	0.0007	0.0307	38.2	31
-0.0008	0.0202	-0.0015	0.015	38.5	31
-0.0008	0.015	-0.0053	-0.0128	38.3	31
-0.0008	0.0225	-0.003	0.0322	38.8	31
0.0007	0.018	0.0045	0.0585	38.7	31
0.0007	0.0007	0.0037	0.036	38.8	31
-0.0008	-0.012	0.0022	0.027	39	31
-0.0023	-0.0218	0.0015	0.012	38.9	31
-0.0038	-0.0195	0.0007	0.0045	39.4	31
-0.0015	-0.0173	0.003	0.0142	39.1	31
0.0007	-0.0165	0.0015	0.0082	39.5	31
-0.0015	-0.015	-0.0015	-0.0023	39.6	31
-0.0015	-0.0105	0	-0.0173	39.6	31
-0.0015	-0.0023	0.0015	-0.0233	39.7	31
0.0007	0.0015	0.0007	-0.0293	39.9	31
0.0045	0.0075	0.0007	-0.0353	39.8	31
0.0052	0.0142	0	-0.003	40.3	31
0.0037	0.0105	-0.0038	-0.0105	40	31
0	0.0082	-0.0053	-0.0293	40.5	31
0	0.0135	-0.0053	-0.0023	40.3	31
-0.0008	0.0105	-0.0046	-0.0135	40.4	31
-0.0015	0.0015	-0.0038	-0.0158	40.5	31
-0.0015	0.0007	-0.003	-0.0023	40.7	31
-0.0015	0.009	-0.0015	-0.0113	41	31
-0.0023	0.0142	0	0.03	40.8	31
-0.0015	0.003	0.0022	0.066	41.2	31
-0.0015	-0.0015	0.006	0.0547	41.2	31
-0.003	-0.0105	0.0105	0.0465	41.3	31
-0.0046	-0.027	0.0127	0.0307	41.4	31
-0.0046	-0.0218	0.0127	0.0097	41.5	31
-0.0046	-0.0173	0.009	-0.0143	41.5	31
-0.0053	-0.0165	0.0067	-0.0181	41.8	31
-0.0053	-0.0256	0.0067	-0.0135	41.8	31
-0.003	-0.0315	0.0045	-0.0158	42	31
-0.0023	-0.0218	0.0022	-0.0091	42.2	31
-0.0023	-0.0195	0.0007	-0.0143	42.2	31
-0.0008	-0.0158	-0.0015	-0.0203	42.6	31
0	-0.0135	-0.003	-0.0143	42.2	31
0.0015	-0.0053	-0.003	0	42.8	31
0.0022	0.0015	-0.0053	-0.0075	42.6	31
0.003	0.0037	-0.0068	-0.0338	42.9	31
0.0045	0.0142	-0.003	-0.054	42.9	31
0.0075	0.021	-0.0008	-0.0375	42.9	31
0.0075	0.024	-0.0023	0.0082	43.1	31
0.0052	0.0262	-0.0046	0.006	43.3	31
0.006	0.0232	-0.0015	0.009	43.4	31
0.003	-0.0075	-0.003	0.024	43.3	31
-0.0023	-0.0308	-0.0038	0.0052	43.8	31
-0.003	-0.0188	0.0015	0.0015	43.5	31
-0.0015	-0.0188	0.0007	0.0345	44.1	31
-0.0015	-0.0233	-0.0015	0.0742	43.9	31
-0.0023	0.0015	-0.003	0.0487	44.1	31
-0.0038	0.0367	0.003	0.024	44.2	31
-0.0015	0.0517	0.0082	0.0082	44.2	31
0.0007	0.0232	0.0037	-0.0083	44.5	31
-0.0008	-0.0053	0.0007	0.0067	44.5	31
-0.0008	-0.0203	-0.0038	-0.006	45	31
-0.0015	-0.0225	-0.0038	-0.0248	44.5	31
-0.0015	-0.0091	-0.0015	-0.033	45	31
-0.0008	0.0007	-0.0008	-0.0346	45	31
-0.0008	0.0202	0.0007	-0.024	45.1	31
0.0015	0.0292	-0.0015	-0.006	45.4	31
0.0015	0.024	-0.0015	0.0067	45.3	31
-0.0008	0.009	-0.0038	0.0187	45.5	31
-0.003	-0.0083	-0.006	0.0112	45.5	31
-0.0038	-0.0143	-0.0068	-0.0248	45.9	31
-0.0015	0.0007	-0.0038	-0.0143	45.8	31
0.003	0.0187	0.0007	0.042	46.3	31
0.0052	0.0112	0.0015	0.0285	45.9	31
0.0037	0.0015	0.0007	-0.0285	46.4	31
0.003	0.0105	0.0037	0.0015	46.2	31
0.0052	0.0045	0.0075	0.0645	46.6	31
0.0037	-0.0218	0.003	0.0457	46.5	31
0.0015	-0.03	-0.0023	-0.0008	46.5	31
-0.0015	-0.0218	-0.0046	0.0082	46.8	31
-0.0015	-0.0173	-0.0068	-0.0158	46.9	31
-0.0023	-0.024	-0.0091	-0.0428	47.1	31
-0.0046	-0.0143	-0.0075	-0.0143	47.2	31
0.0007	-0.0053	-0.0053	0.0067	47.4	31
0.003	0.0015	-0.0053	0.0255	47.4	31
0.003	0.0082	0.0015	0.0195	47.7	31
0.0015	-0.0068	0.0015	0.009	47.7	31
0	-0.0068	-0.0015	-0.0038	48	31
0.0015	-0.003	0.0015	-0.0158	48.1	31
0.0015	-0.003	0.0007	-0.0218	48	31
0.003	0.0067	-0.0015	-0.039	48.4	31
0.0037	0.0217	-0.0023	-0.0218	48.2	31
0.003	0.0337	-0.0008	-0.012	48.6	31
0.0045	0.0405	0.0007	-0.0308	48.4	31
0.0045	0.054	0.0015	-0.0278	49	31
0.003	0.045	0.0015	0.0157	48.9	31
0	0.012	0.0015	0.0607	48.9	31
-0.0008	-0.0248	0.0007	0.0442	49.2	31
-0.0015	-0.0233	0.003	0.0652	49.4	31
-0.003	-0.0105	0.0067	0.1342	49.3	31
-0.0046	-0.039	0.0067	0.039	49.6	31
-0.0053	-0.048	0.006	-0.0533	49.7	31
-0.0083	-0.0413	0.003	-0.0323	49.8	31
-0.0083	-0.0308	0.0045	-0.0308	50.1	31
-0.0038	-0.0195	0.0082	-0.0015	49.9	31
-0.0008	-0.0218	0.0082	0.0075	50.2	31
0	-0.0218	0.009	-0.0046	50.2	31
-0.0008	-0.0143	0.006	0.0067	50.3	31
0	-0.0113	0.0045	0.0015	50.5	31
0.0007	-0.0128	0.003	-0.0105	50.7	31
0.0015	-0.0068	0.0015	-0.0105	51	31
0.0015	-0.0068	0.0007	-0.0165	51	31
0	0.0007	-0.003	-0.0105	51	31
0.0015	0.009	-0.0015	-0.0225	51.3	31
0.0037	0.0157	0.0007	-0.0346	51.3	31
0.003	0.0187	-0.0023	-0.0405	51.2	31
0.003	0.0232	-0.0046	-0.0405	51.7	31
0.003	0.0292	-0.0046	-0.0181	51.5	31
0.003	0.0232	-0.0068	-0.0181	52	31
0.003	0.0277	-0.0075	0.0045	51.9	31
0.003	0.0285	-0.006	0.0307	52.2	31
0.003	0.024	-0.0068	0.003	52.2	31
0.0007	0.0292	-0.0046	-0.0023	52.3	31
-0.0015	0.027	-0.0046	0.0337	52.6	31
-0.0008	0.0187	-0.006	0.0292	52.6	31
-0.0008	0.015	-0.0015	0.0232	52.6	31
-0.0015	0.0217	0.0022	0.039	52.8	31
0	0.0165	0.0082	0.0202	52.9	31
-0.0008	0.0007	0.0105	0.0052	53.1	31
-0.003	-0.0083	0.0112	0.0195	53.3	31
-0.0038	-0.021	0.0097	0.0322	53.3	31
-0.003	-0.0361	0.0052	0.03	53.5	31
-0.0038	-0.042	0.0052	0.0172	53.8	31
-0.0015	-0.0428	0.0045	-0.0015	53.6	31
-0.0015	-0.048	0.0045	-0.0091	54	31
-0.0015	-0.0533	0.0015	-0.0195	53.8	31
0	-0.0518	-0.0046	-0.0308	54.4	31
0.0007	-0.048	-0.0083	-0.0353	54.2	31
-0.0008	-0.0346	-0.0091	-0.0383	54.4	31
0.0007	-0.0091	-0.0075	-0.0375	54.6	31
0.0052	0.0165	-0.0083	-0.0443	54.6	31
0.0067	0.0375	-0.0075	-0.0488	54.9	31
0.0097	0.0592	-0.0038	-0.057	54.8	31
0.0127	0.0742	0	-0.0473	55.1	31
0.0097	0.0577	-0.0015	0.0157	55.3	31
0.0007	0.0127	-0.0068	0.078	55.3	31
-0.0068	-0.0188	-0.0083	0.0232	55.3	31
-0.006	-0.0195	-0.0068	0.0075	55.9	31
-0.0075	-0.0083	-0.003	0.0757	55.8	31
-0.0068	0.0022	0.0007	0.0502	56.1	31
-0.0046	0.0127	0.0045	0.048	56	31
-0.0068	0.0292	0.0082	0.0727	56.2	31
-0.006	0.0217	0.0105	0.066	56.3	31
-0.006	-0.0023	0.0082	0.0382	56.3	31
-0.0068	-0.0181	0.0082	0.0067	56.8	31
-0.006	-0.0293	0.0112	0.0082	56.5	31
-0.0053	-0.0293	0.0067	-0.0075	56.9	31
-0.0023	-0.0458	0.0037	-0.012	56.7	31
-0.0015	-0.0518	-0.0015	-0.021	57.1	31
-0.0008	-0.0368	-0.0046	-0.045	57.1	31
0.0015	-0.0308	-0.0053	-0.0585	57.3	31
0.003	0.0022	-0.0083	-0.0525	57.6	31
0.003	0.0247	-0.0046	-0.0225	57.8	31
0.0045	0.0307	-0.006	-0.012	58	31
0.0045	0.0277	-0.0083	-0.012	57.6	31
0.003	0.0262	-0.0068	-0.0038	58.3	31
0.003	0.0225	-0.0068	-0.0008	58	31
0.0022	0.0105	-0.0068	-0.0428	58.4	31
0.0045	0.0157	-0.0053	-0.054	58.2	31
0.0045	0.0195	-0.0053	0.0082	58.6	31
0.003	0.0315	-0.0023	0.0255	58.8	31
0.0022	0.0255	0.0007	0.015	58.7	31
0	-0.0008	-0.0008	0.0465	59.1	31
-0.003	-0.0113	0.003	0.078	58.9	31
-0.0015	-0.024	0.009	0.051	59.5	31
0.0015	-0.0068	0.0082	0.03	59.3	31
0.0015	0.024	0.0112	0.051	59.5	31
-0.0023	0.0067	0.0112	0.0465	59.6	31
-0.0046	0.009	0.012	0.0217	59.8	31
-0.0046	0.003	0.0127	0.0127	59.7	31
-0.006	-0.0368	0.0082	-0.021	60	31
-0.0068	-0.0375	0.0052	-0.0368	60	31
-0.0053	-0.0278	0.0015	-0.0181	60.3	31
-0.0015	-0.0293	-0.0008	-0.0233	60.5	31
0.0007	-0.0173	-0.0008	-0.0263	60.3	31
-0.0015	-0.0068	-0.0038	-0.0181	60.9	31
0.0007	0.0007	-0.0008	-0.0091	60.5	31
0.0037	-0.0046	0.0007	-0.03	61.1	31
0.0052	-0.0008	-0.0008	-0.0398	60.7	31
0.006	0.0165	-0.0023	-0.027	61.1	31
0.0045	0.0127	-0.003	-0.0023	61.4	31
0.0045	0.0142	-0.0046	0.0405	61.4	31
0.0022	0.0142	-0.0068	0.039	61.5	31
0.0015	0.0082	-0.0075	0.033	61.6	31
0.003	0.0187	-0.0098	0.0045	61.7	31
0.0022	0.0127	-0.0105	-0.0173	61.9	31
0.0015	0.0067	-0.0083	-0.0128	62.2	31
0.0052	0.0135	-0.0053	-0.0181	62.1	31
0.0045	0.0045	-0.003	-0.0143	62.5	31
0.0015	0.003	0.003	0.0045	62.3	31
0.0015	-0.0068	0.0082	0.0135	62.6	31
-0.0008	-0.0195	0.0082	0.0067	62.7	31
-0.003	-0.0263	0.0037	0.0007	62.8	31
-0.0046	-0.0308	-0.0015	-0.0143	63.2	31
-0.0046	-0.0195	-0.0015	0.0075	62.9	31
-0.0046	-0.0083	-0.0015	0.0067	63.4	31
-0.0023	0.0015	-0.0015	-0.0105	63.2	31
-0.0008	0.003	0.0015	0.0015	63.4	31
0.0007	0.003	0.0052	0.0105	63.6	31
0.003	0.0052	0.0082	-0.0165	63.7	31
0.0015	0.0075	0.009	-0.0706	63.5	31
0.0045	0.0112	0.0022	-0.0728	64.2	31
0.0015	0.015	-0.006	-0.0488	63.9	31
0.0015	0.018	-0.0098	-0.012	64.3	31
0.0007	0.0015	-0.0105	0.039	64.3	31
-0.0008	0.0067	-0.0075	0.0667	64.3	31
-0.0015	0.0105	-0.0053	0.0772	64.6	31
-0.0046	-0.021	-0.0068	0.048	64.6	31
-0.0053	-0.033	-0.0053	0.0232	64.9	31
-0.0053	-0.0128	-0.0015	-0.0008	64.8	31
-0.003	0.0067	0.006	0.0007	65	31
-0.0015	0.0022	0.0082	0.0067	65	31
-0.0015	0.0022	0.0045	-0.0158	65.1	31
-0.0015	-0.0023	0.0052	0.003	65.4	31
-0.003	-0.0023	0.0022	0.006	65.4	31
-0.0015	-0.0015	-0.0008	0.012	65.6	31
-0.0038	-0.0181	-0.0008	0.012	65.8	31
-0.003	-0.0143	0.0007	0.0157	66	31
0.0007	-0.006	0.003	0.0112	65.8	31
0.003	-0.003	0.0015	-0.0195	66.3	31
0.0037	-0.0105	-0.0008	-0.0278	65.9	31
0.0037	-0.0091	0.0015	-0.0293	66.6	31
0.0052	-0.0083	0.0052	-0.0256	66.3	31
0.0067	0.0037	0.003	-0.027	66.8	31
0.0075	0.0277	0	-0.0083	66.7	31
0.009	0.039	-0.0008	0.0007	66.7	31
0.006	0.0405	-0.0008	0.0172	67.1	31
0.003	0.027	-0.0053	0.0495	66.9	31
0	0.03	-0.0068	0.0667	67.2	31
0.0007	0.0465	-0.0023	0.075	67.4	31
-0.003	0.0352	-0.0023	0.0142	67.5	31
-0.0091	0.0202	-0.0015	-0.0015	67.7	31
-0.012	0.0105	0.003	0.0442	67.8	31
-0.012	0.015	0.0052	0.0187	67.7	31
-0.0091	0.0217	0.0097	0.0367	67.9	31
-0.0105	-0.003	0.0105	0.0855	68.2	31
-0.0098	-0.0113	0.0082	0.0517	68	31
-0.0053	-0.0353	0.009	-0.0105	68.4	31
-0.0046	-0.0495	0.0067	-0.0413	68	31
-0.0015	-0.0503	0.0067	-0.0293	68.8	31
0	-0.078	0.0052	-0.048	68.5	31
0.0007	-0.0721	0.003	-0.0548	68.8	31
0.0015	-0.0728	0.0045	-0.039	68.8	31
0.0015	-0.075	0	-0.0533	69	31
0.003	-0.0728	-0.0046	-0.057	69.3	31
0.0045	-0.063	-0.0105	-0.0593	69.3	31
0.003	-0.039	-0.0165	-0.0533	69.2	31
0.0045	-0.0188	-0.0143	-0.0368	69.5	31
0.0082	0.0007	-0.0098	-0.0181	69.9	31
0.0105	0.0127	-0.006	-0.0068	69.5	31
0.0097	0.0247	-0.0038	-0.0068	70	31
0.009	0.033	-0.0015	-0.0038	69.9	31
0.0082	0.0442	-0.0008	-0.0135	70	31
0.0082	0.0517	-0.003	-0.033	70.1	31
0.0067	0.06	-0.003	-0.012	70.1	31
0.0037	0.0517	-0.0015	0.0367	70.6	31
0.0007	0.0082	-0.0023	0.0382	70.3	31
-0.0008	0.0045	-0.0008	0.012	70.9	31
0.0007	0.03	0.0015	0.0232	70.6	31
-0.0015	0.0285	0.0007	0.0435	71.1	31
-0.003	0.0315	0.0015	0.042	71.1	31
-0.0015	0.0255	0.0037	0.051	71.2	31
-0.0046	0.0142	0.0052	0.0555	71.4	31
-0.0053	0.0097	0.0067	0.0382	71.4	31
-0.0053	0.0045	0.0067	0.024	71.6	31
-0.0053	-0.0015	0.0067	0.0187	71.5	31
-0.0046	-0.015	0.0052	0.012	72.1	31
-0.0015	-0.0188	0.0052	-0.0008	71.8	31
-0.0008	-0.0278	0.0022	-0.0128	72.3	31
0.0007	-0.027	-0.0023	-0.0256	71.9	31
0.0037	-0.0165	-0.0053	-0.0383	72.4	31
0.006	-0.0008	-0.012	-0.0405	72.3	31
0.009	0.0232	-0.0128	-0.0158	72.5	31
0.0097	0.024	-0.0091	0.0195	72.8	31
0.009	0.012	-0.0083	0.0195	72.6	31
0.006	-0.0038	-0.0068	-0.0038	73.3	31
0.0007	0.0082	-0.0068	0.0202	73.2	31
-0.003	0.0427	-0.0046	0.048	73.3	31
-0.006	0.0322	-0.0023	0.0195	73.3	31
-0.0068	0.024	0.0007	0.006	73.4	31
-0.0046	0.039	0.006	0.042	73.5	31
-0.003	0.021	0.0105	0.045	73.7	31
-0.006	0.0157	0.0135	0.0345	73.9	31
-0.0091	-0.0128	0.0142	0.033	74	31
-0.0091	-0.0361	0.018	0.0105	74.3	31
-0.0053	-0.0533	0.0165	0.009	74.1	31
-0.0053	-0.0833	0.003	-0.0218	74.4	31
-0.0046	-0.0743	-0.0091	-0.0653	74.3	31
-0.003	-0.0585	-0.0135	-0.042	74.7	31
-0.003	-0.0315	-0.0143	-0.015	74.7	31
-0.0015	-0.0128	-0.0113	-0.0158	74.8	31
0.0007	0.0007	-0.0068	-0.033	75	31
0.0022	0.0082	-0.0046	-0.042	75	31
-0.0008	0.012	-0.0053	-0.0181	75.2	31
-0.003	0.0202	-0.0083	-0.012	75.4	31
-0.003	0.0157	-0.0113	-0.0263	75.5	31
-0.0046	0.0142	-0.0143	-0.0405	75.4	31
-0.0023	0.021	-0.0143	-0.0593	75.7	31
0.003	0.024	-0.0135	-0.0346	75.6	31
0.0037	0.0195	-0.0143	-0.0181	76	31
0.0015	0.0255	-0.0113	0.0232	76.1	31
-0.0008	0.024	-0.0068	0.0667	76.2	31
-0.0015	0.018	-0.0008	0.0315	76.5	31
-0.0008	0.021	0.0082	0.0307	76.3	31
-0.0015	0.0172	0.0142	0.0555	76.8	31
0	0.0075	0.0232	0.0622	76.5	31
0.0022	-0.0068	0.0292	0.0675	76.9	31
0.0015	-0.0285	0.027	0.0645	76.7	31
0.0022	-0.0428	0.0277	0.033	77	31
0.003	-0.0473	0.024	-0.0046	77.1	31
0.0045	-0.0383	0.0165	-0.0218	77.3	31
0.0045	-0.0278	0.0105	-0.0233	77.3	31
0.0037	-0.0285	0.003	-0.0181	77.6	31
0.0052	-0.0068	-0.0023	-0.0256	77.4	31
0.006	0.0045	-0.003	-0.0203	77.6	31
0.0067	0.009	-0.0038	-0.0323	77.9	31
0.0067	0.0112	-0.0046	-0.0346	77.9	31
0.0052	-0.0023	-0.0053	-0.0346	78	31
0.0067	0.0105	-0.0038	-0.039	78	31
0.0045	0.0142	-0.0046	0.0022	78.3	31
0.0037	0.0232	-0.003	0.0037	78.3	31
0.0045	0.027	-0.0038	-0.0165	78.3	31
0.0022	0.0165	-0.0068	-0.0128	78.7	31
-0.0038	0.0015	-0.0083	-0.0046	78.5	31
-0.0068	-0.0083	-0.0098	-0.0091	78.7	31
-0.0046	0.0097	-0.0046	-0.0046	78.9	31
-0.0046	0.0082	-0.0023	0.0142	79.1	31
-0.0053	0.012	0	0.009	79	31
-0.0046	0.0165	0.0015	0.027	79.4	31
-0.0015	0.0022	0.003	0.03	79	31
-0.0008	-0.0068	0.0082	0.042	79.6	31
-0.0015	-0.0046	0.009	0.0465	79.3	31
-0.003	-0.0233	0.003	0.045	79.7	31
-0.0083	-0.0413	-0.0015	0.0337	79.6	31
-0.0068	-0.0203	-0.0008	-0.0015	79.9	31
-0.0038	-0.012	-0.0015	0.009	80.1	31
-0.003	-0.003	-0.003	0.003	79.9	31
0	0.003	-0.0046	0.0052	80.2	31
0	0.003	-0.0053	0.0075	80	31
0.0022	0.0202	-0.006	-0.0128	80.5	31
0.006	0.0285	-0.012	-0.0495	80.4	31
0.009	0.0382	-0.0158	-0.0698	80.3	31
0.012	0.0382	-0.0173	-0.0293	80.5	31
0.0105	0.0195	-0.0158	-0.012	80.8	31
0.0082	0.0142	-0.0091	-0.021	80.6	31
0.0067	0.0045	-0.0046	-0.0023	81	31
0.0052	-0.0091	0.0015	0.0285	81	31
0.0037	-0.0218	0.0075	0.0465	81	31
0.0007	-0.0308	0.012	0.0532	81.4	31
-0.0008	-0.0308	0.0202	0.0345	81	31
-0.0008	-0.03	0.0202	0.0172	81.6	31
-0.0038	-0.0323	0.0172	0.0082	81.1	31
-0.0046	-0.0465	0.0195	0.003	81.8	31
-0.0015	-0.0488	0.0172	0.0165	81.5	31
-0.0015	-0.045	0.0105	-0.0023	81.8	31
-0.003	-0.0293	0.0045	-0.0225	81.8	31
-0.003	-0.0075	0.0022	-0.0158	81.7	31
-0.0046	-0.0015	0.003	-0.0195	82.1	31
-0.003	0.0097	0.0015	-0.0128	82.1	31
-0.0008	0.0127	0.0007	0.0082	82.2	31
0.0007	0.0165	-0.0023	0.024	82	31
0.0015	0.024	-0.0046	0.0082	82.7	31
0.0007	0.024	-0.0098	-0.0143	82.2	31
0.0007	0.0255	-0.0165	-0.0181	82.7	31
0.0045	0.0277	-0.0158	-0.0233	82.7	31
0.003	0.033	-0.0135	-0.039	82.8	31
0.0007	0.021	-0.0135	-0.0743	82.9	31
-0.0008	0.0082	-0.0158	-0.0263	82.8	31
-0.003	0.009	-0.0143	0.021	83.1	31
-0.0023	0.0082	-0.0075	0.03	82.9	31
-0.003	0.009	-0.0023	0.0255	83.4	31
-0.0008	0.021	0.0015	0	83.2	31
-0.0008	0.027	0.009	0.0187	83.4	31
0	0.0217	0.0165	0.0082	83.6	31
-0.0015	0.0097	0.018	0.0195	83.6	31
-0.0023	-0.0135	0.0165	0.0277	83.7	31
-0.0015	-0.027	0.009	0.003	83.7	31
-0.0015	-0.0173	0.003	0.0015	84	31
-0.0023	-0.0105	-0.0008	0.0105	83.8	31
-0.0023	-0.0135	-0.0008	0.039	84.4	31
-0.0038	-0.0218	0	0.042	83.9	31
-0.006	-0.0173	-0.003	0	84.5	31
-0.0068	-0.0038	-0.0068	-0.0083	84.2	31
-0.0023	0.0007	-0.012	0.0007	84.5	31
0.0007	-0.0023	-0.0165	-0.0203	84.6	31
0.003	0.0007	-0.0188	-0.0346	84.6	31
0.003	0.009	-0.0173	-0.03	84.9	31
0.0015	0.006	-0.0195	-0.0091	84.5	31
0.0015	-0.0075	-0.0181	0.0015	84.8	31
-0.0008	-0.0091	-0.0105	-0.0195	84.9	31
-0.0008	-0.0015	-0.0023	-0.0368	85.1	31
0	0.0052	0.0067	-0.012	85	31
-0.0015	0.0157	0.015	0.0165	85.3	31
-0.003	0.0135	0.0232	0.015	85.2	31
-0.0046	0.0007	0.0232	0.0127	85.5	31
-0.0046	-0.0143	0.0172	0.0052	85.5	31
-0.003	-0.03	0.0105	0.0142	85.4	31
-0.0023	-0.0315	0.003	0.012	85.9	31
0.0015	-0.0113	0.0037	0.0157	85.5	31
0.0015	0.0045	0.0045	0.0487	86.2	31
0.0015	0.0015	0.003	0.048	85.6	31
0.0052	0.012	-0.0015	0.0307	86.1	31
0.0045	0.0112	-0.0046	0.0217	86	31
0.0015	-0.0128	-0.0046	0.0195	86.3	31
0	-0.0165	-0.0046	0.0015	86.3	31
-0.0008	-0.0128	-0.0091	-0.03	86.1	31
0.0007	-0.003	-0.0158	-0.0346	86.3	31
0.0045	0.012	-0.021	-0.0338	86.5	31
0.0075	0.0127	-0.0263	-0.0248	86.6	31
0.006	0.036	-0.027	-0.0323	86.5	31
0.0052	0.0592	-0.0256	-0.0405	86.8	31
0.0037	0.0577	-0.021	-0.0008	86.6	31
-0.0008	0.048	-0.0105	0.0367	87.1	31
-0.0023	0.0292	0.003	0.0465	86.9	31
-0.0008	0.0165	0.024	0.03	87	31
-0.0008	0.0037	0.0405	0.0585	87.1	31
-0.0023	0.0015	0.045	0.0862	86.8	31
-0.0023	-0.0218	0.048	0.0622	87.3	31
-0.0015	-0.0713	0.0427	0.021	87	31
-0.003	-0.1118	0.0255	-0.0315	87.3	31
-0.0068	-0.1313	0.0052	-0.0593	87.3	31
-0.0075	-0.1065	-0.0053	-0.0968	87.3	31
-0.0053	-0.0638	-0.0113	-0.0803	87.3	31
0	-0.033	-0.0105	-0.0338	87.5	31
0.003	-0.0158	-0.0075	-0.0578	87.2	31
0.003	0.0015	-0.0098	-0.027	87.8	31
0.0052	0.024	-0.0053	-0.006	87.5	31
0.0067	0.0352	-0.0046	-0.0285	87.8	31
0.0067	0.0345	-0.0068	0.0052	87.7	31
0.0045	0.0307	-0.0091	0.0127	87.9	31
0.003	0.0322	-0.0128	0.0127	88	31
0.0015	0.024	-0.012	0.0105	87.7	31
-0.0023	0.0202	-0.0105	0.0202	88.1	31
-0.003	0.0232	-0.0053	0.0277	88.1	31
-0.003	0.0217	0.0007	0.0255	88.4	31
-0.0046	0.0255	0.0052	0.0345	88.5	31
-0.003	0.024	0.009	0.0292	88.5	31
-0.0008	0.0232	0.012	0.0345	88.4	31
-0.0015	0.0202	0.0127	0.0307	88.6	31
-0.0015	0.0165	0.0067	0.0255	88.6	31
0.0007	0.012	0.0045	0.0172	88.6	31
0.0015	0.009	0.0022	0.006	88.9	31
0.0015	0.0105	-0.0008	-0.0053	88.6	31
0.003	0.0165	-0.0023	-0.0225	89.2	31
0.0037	0.0292	-0.0053	-0.0338	88.8	31
0.0045	0.0315	-0.0083	-0.0315	89.2	31
0.0052	0.0262	-0.0091	-0.0308	89	31
0.006	0.0352	-0.0128	-0.0578	89.1	31
0.0045	0.0277	-0.0165	-0.0256	89.3	31
0.0007	0.0097	-0.0128	0.0052	89.3	31
0.0007	0.018	-0.0053	0.027	89.6	31
-0.003	0.0037	0.0015	0.1012	89.4	31
-0.0038	-0.0135	0.0082	0.0862	89.7	31
-0.0023	-0.024	0.0105	0.0412	89.8	31
-0.0046	-0.0465	0.012	0.0112	89.6	31
-0.0083	-0.063	0.0045	-0.0046	89.5	31
-0.0158	-0.0683	-0.003	0.0037	90	31
-0.0128	-0.0525	0	-0.0473	89.6	31
-0.0083	-0.057	0.0045	-0.0548	90	31
-0.0083	-0.0503	0.0075	-0.0195	90	31
-0.003	-0.0361	0.0075	-0.0015	90.1	31
-0.003	-0.0353	0.0067	0.0232	90.2	31
-0.0046	-0.0143	0.0067	0.0105	89.7	31
-0.0038	0.0082	0.0052	-0.0128	90.3	31
-0.003	0.018	-0.0046	0.0067	89.9	31
-0.0015	-0.0046	-0.0128	0.018	90.4	31
0.0007	-0.0008	-0.0181	-0.027	90.2	31
0.0015	0.0165	-0.024	-0.0458	90.4	31
0.003	0.0097	-0.0278	-0.024	90.4	31
0.003	0.0195	-0.0256	-0.0015	90.6	31
0.0015	0.024	-0.0195	0.0277	90.5	31
0.0015	0.0427	-0.0091	0.0045	90.7	31
0.0022	0.0532	0	-0.003	90.8	31
0.0037	0.0442	0.009	0.0555	90.6	31
0.003	0.0472	0.0165	0.063	91	31
0.006	0.0465	0.027	0.0255	90.7	31
0.0052	0.018	0.0315	0.0202	91.1	31
0.0022	-0.0158	0.0285	0.0157	90.8	31
0.0022	-0.0398	0.0285	0.0022	90.9	31
0.0045	-0.063	0.0285	0.0015	90.9	31
0.0045	-0.0765	0.0217	-0.012	91	31
0.0015	-0.0713	0.015	-0.0256	91.4	31
0.0022	-0.0495	0.012	-0.0113	91	31
0.003	-0.024	0.009	-0.0091	91.3	31
0.003	-0.0075	0.0045	-0.0098	91.3	31
0.0052	0.0015	0.0022	-0.0015	91.5	31
0.0052	0.012	0.0015	-0.012	91.5	31
0.0052	0.021	-0.0023	-0.0128	91.6	31
0.006	0.0195	-0.0046	-0.0128	91.4	31
0.003	0.0187	-0.0046	-0.0165	91.6	31
0.0015	0.0225	-0.0053	-0.0091	91.7	31
0.0037	0.0232	-0.0083	0.006	91.7	31
0.0015	0.021	-0.0083	0.012	92	31
0	0.018	-0.0098	-0.0008	91.8	31
-0.0008	0.0135	-0.012	-0.0091	92	31
0	0.012	-0.0128	-0.0165	91.8	31
0.0015	0.009	-0.0143	-0.0353	92.2	31
0.0045	0.015	-0.0143	-0.054	91.8	31
0.0052	0.0262	-0.015	-0.0338	92.2	31
0.006	0.039	-0.0158	0.003	92.3	31
0.0082	0.0405	-0.0105	0.0172	92.3	31
0.0045	0.021	-0.0083	0.0202	92.2	31
-0.0015	0.0007	-0.0053	0.0135	92.4	31
-0.0083	-0.0158	-0.0008	0.0427	92.5	31
-0.0128	-0.0203	0.0052	0.033	92.5	31
-0.0128	-0.0158	0.0157	0.0195	92.6	31
-0.0091	-0.0188	0.0187	0.0187	92.5	31
-0.0053	-0.0315	0.0157	0.0015	92.6	31
-0.0038	-0.042	0.0097	0.0262	92.7	31
-0.003	-0.0338	0.0067	0.0067	92.8	31
0.0007	-0.0278	0.0007	0.0022	92.9	31
0	-0.024	-0.012	-0.0098	92.7	31
-0.0015	-0.0135	-0.0195	-0.033	93.1	31
-0.0008	-0.0053	-0.024	-0.027	92.8	31
-0.0015	0.0045	-0.027	-0.0091	93.3	31
0.0015	0.009	-0.0233	0.0045	92.9	31
0.0015	0.0262	-0.0128	0.0157	93	31
0.0015	0.0427	-0.0008	0.0517	93.2	31
0.003	0.0562	0.0127	0.0675	93.1	31
0.0045	0.0517	0.0255	0.0855	93	31
0.0052	0.009	0.033	0.0412	93.5	31
0.0045	-0.0368	0.0322	-0.012	93.3	31
0.003	-0.0728	0.024	-0.012	93.4	31
-0.0008	-0.0691	0.0165	-0.0143	93.4	31
-0.0008	-0.0383	0.009	-0.0256	93.4	31
-0.003	-0.0195	-0.0008	-0.0443	93.6	31
-0.0068	-0.0158	-0.006	-0.0683	93.6	31
-0.0083	-0.0143	-0.0143	-0.057	93.8	31
-0.0068	0.0127	-0.0188	-0.0361	93.7	31
-0.0008	0.03	-0.0256	-0.0233	93.6	31
0.0007	0.0255	-0.033	0.003	93.9	31
-0.0008	0.0255	-0.0368	-0.0023	93.7	31
-0.0008	0.0352	-0.0353	-0.0098	94	31
0.0007	0.033	-0.0248	0.0105	93.8	31
0.0015	0.0045	-0.012	0.0645	94	31
-0.0015	-0.0023	0.0052	0.0577	93.8	31
-0.0023	-0.0143	0.0195	0.048	94.3	31
-0.0038	-0.024	0.0255	0.0555	94	31
-0.003	0.006	0.0367	0.051	94.4	31
0	0.042	0.0517	0.0705	94.1	31
0.0015	0.0165	0.0532	0.0427	94.4	31
-0.0015	-0.0405	0.0427	0.024	94.2	31
-0.0053	-0.0533	0.0247	-0.0143	94.4	31
-0.003	-0.0623	0.012	-0.0525	94.4	31
0.0007	-0.0465	0.0082	-0.0511	94.4	31
0.0015	-0.0278	-0.0023	-0.0518	94.8	31
0.0015	-0.0158	-0.0083	-0.0533	94.4	31
0.0015	0.0075	-0.0091	-0.0548	94.7	31
0.0007	0.0165	-0.0105	-0.0278	94.7	31
0.0015	0.0187	-0.0091	-0.0285	94.7	31
0.0037	0.0067	-0.0091	-0.0091	94.6	31
0.0067	0.0142	-0.0105	0.024	95.1	31
0.0105	0.0277	-0.0143	-0.0008	94.6	31
0.0097	0.0262	-0.0181	-0.0218	95.1	31
0.0097	0.0217	-0.0225	-0.0346	94.8	31
0.0112	0.0262	-0.0248	-0.0263	95	31
0.0067	0.0292	-0.0256	-0.0428	95.1	31
0.0045	0.021	-0.021	-0.0495	94.9	31
-0.0008	0.009	-0.0113	-0.012	95.5	31
-0.0038	0.0037	-0.0008	0.0262	94.9	31
-0.0068	0.0075	0.0075	0.0465	95.6	31
-0.0075	0.018	0.015	0.0172	95.2	31
-0.0053	0.0195	0.0217	0.024	95.5	31
-0.0091	0.0052	0.0217	0.0352	95.5	31
-0.0091	-0.0075	0.0202	0.0277	95.5	31
-0.0075	-0.0195	0.0142	0.0277	95.4	31
-0.0068	-0.0158	0.0052	0.042	95.6	31
-0.0023	-0.0075	0	0.0517	95.7	31
0	0.0022	-0.0008	0.0277	95.6	31
0.0007	0.0172	0.0015	0.033	95.8	31
-0.0008	0.0187	-0.0015	0.0232	95.5	31
-0.0023	0.015	-0.0053	0.0292	96.1	31
-0.006	-0.0091	-0.0091	0.0337	95.7	31
-0.0053	-0.0203	-0.0083	-0.0143	95.8	31
-0.0015	-0.003	-0.0053	-0.0405	95.8	31
0.0022	0.0045	-0.0068	-0.015	95.9	31
0.006	0.0052	-0.012	-0.0046	96	31
0.006	0.0037	-0.015	-0.0308	95.9	31
0.0045	0.0007	-0.0158	-0.0368	96.3	31
0.003	0.003	-0.0181	-0.0353	96.1	31
-0.0008	-0.0046	-0.0113	-0.0046	96.3	31
-0.0038	-0.006	-0.0015	0.0157	96.3	31
-0.0038	-0.012	0.006	-0.0046	96.3	31
-0.0023	-0.0218	0.0142	-0.0346	96.3	31
-0.0008	-0.0181	0.018	-0.0315	96.4	31
-0.0053	-0.0293	0.0127	0.021	96.3	31
-0.0083	-0.027	0.012	0.0405	96.5	31
-0.003	-0.0195	0.012	0.0187	96.5	31
-0.0023	-0.0113	0.009	-0.021	96.5	31
-0.0023	0.0037	0.0045	-0.024	96.7	31
0.0045	0.009	-0.0068	0.0015	96.4	31
0.0105	0.0045	-0.0158	0.0292	97	31
0.0135	0.0045	-0.027	0.0337	96.5	31
0.0157	0.0277	-0.0398	0.0165	97.1	31
0.0157	0.0195	-0.0375	0.0322	96.7	31
0.0127	0.0067	-0.0233	0.0202	96.7	31
0.009	0.003	-0.003	0.048	96.8	31
0.0052	-0.0098	0.0195	0.0427	97	31
0.0022	-0.0015	0.0382	-0.0173	96.9	31
-0.0008	0.003	0.042	-0.0248	97.2	31
-0.0023	-0.027	0.033	-0.042	96.9	31
-0.003	-0.0533	0.0277	-0.0091	97.2	31
-0.0053	-0.024	0.0247	-0.0143	97	31
-0.0046	-0.0098	0.0202	-0.0203	97.1	31
-0.0053	-0.0195	0.0112	-0.0015	97.2	31
-0.0075	-0.0083	0.006	-0.012	97	31
-0.0075	-0.015	0.0037	-0.0105	97.3	31
-0.0083	-0.0143	0.0015	-0.0375	97.2	31
-0.0046	0.0015	-0.0008	-0.0135	97.3	31
-0.0015	0.003	-0.003	0.0045	97.5	31
0.0007	0.0097	0	0.0217	97.4	31
0.0052	0.0157	0.0007	0.0427	97.4	31
0.0082	0.0142	-0.0015	0.0157	97.5	31
0.0067	0.0045	-0.0053	0.0217	97.5	31
0.0045	0.0075	-0.0083	0.012	97.7	31
0.0052	0.0232	-0.012	-0.0233	97.7	31
0.0067	0.0382	-0.0203	-0.024	97.6	31
0.006	0.03	-0.0248	-0.0285	98	31
0.0037	0.0127	-0.0256	-0.0256	97.5	31
0.0022	0.003	-0.0233	-0.0128	97.9	31
0.0022	-0.006	-0.021	-0.0098	97.6	31
0.0007	0.0082	-0.0158	0.006	98	31
-0.003	0.0037	-0.0128	0.012	97.8	31
-0.0075	-0.0135	-0.0098	0.0322	98.1	31
-0.0128	-0.0008	0.0015	0.0577	98.1	31
-0.0158	0.0052	0.0127	0.0795	98	31
-0.0165	-0.0015	0.0262	0.057	98.3	31
-0.0158	-0.0038	0.036	0.0157	98.1	31
-0.0113	0.0015	0.0382	0.024	98.1	31
-0.0075	0.0217	0.042	0.0127	98.1	31
-0.0046	0.0165	0.0382	0.0225	98.4	31
-0.0008	-0.0203	0.0247	-0.012	98.1	31
-0.0008	-0.0533	0.009	-0.0503	98.4	31
0	-0.054	-0.0015	-0.0428	98.3	31
0.0022	-0.033	-0.003	-0.0503	98.4	31
0.0045	-0.0218	-0.0038	-0.021	98.5	31
0.0052	-0.003	-0.0046	-0.0128	98.2	31
0.006	0.0022	-0.0075	-0.0015	98.7	31
0.0075	0.009	-0.0105	0.0045	98.3	31
0.0067	0.0142	-0.012	0.0015	98.5	31
0.0045	0.0142	-0.012	0.003	98.4	31
0.0037	0.0127	-0.0091	-0.006	98.5	31
0.0015	0.009	-0.0075	-0.0053	98.6	31
-0.0015	0.0135	-0.0075	-0.0098	98.5	31
-0.0046	0.0142	-0.0098	0.0007	98.8	31
-0.0015	0.0067	-0.0113	-0.0008	98.7	31
0	-0.003	-0.0173	-0.0218	98.6	31
0.0007	-0.0046	-0.0225	-0.0495	98.5	31
0.0022	0.0045	-0.0256	-0.0503	99	31
0.0052	0.024	-0.0248	-0.0293	98.5	31
0.009	0.0292	-0.0165	-0.0068	99	31
0.0067	0.021	-0.0135	-0.003	98.6	31
0.0052	0.0127	-0.0105	-0.024	99	31
0.003	-0.0008	0	0.0045	98.8	31
-0.0015	0.0112	0.0082	0.0502	99	31
-0.0053	0.0172	0.0157	0.072	99.1	31
-0.0083	-0.0008	0.0225	0.0817	98.9	31
-0.0068	0.0075	0.027	0.0532	99.2	31
-0.003	0.0367	0.0277	0.042	98.9	31
-0.0023	0.0465	0.0277	0.0742	99.1	31
-0.003	-0.0023	0.0262	0.0457	99	31
-0.0015	-0.078	0.0202	-0.0075	99.1	31
-0.0008	-0.1103	0.0067	-0.0293	99.1	31
0	-0.1043	-0.0143	-0.0398	99.2	31
0.0022	-0.0788	-0.0256	-0.027	99.2	31
0.0075	-0.048	-0.0308	-0.0091	99.1	31
0.006	-0.0278	-0.0346	0	99.4	31
0.003	-0.0203	-0.03	-0.0158	99	31
0.0007	-0.012	-0.0181	-0.021	99.4	31
0.0007	0.0045	-0.003	-0.0091	99	31
0.0007	0.0187	0.0097	-0.0091	99.6	31
0.0015	0.0345	0.0217	-0.0015	99.2	31
0.003	0.0307	0.0255	0.003	99.4	31
0.0015	0.0277	0.0232	-0.003	99.4	31
0.0045	0.0382	0.0157	-0.0413	99.3	31
0.0067	0.042	0.009	-0.0706	99.5	31
0.0067	0.0397	0.0045	-0.0533	99.4	31
0.0015	0.0232	-0.003	0.006	99.6	31
-0.003	0.012	-0.0046	0.0315	99.6	31
-0.0053	0.0127	-0.0053	0.0015	99.5	31
-0.0083	0.0105	-0.0068	0.051	99.4	31
-0.0128	0.0105	-0.0053	0.0457	99.8	31
-0.0128	0.03	-0.0015	-0.0008	99.5	31
-0.0128	0.0292	0.0052	0.0652	99.7	31
-0.0083	0.0142	0.012	0.0952	99.6	31
-0.003	-0.0023	0.0142	0.0855	99.7	31
-0.003	-0.0143	0.0105	0.036	99.8	31
-0.0023	-0.0278	-0.003	-0.006	99.5	31
-0.003	-0.048	-0.015	-0.0278	99.9	31
-0.0008	-0.0346	-0.0173	-0.0443	99.6	31
0.0007	-0.003	-0.0165	-0.0128	99.9	31
-0.0008	0.0172	-0.0046	-0.0008	99.8	31
0.0007	0.021	0.0067	0.0007	99.8	31
0.0007	0.0045	0.012	-0.0105	99.8	31
0.0015	-0.0143	0.012	-0.0195	100	31
0.003	-0.0278	0.0105	-0.0165	99.7	31
0.006	-0.0458	0.012	-0.0218	100.2	31
0.0082	-0.0473	0.006	-0.0405	99.8	31
0.0082	-0.0263	0.0015	-0.0555	99.8	31
0.0075	-0.0015	0.0007	-0.054	100	31
0.0067	0.0135	-0.0053	-0.042	99.8	31
0.003	0.012	-0.0091	-0.0091	100.2	31
-0.0008	0.0022	-0.0158	-0.0083	99.8	31
0.0007	0.0052	-0.0173	-0.0405	100.1	31
0	0.0405	-0.012	-0.0473	100.1	31
0	0.069	-0.0083	-0.0278	99.9	31
-0.0008	0.063	-0.0046	0.036	100.3	31
-0.0023	0.0307	-0.0053	0.0532	100.1	31
-0.0008	0.0202	-0.0083	0.048	100.2	31
0.0022	0.0142	-0.0098	0.0952	100.2	31
0.003	0.0217	-0.0165	0.0862	100.1	31
0.0015	0.039	-0.0158	0.0795	100.2	31
-0.003	0.0052	-0.0046	0.0442	100.3	31
-0.0053	-0.0346	0.0045	-0.0083	99.8	31
-0.0068	-0.0735	0.0105	0.0307	100.5	31
-0.0068	-0.0653	0.018	0.024	100	31
-0.0038	-0.0256	0.0307	-0.0068	100.3	31
-0.0015	-0.0068	0.036	0.0165	100.2	31
0	-0.0308	0.033	-0.0105	100.4	31
0.0007	-0.0743	0.027	-0.0248	100.3	31
-0.0008	-0.057	0.0195	-0.0285	100.2	31
0.0007	-0.0465	0.0135	-0.0383	100.4	31
0.0052	-0.0353	0.003	-0.0308	100.3	31
0.012	-0.0181	-0.0068	-0.0308	100.3	31
0.0142	0	-0.024	-0.0046	100.3	31
0.0142	0.0195	-0.0398	-0.0015	100.3	31
0.0135	0.024	-0.048	-0.003	100.1	31
0.0067	0.0315	-0.0503	-0.0218	100.4	31
0	0.0262	-0.0361	-0.0488	100.2	31
-0.0046	0.0195	-0.0128	-0.033	100.3	31
-0.0091	0.024	0.009	0.0202	100.4	31
-0.0083	0.0427	0.024	0.0277	100.3	31
-0.0091	0.0315	0.0352	0.0142	100.6	31
-0.0083	0.009	0.0412	0.0202	100.3	31
-0.0068	0.0052	0.0375	0.0022	100.6	31
-0.0046	0.015	0.0337	0.0382	100.2	31
-0.0023	0.0232	0.0277	0.048	100.6	31
-0.0015	-0.0015	0.0217	0.0277	100.3	31
0.0007	-0.0256	0.0082	0.0007	100.3	31
0	-0.0338	-0.0046	-0.03	100.4	31
-0.0015	-0.024	-0.0083	-0.024	100.4	31
-0.0015	-0.0091	-0.0068	-0.0165	100.4	31
0.0007	0.0082	-0.0023	-0.0046	100.4	31
0.0037	0.0142	-0.0046	-0.0143	100.5	31
0.0052	0.0082	-0.012	-0.0248	100.2	31
0.003	0.003	-0.0173	-0.03	100.7	31
0.0015	-0.0023	-0.0203	-0.033	100.2	31
-0.0008	-0.003	-0.0225	-0.0293	100.6	31
-0.0046	-0.0105	-0.024	-0.0068	100.4	31
-0.0068	-0.006	-0.0256	0.012	100.5	31
-0.0068	0.0082	-0.0233	0.0165	100.5	31
-0.0046	0.0247	-0.0195	0.0495	100.4	31
-0.003	0.039	-0.0091	0.0795	100.7	31
-0.0008	0.0315	0.0007	0.0757	100.3	31
0.0015	0.0262	0.0045	0.063	100.7	31
0.0045	0.0292	0.012	0.0457	100.5	31
0.006	0.0232	0.0247	0.0285	100.4	31
0.0067	0.0142	0.024	0.0037	100.4	31
0.0075	-0.0098	0.0142	-0.0315	100.6	31
0.0067	-0.0361	0.006	-0.0518	100.5	31
0.0045	-0.0511	0.0007	-0.063	100.3	31
0.0045	-0.063	-0.0023	-0.0256	100.8	31
0.0052	-0.0465	-0.0015	0.0262	100.4	31
0.0037	-0.0315	0.0007	0.0067	100.5	31
0.0037	-0.0256	-0.0053	-0.0346	100.3	31
0.0007	-0.0128	-0.0165	-0.0653	100.6	31
-0.0015	-0.0143	-0.0248	-0.0765	100.4	31
-0.0015	-0.0105	-0.0278	-0.0368	100.7	31
-0.0038	0.003	-0.0293	0.0075	100.3	31
-0.003	0.0127	-0.0233	0.0157	100.5	31
-0.0053	0.0262	-0.0091	0.042	100.6	31
-0.006	0.0277	0.0082	0.0457	100.5	31
-0.0046	0.0232	0.0255	0.0217	100.6	31
-0.006	0.012	0.0382	0.0645	100.5	31
-0.0083	-0.0008	0.048	0.054	100.4	31
-0.0053	-0.003	0.0472	0.0045	100.4	31
-0.003	-0.0023	0.0397	0.0157	100.5	31
-0.0015	-0.003	0.0292	-0.0068	100.3	31
-0.0008	-0.0023	0.0157	0.009	100.5	31
-0.0023	0.0052	0.0075	0.0382	100.3	31
-0.0015	0.0097	0.003	0.0127	100.4	31
0.0022	0.0247	0	-0.0053	100.5	31
0.0082	0.042	-0.003	0.003	100.3	31
0.0105	0.0315	-0.0135	-0.0135	100.5	31
0.0082	-0.0113	-0.027	-0.0555	100.1	31
0.012	-0.0315	-0.039	-0.0465	100.6	31
0.012	-0.03	-0.0488	-0.0653	100.3	31
0.0045	-0.0165	-0.0533	-0.1103	100.4	31
-0.0008	-0.0008	-0.0533	-0.0795	100.4	31
-0.006	0.0022	-0.0465	-0.0075	100.5	31
-0.012	0.0292	-0.0278	0.0435	100.3	31
-0.012	0.0465	-0.0046	0.0667	100.7	31
-0.012	0.0322	0.0105	0.0697	100.3	31
-0.012	0.003	0.027	0.0652	100.5	31
-0.0068	-0.0256	0.0457	0.0502	100.5	31
-0.0023	-0.0165	0.0517	0.072	100.4	31
0.0007	-0.0046	0.0525	0.0922	100.7	31
0.006	-0.0413	0.0517	0.0112	100.3	31
0.0105	-0.0465	0.0397	-0.057	100.6	31
0.0082	-0.0256	0.0142	-0.0803	100.3	31
0.0067	-0.024	0.0037	-0.042	100.3	31
0.0082	-0.0248	-0.003	0.012	100.5	31
0.0082	-0.0165	-0.0218	-0.021	100.3	31
0.0105	0.0105	-0.027	-0.033	100.4	31
0.009	0.0202	-0.0308	-0.0405	100.5	31
0.0045	-0.0083	-0.0293	-0.0195	100.3	31
-0.0008	-0.0525	-0.0195	0.021	100.4	31
-0.006	-0.0346	-0.0068	0.009	100.6	31
-0.0046	0.009	0.012	0.0345	100.3	31
-0.0046	0.0292	0.027	0.0195	100.6	31
-0.0068	0.0262	0.0345	0.0142	100.3	31
-0.0091	0.009	0.0352	0.0352	100.8	31
-0.0098	0.0052	0.033	0.0142	100.3	31
-0.0105	-0.0075	0.0195	0.0405	100.7	31
-0.0105	-0.0046	0.0052	-0.0105	100.3	31
-0.0068	0.0105	-0.0015	-0.0518	100.4	31
-0.003	0.0157	-0.0083	-0.033	100.5	31
-0.0008	0.0052	-0.0143	-0.0248	100.4	31
-0.0008	0.0022	-0.0203	0.0075	100.5	31
-0.0008	-0.0008	-0.021	-0.015	100.5	31
0.003	0.0007	-0.0218	-0.0225	100.5	31
0.0082	0.0105	-0.024	-0.0075	100.7	31
0.0097	0.0067	-0.0256	0.0015	100.8	31
0.009	0.0217	-0.024	0.0037	100.2	31
0.0075	0.0427	-0.0188	-0.0165	100.7	31
0.0052	0.0465	-0.0158	0.0067	100.4	31
0.0045	0.0277	-0.0158	0.0322	100.7	31
-0.0015	0.0127	-0.0143	0.033	100.7	31
-0.0083	0.0105	-0.0091	0.0217	100.4	31
-0.0105	0.0127	-0.006	0.0142	100.7	31
-0.0091	0.0142	0	0.039	100.4	31
-0.0053	0.0007	0.0105	0.0292	100.9	31
-0.0015	-0.0165	0.0112	0.0082	100.3	31
0	-0.0383	0.003	-0.0008	100.7	31
0.0015	-0.0315	0.003	-0.0091	100.5	31
0.003	-0.0165	0.0082	0	100.5	31
0.0015	-0.0135	0.0067	-0.0053	100.6	31
0.0007	0.0022	0.0052	-0.0256	100.4	31
0.0022	0.003	0.009	-0.0465	100.4	31
0.0015	0.0007	0.0127	-0.0405	100.6	31
-0.0015	-0.0068	0.0142	-0.0105	100.7	31
-0.003	-0.0113	0.0127	0.009	100.7	31
-0.0046	0.0045	0.0142	0.0067	100.8	31
-0.0023	0.009	0.0127	0.0232	100.3	31
-0.003	0.0082	0.006	0.024	100.7	31
-0.0008	-0.0046	-0.0068	0.0037	100.4	31
0.0037	-0.0158	-0.0188	-0.0046	100.8	31
0.0052	-0.0158	-0.0256	-0.0233	100.4	31
0.0052	-0.0098	-0.0346	-0.0143	100.7	31
0.0045	0.0007	-0.039	-0.0068	100.5	31
0.0045	0.0067	-0.0346	0.009	100.6	31
0.0052	0.0165	-0.0181	0.0277	100.6	31
0.0052	0.0285	0.0067	0.0322	100.6	31
0.0022	0.0345	0.03	0.0502	100.6	31
0.003	0.024	0.042	0.0315	100.6	31
0.0037	0	0.042	0.006	100.6	31
0.0045	-0.0256	0.0337	-0.0143	100.5	31
0.003	-0.045	0.0157	-0.0346	100.8	31
-0.0038	-0.0315	-0.0008	-0.0181	100.4	31
-0.0053	-0.0158	-0.0015	0.0045	100.6	31
-0.0068	-0.0128	0.003	0.0187	100.6	31
-0.0046	-0.003	0.0075	0.0367	100.6	31
-0.003	0.0232	0.0142	0.0502	100.8	31
-0.0068	0.0465	0.0202	0.039	100.4	31
-0.0091	0.0217	0.021	-0.0015	100.9	31
-0.0105	-0.0285	0.0052	-0.0218	100.4	31
-0.0068	-0.0458	-0.0083	-0.0225	100.6	31
0.003	-0.0368	-0.0158	-0.057	100.5	31
0.009	-0.0233	-0.024	-0.093	100.5	31
0.0157	0.003	-0.0293	-0.0608	100.4	31
0.012	0.0217	-0.0323	-0.0098	100.8	31
0.003	0.0045	-0.0256	0.0135	100.3	31
0.0015	-0.0353	-0.0143	0.0202	100.8	31
-0.0023	-0.0533	-0.0038	0.0285	100.3	31
-0.0038	-0.0525	0.009	0.0337	100.7	31
-0.003	-0.0308	0.0202	0.0225	100.6	31
-0.0023	0.0067	0.0247	0.042	100.5	31
-0.0053	0.006	0.0195	0.0412	100.7	31
-0.0075	0.0112	0.0142	0.042	100.4	31
-0.0046	0.0382	0.0127	0.0247	100.6	31
-0.0015	0.0525	0.0202	0.0165	100.6	31
0	0.0457	0.024	0.0255	100.5	31
-0.0015	0.0142	0.0255	-0.0038	100.6	31
-0.003	-0.021	0.024	-0.0195	100.7	31
-0.0015	-0.0256	0.0165	-0.0511	100.4	31
0.0007	-0.024	0.0045	-0.0555	100.7	31
0.0022	-0.0165	-0.0075	-0.0473	100.4	31
0.0015	-0.0083	-0.0128	-0.0458	100.4	31
0.003	-0.0098	-0.0181	-0.0368	100.6	31
0.0067	0.0127	-0.0181	-0.0075	100.4	31
0.0082	0.0292	-0.0143	0.0045	100.9	31
0.0075	0.0382	-0.0105	0.0052	100.3	31
0.0052	0.0375	-0.0105	0.0127	100.9	31
0.0015	0.0217	-0.012	0.0217	100.4	31
-0.0008	0.0157	-0.0128	0.042	100.7	31
-0.0038	0.0007	-0.0143	0.0255	100.6	31
-0.0068	-0.012	-0.0181	0.033	100.7	31
-0.0053	-0.0218	-0.0218	0.0375	100.7	31
-0.003	-0.0278	-0.0218	0.027	100.6	31
-0.003	-0.0068	-0.012	0.0247	100.7	31
-0.0015	0.018	-0.0015	0.0277	100.7	31
-0.0008	0.0457	0.012	0.0345	100.5	31
0.0015	0.0532	0.024	0.0255	100.3	31
0.0015	0.0195	0.024	0.0217	100.8	31
0.0015	-0.024	0.0165	-0.021	100.4	31
0.0007	-0.0593	0.0007	-0.0743	100.8	31
-0.0015	-0.066	-0.0105	-0.0863	100.6	31
0	-0.0383	-0.0098	-0.0555	100.7	31
0.0015	-0.0233	-0.0091	-0.0083	100.8	31
0.0022	-0.0105	-0.0083	0.0022	100.5	31
0.0045	0.003	-0.0083	-0.0105	100.8	31
0.0052	0.0045	-0.0091	-0.0135	100.4	31
0.0045	0.0142	-0.0143	-0.0308	100.8	31
0	0.0112	-0.0278	-0.0593	100.4	31
-0.0015	-0.0008	-0.0383	-0.042	100.6	31
-0.003	-0.0091	-0.0428	0.0067	100.7	31
-0.0053	0.0067	-0.0413	0.0592	100.7	31
-0.003	0.0412	-0.027	0.0937	100.7	31
-0.0015	0.0705	-0.0015	0.087	100.7	31
0.003	0.0712	0.0307	0.0862	100.8	31
0.003	0.036	0.0532	0.0712	100.6	31
-0.0015	-0.0015	0.0607	0.0375	100.9	31
0.0007	-0.0511	0.0622	0.012	100.7	31
0.0045	-0.0765	0.0547	-0.0503	101	31
0.0052	-0.0728	0.0345	-0.0743	100.6	31
0.0015	-0.0518	0.0165	-0.0458	100.9	31
0.0022	-0.027	0.0052	-0.0458	100.5	31
0.0022	-0.0158	-0.0068	-0.0413	101	31
0.0007	-0.012	-0.0105	-0.0165	100.7	31
-0.003	-0.0113	-0.0091	-0.0105	100.6	31
-0.006	0.0195	-0.003	0	100.8	31
-0.0038	0.0337	0.0022	0.0142	100.8	31
-0.0046	0.0202	0.0045	0.015	100.8	31
-0.0046	0.0225	0.0045	0.0292	100.9	31
-0.0053	0.0217	-0.0023	0.0202	100.9	31
-0.003	0.0067	-0.0128	0.024	100.8	31
0	-0.0068	-0.0195	0.0292	101	31
0.003	-0.0075	-0.0203	0.0142	100.6	31
0.0037	-0.0015	-0.0225	-0.0091	100.9	31
0	0.0112	-0.0225	-0.0083	100.7	31
-0.0038	0.0232	-0.0158	0.0405	100.8	31
-0.003	0.0457	-0.003	0.0517	101	31
0.003	0.0592	0.0097	0.045	100.8	31
0.0015	0.039	0.018	0.048	101.2	31
0.003	0.003	0.0247	0.0075	100.8	31
0.0022	-0.0488	0.0255	-0.0346	101	31
0.0007	-0.063	0.0135	-0.0488	101	31
-0.0008	-0.0443	0.0015	-0.0555	101	31
0.0007	-0.033	-0.0046	-0.0443	101	31
0.0022	-0.0278	-0.0068	-0.0405	101.1	31
-0.0015	-0.033	-0.0075	-0.057	100.8	31
-0.0008	-0.0248	-0.0068	-0.0593	101.2	31
-0.003	-0.0053	-0.0053	-0.0383	100.7	31
-0.003	0.003	-0.0053	-0.015	101.1	31
-0.003	0.0082	-0.0015	0.0097	101	31
-0.0053	0.009	0.0015	0.0255	100.9	31
-0.0068	0.006	0.003	0.0277	101.2	31
-0.0083	0.0067	0.006	0.039	100.8	31
-0.0046	0.0255	0.009	0.039	101.1	31
-0.0015	0.0502	0.0052	0.0315	100.8	31
0.0007	0.0382	-0.0053	0.0255	101	31
0.0015	0.0127	-0.0143	0.0105	101.1	31
0.003	0.012	-0.0218	-0.012	101.1	31
0.0045	0.0037	-0.0346	-0.0165	101	31
0.0067	0.0157	-0.0413	-0.0083	101.1	31
0.006	0.0405	-0.0361	0.0007	100.9	31
0.0045	0.0457	-0.0278	0.0217	101.1	31
-0.0015	0.009	-0.0158	0.039	101.2	31
-0.0046	-0.0128	0.0067	0.0615	101.1	31
0.0007	0.0082	0.0307	0.0607	101.3	31
0.0075	0.0097	0.048	0.0465	100.8	31
0.0112	0.009	0.0607	0.048	101.4	31
0.0105	-0.0293	0.0615	0.0052	101	31
0.009	-0.0698	0.0465	-0.0248	101.3	31
0.0075	-0.084	0.027	-0.0511	101	31
0.0045	-0.0871	0.0157	-0.0856	101.1	31
0.0045	-0.0518	0.0105	-0.0983	101	31
0.0037	-0.0143	0.0015	-0.1043	101	31
0.0022	-0.0053	-0.0015	-0.0683	101	31
-0.0038	-0.0346	-0.012	-0.0075	101.2	31
-0.0083	-0.0293	-0.021	0.0165	101.2	31
-0.0083	-0.0015	-0.0195	0.0135	101.2	31
-0.0105	0.0105	-0.0203	0.0217	101.4	31
-0.0113	0.0195	-0.0225	0.0157	100.9	31
-0.0068	0.0202	-0.024	0.024	101.3	31
-0.0053	0.018	-0.0263	0.0157	100.8	31
-0.0023	0.0105	-0.0256	0.0105	101.2	31
0.0007	0.0105	-0.0218	0.024	101.2	31
0.0037	0.0255	-0.0158	0.018	101	31
0.0052	0.0322	-0.0113	0.0532	101.2	31
0.0007	0.0315	-0.0068	0.072	101	31
0.0007	0.0405	0.0007	0.0465	101.3	31
0.0052	0.0487	0.0105	0.0607	100.9	31
0.0037	0.075	0.021	0.0697	101.2	31
0.0052	0.066	0.0307	0.0457	101.2	31
0.0037	0.0127	0.0382	0.0232	101.2	31
0.003	-0.027	0.0405	-0.0135	101.1	31
0.0015	-0.063	0.033	-0.0473	101.3	31
-0.0015	-0.0593	0.0217	-0.0825	101	31
0.0015	-0.0428	0.009	-0.0773	101.2	31
0.0015	-0.0375	0.003	-0.0706	101.2	31
0.0022	-0.0158	0.003	-0.0593	101	31
0.003	-0.0053	0.0007	-0.0188	101.3	31
0.0022	-0.0015	-0.0038	0.012	101	31
0	0.0105	-0.0083	0.042	101.4	31
0	0.027	-0.0128	0.0202	100.8	31
0.0015	0.0292	-0.0165	0.0247	101.3	31
-0.0008	0.0255	-0.0165	0.009	101.1	31
-0.0008	0.0225	-0.0165	-0.0361	101.2	31
-0.0008	0.0202	-0.0165	-0.0128	101.3	31
-0.0015	0.0105	-0.0203	0.0052	101.2	31
0	-0.0046	-0.0308	-0.003	101.1	31
-0.003	-0.0256	-0.039	0.0022	101.2	31
-0.0091	-0.0346	-0.0346	0.009	101.3	31
-0.0068	-0.0323	-0.0181	0.0135	101	31
-0.0068	-0.0285	-0.003	0.0247	101.4	31
-0.0046	-0.0203	0.0127	0.0232	101.1	31
-0.0046	-0.015	0.0217	0.015	101.3	31
-0.006	-0.0091	0.0217	0.0037	101	31
-0.0046	-0.0083	0.0202	0.009	101.1	31
-0.0046	0.0015	0.0165	0.0037	101.3	31
-0.003	0.0082	0.0157	-0.003	101.1	31
0.0015	0.0112	0.0142	-0.0053	101.5	31
0.003	0.0262	0.0127	-0.006	101	31
0.003	0.0427	0.0142	0.027	101.6	31
0.0045	0.0367	0.0142	0.0105	101.1	31
0.003	0.0052	0.0045	-0.0346	101.2	31
-0.0008	-0.0353	-0.0091	-0.0383	101.2	31
-0.003	-0.0511	-0.0158	-0.0428	101.2	31
0.0007	-0.042	-0.0158	-0.033	101	31
0.003	-0.033	-0.0143	-0.0098	101.5	31
0.0067	-0.0091	-0.015	-0.0015	101.2	31
0.0112	0.0037	-0.0158	0.015	101.3	31
0.0052	0.0105	-0.0135	0.0382	101.4	31
0.0007	0.027	-0.0098	0.0442	101	31
-0.0015	0.0345	-0.0105	0.027	101.4	31
-0.003	0.0292	-0.0068	0.018	101.1	31
-0.0023	0.0142	-0.0008	0.027	101.3	31
-0.006	0.0052	0.0015	0.0195	101.2	31
-0.0053	-0.0015	0.0037	0.024	101.3	31
-0.0015	-0.0105	0.009	0.0202	101.4	31
-0.003	-0.0158	0.0127	0.0045	101.3	31
-0.0023	-0.0158	0.0112	0.0067	101.3	31
-0.0015	-0.0165	0.0112	-0.0015	101.2	31
0	-0.0195	0.018	0.0105	101.3	31
0.0022	-0.006	0.0195	-0.0083	101.2	31
0.0037	0.0105	0.015	-0.048	101.3	31
0.0045	0.0157	0.0105	-0.0488	101	31
0.0015	0.0067	0.006	-0.0361	101.4	31
-0.0008	0.003	-0.0008	-0.0315	101	31
0	0.0112	-0.0068	-0.0608	101.5	31
0.0015	0.015	-0.0091	-0.0368	101	31
0.0022	0.0135	-0.0135	0.0315	101.6	31
0.0052	0.0217	-0.0188	0.0487	101.1	31
0.009	0.0457	-0.021	0.0585	101.2	31
0.0067	0.057	-0.0158	0.0765	101.1	31
0.0015	0.0405	-0.0046	0.0675	101.2	31
-0.0053	0.0247	0.003	0.063	101.4	31
-0.006	-0.0008	0.0097	0.0202	101.2	31
-0.0075	-0.048	0.0067	-0.0278	101.3	31
-0.0113	-0.0683	0.0007	-0.0278	101.2	31
-0.0128	-0.0615	-0.0038	-0.0091	101.5	31
-0.0105	-0.0518	0.0007	-0.003	101.1	31
-0.0053	-0.0458	0.0127	-0.0368	101.5	31
-0.006	-0.0608	0.0112	-0.048	101	31
-0.003	-0.0533	0.009	-0.0518	101.5	31
0.0007	-0.0375	0.012	-0.03	101	31
0.0037	-0.0203	0.0165	-0.0046	101.3	31
0.0075	0.0187	0.0165	-0.0015	101.4	31
0.0052	0.0315	0.015	0.0007	101.3	31
0.003	0.0375	0.0135	0.0007	101.3	31
0.0052	0.0427	0.009	0.0202	101	31
0.0052	0.0375	0.0082	0.009	101.5	31
0.0067	0.03	0.0052	-0.0083	101.3	31
0.006	0.0195	0.0022	-0.015	101.2	31
0.0015	0.0247	-0.0015	-0.012	101.1	31
0	0.0195	-0.0083	-0.0068	101.2	31
-0.0008	0.0082	-0.0105	-0.0346	101	31
-0.0008	-0.0158	-0.0091	-0.0218	101.4	31
-0.0008	-0.027	-0.012	-0.0233	101.1	31
-0.0053	-0.0091	-0.0195	-0.0195	101.3	31
-0.0053	-0.0015	-0.0233	0.0367	101.2	31
-0.003	0.0172	-0.0293	0.0307	101.2	31
-0.0008	0.021	-0.033	0.0405	101.3	31
0	0.006	-0.0323	0.0735	101	31
0.0007	0.0022	-0.0233	0.0705	101.6	31
0.0067	-0.0143	-0.0181	0.0292	101	31
0.0097	-0.0195	-0.012	-0.0128	101.4	31
0.0082	-0.0053	-0.0015	0.003	101.1	31
0.0075	-0.0068	0.0045	0.0127	101.1	31
0.0082	0.0037	0.0142	0.021	101.4	31
0.0075	0.0225	0.0202	0.03	101.2	31
0.0052	0.0345	0.0277	0.0352	101.1	31
0.0045	0.0345	0.042	0.0255	101.4	31
0.0007	0.0172	0.045	0.0195	101	31
-0.0008	0.0007	0.039	0.0067	101.4	31
-0.0046	-0.0293	0.0292	-0.0225	101	31
-0.0068	-0.0548	0.0232	-0.0346	101.2	31
-0.0083	-0.0578	0.0135	-0.054	101.2	31
-0.006	-0.0533	0.003	-0.0555	101.2	31
-0.0038	-0.033	-0.0015	-0.0405	101.3	31
-0.0046	-0.0128	-0.0038	-0.0278	101	31
-0.0015	-0.0015	-0.0075	-0.0188	101.4	31
0	0.0045	-0.0113	-0.0113	101.1	31
0.0015	0.009	-0.012	-0.006	101.1	31
0	0.0127	-0.0128	-0.0158	101.3	31
0.0015	0.0112	-0.0158	-0.0195	101.2	31
0.0052	0.0142	-0.0173	-0.0143	101	31
0.0045	0.0232	-0.0195	-0.0068	101.3	31
0.0045	0.0345	-0.0278	0.009	101	31
-0.0015	0.0405	-0.0315	0.0382	101.2	31
-0.0075	0.0382	-0.0248	0.0442	101.2	31
-0.0105	0.0172	-0.0128	0.0585	101.2	31
-0.012	-0.0053	-0.0008	0.069	101.4	31
-0.0083	-0.0143	0.0127	0.0442	101.1	31
-0.0038	-0.0233	0.027	0.042	101.3	31
-0.0023	-0.0263	0.0307	0.0105	101	31
-0.0023	-0.0278	0.0195	-0.0278	101.3	31
-0.0008	-0.0338	0.0052	-0.0338	101	31
-0.0008	-0.0315	-0.0008	-0.015	101.3	31
-0.0008	-0.0188	-0.003	-0.0218	101	31
0.003	-0.0053	-0.0046	-0.0203	101.2	31
0.0037	-0.0015	-0.0046	-0.0143	101.2	31
0.0045	0.0022	-0.0068	-0.0361	101.2	31
0.0045	0.0075	-0.0068	-0.024	101.1	31
0.0045	0.0135	-0.0046	-0.0308	101	31
0.006	0.0202	-0.0038	-0.024	101.3	31
0.0052	0.027	-0.003	-0.0068	101	31
0.003	0.0277	-0.0083	-0.0068	101.4	31
0.003	0.0127	-0.0105	-0.0053	100.7	31
0.0007	-0.003	-0.0158	-0.0008	101.3	31
-0.0015	-0.0128	-0.0195	-0.0091	100.9	31
-0.0015	-0.0091	-0.0181	-0.0091	101.3	31
0.0007	-0.0046	-0.0218	0.0112	101	31
0.0007	-0.003	-0.0248	0.0367	101.1	31
-0.003	-0.0008	-0.0181	0.0727	101.1	31
-0.0038	0.012	-0.0046	0.0547	100.9	31
-0.0038	0.0397	0.0105	0.0615	101.1	31
-0.0015	0.0487	0.0285	0.066	101	31
0.0007	0.024	0.0397	0.027	101.1	31
0.0007	0.003	0.0397	0.0127	101	31
0.0015	0	0.0397	-0.0023	101.2	31
0.003	-0.006	0.0352	-0.0263	100.8	31
0.0007	-0.0368	0.0232	-0.0578	101.1	31
-0.0038	-0.057	0.0067	-0.0825	100.9	31
-0.003	-0.0495	-0.0023	-0.0691	101	31
-0.0053	-0.0353	-0.0046	-0.03	101	31
-0.0113	-0.0203	-0.0091	-0.024	100.8	31
-0.0105	-0.0068	-0.0128	0.0165	101.1	31
-0.0068	0.0022	-0.0098	0.042	100.8	31
-0.0053	-0.0008	-0.0068	0.0067	101.2	31
-0.0046	0.009	-0.006	0.0157	100.7	31
0.0015	0.0097	-0.0083	0.0285	101.2	31
0.0075	-0.0083	-0.015	0.027	101	31
0.009	-0.0091	-0.015	-0.0008	101	31
0.0067	-0.0091	-0.0105	0.006	100.9	31
0.0052	0.0022	-0.0046	0.0337	101.1	31
0.0037	0.0007	0.006	0.0255	100.7	31
0.0015	-0.0105	0.0165	0.0262	101.2	31
0	-0.0181	0.0217	0.0187	100.8	31
0	-0.0248	0.0232	0.0157	101.1	31
-0.0008	-0.0181	0.0195	0.015	100.9	31
0	-0.015	0.0105	0.0052	101	31
0.0007	-0.0015	0.0052	0.0022	101.1	31
0.0022	0.0202	0.0007	0.0105	100.9	31
0.003	0.036	-0.0015	0.012	101.1	31
0.0015	0.03	0.0007	-0.0008	100.8	31
0.0022	0.0142	-0.0023	-0.0105	101.1	31
0.006	0.018	-0.003	-0.0181	100.9	31
0.0067	0.0142	-0.003	-0.024	100.9	31
0.0045	0.0037	-0.0015	-0.0233	100.9	31
0.0015	-0.012	-0.0083	-0.0315	100.9	31
0.0022	-0.0218	-0.012	-0.0615	100.8	31
0.0015	-0.0218	-0.0135	-0.0691	101	31
-0.0008	-0.0143	-0.0188	-0.0495	100.9	31
0.0015	0.0037	-0.0181	-0.0383	100.9	31
0.0052	0.0112	-0.0165	-0.0068	101.1	31
0.0052	0.0142	-0.0143	0.0292	100.6	31
0.0067	0.009	-0.0105	0.033	101.1	31
0.009	0.0007	-0.012	0.0142	100.7	31
0.0075	0.003	-0.0158	-0.0128	101.1	31
0.0015	-0.0008	-0.0105	0.0105	100.8	31
-0.0068	0.0067	0.0022	0.0585	100.9	31
-0.012	0.024	0.0195	0.0705	100.9	31
-0.012	0.0292	0.0307	0.069	100.9	31
-0.0128	0.0135	0.0307	0.054	101	31
-0.0165	-0.0195	0.0322	0.0315	101	31
-0.0158	-0.042	0.0277	0.009	100.8	31
-0.0143	-0.0405	0.0195	-0.0083	100.8	31
-0.012	-0.0315	0.0082	-0.0158	101	31
-0.0053	-0.0278	-0.0015	-0.0181	100.7	31
-0.0046	-0.0165	-0.003	-0.015	100.9	31
-0.0015	-0.0053	-0.0023	-0.0143	100.7	31
-0.0023	0.0037	-0.0015	-0.0165	101	31
-0.0015	0.0105	-0.003	-0.0195	100.8	31
0.0022	0.0112	-0.0068	-0.021	100.8	31
0.0052	0.015	-0.0143	-0.021	100.9	31
0.009	0.0202	-0.0181	-0.024	100.5	31
0.0105	0.0292	-0.0173	-0.0383	100.9	31
0.0105	0.03	-0.0165	-0.0533	100.5	31
0.0082	0.018	-0.0165	-0.0278	100.8	31
0.0067	0.012	-0.0173	0.0195	100.7	31
0.0052	0.0127	-0.0143	0.036	100.8	31
0.0052	0.021	-0.0128	0.0472	100.8	31
0.0067	0.0367	-0.0113	0.0532	100.9	31
0.0045	0.033	-0.0053	0.0615	100.8	31
0.003	0	0.0052	0.0637	100.7	31
0.003	-0.0285	0.0157	0.0277	100.8	31
0.0007	-0.039	0.0165	-0.0015	100.5	31
-0.003	-0.0278	0.0277	-0.0046	100.9	31
-0.0008	-0.0008	0.0382	-0.0068	100.5	31
0.0007	0.012	0.0382	-0.0053	100.9	31
0.0007	0.0037	0.0285	-0.003	100.5	31
-0.0008	-0.0113	0.0172	-0.006	100.7	31
-0.0015	-0.0181	0.009	-0.0165	100.5	31
-0.0015	-0.0263	-0.0008	-0.0338	100.6	31
-0.003	-0.0218	-0.0053	-0.0203	100.7	31
-0.0008	-0.0068	-0.0091	-0.0053	100.7	31
-0.0008	-0.0068	-0.0128	-0.012	100.6	31
0.0007	-0.003	-0.0143	-0.015	100.6	31
0.0022	-0.003	-0.0143	-0.0015	100.4	31
0	0.0007	-0.012	0.0082	100.7	31
0	0.0015	-0.0098	0.0037	100.7	31
0	-0.0008	-0.0068	0.0082	100.4	31
0.0015	0.0037	-0.0068	0.009	100.8	31
0.0007	0.0075	-0.0091	0.0052	100.5	31
-0.0008	0.012	-0.0128	0.0067	100.6	31
-0.0008	0.0007	-0.0091	0.006	100.6	31
-0.0023	-0.0105	-0.0068	-0.0083	100.4	31
-0.0008	-0.003	-0.0068	-0.024	100.7	31
-0.003	-0.0023	-0.0023	-0.0181	100.4	31
-0.0015	0.0097	0.003	-0.0046	100.8	31
0.0007	0.015	0.0082	0.006	100.4	31
0	-0.0008	0.0082	0.0045	100.5	31
0.0007	-0.0053	0.0067	0	100.4	31
0	0.0007	0.0052	0.003	100.5	31
0	0.0135	0.0045	0.018	100.4	31
0.0015	0.0375	0.009	0.0435	100.7	31
0.0007	0.0382	0.009	0.0255	100.3	31
-0.0008	0.0127	-0.0023	-0.003	100.7	31
-0.0038	-0.0083	-0.0128	-0.024	100.4	31
-0.003	-0.0195	-0.0203	-0.0203	100.5	31
0.0007	-0.0053	-0.0233	-0.0038	100.6	31
0.003	0.021	-0.0165	-0.0488	100.3	31
0.003	0.024	-0.0091	-0.012	100.7	31
0.0037	0.0142	0.0015	0.0517	100.3	31
0.0015	0.0045	0.0157	0.066	100.5	31
-0.0008	-0.0135	0.0232	0.0555	100.4	31
-0.0038	-0.042	0.0225	0.0202	100.4	31
-0.0075	-0.0488	0.018	0.0037	100.4	31
-0.0083	-0.0308	0.0195	0.0022	100.4	31
-0.0068	-0.0181	0.0187	0.003	100.3	31
-0.0046	-0.0256	0.0165	-0.0203	100.4	31
-0.003	-0.042	0.009	-0.03	100.4	31
-0.0008	-0.0443	-0.0015	-0.0315	100.4	31
-0.0015	-0.033	-0.0091	-0.0278	100.5	31
-0.0015	-0.0225	-0.0105	-0.024	100.2	31
0.0015	-0.012	-0.006	-0.024	100.7	31
0.0022	0.0007	-0.0038	-0.012	100.2	31
0.003	0.012	-0.0068	-0.0038	100.6	31
0.0052	0.021	-0.0083	0.0052	100.3	31
0.0052	0.018	-0.0075	0.012	100.4	31
0.0052	0.0202	-0.0091	0.0165	100.4	31
0.0045	0.021	-0.012	0.009	100.2	31
0.0037	0.0127	-0.012	0.0052	100.5	31
0.0022	0.0112	-0.0098	0.0105	100.3	31
0	0.0135	-0.0083	-0.0008	100.3	31
-0.0023	0.0165	-0.0053	-0.006	100.4	31
-0.0038	0.009	-0.0068	0.0045	100.6	31
-0.0023	0.0105	-0.0068	0.012	100.2	31
0	0.0127	-0.0008	0.0217	100.6	31
0.0022	0.0127	0.0052	0.0292	100.3	31
0.0045	0.021	0.012	0.0142	100.4	31
0.0015	0.0232	0.0142	-0.0075	100.4	31
0	0.0187	0.0142	-0.0113	100.3	31
-0.0008	0.012	0.0127	-0.0091	100.4	31
-0.003	-0.0008	0.0082	-0.0075	100.3	31
-0.0046	-0.021	0.0015	-0.0053	100.5	31
-0.006	-0.0308	-0.0015	-0.003	100.2	31
-0.0038	-0.0218	-0.0015	0.0037	100.6	31
-0.0008	-0.0091	-0.003	0.0135	100.4	31
0.0015	0.0037	-0.0046	0.0172	100.3	31
0.003	0.018	-0.0091	0.0217	100.3	31
0.0045	0.0202	-0.0173	0.042	100.4	31
0.0052	0.0367	-0.0195	0.0502	100.2	31
0.0037	0.0532	-0.0143	0.0495	100.4	31
-0.0015	0.0637	-0.0015	0.0517	100.3	31
-0.0015	0.0465	0.0112	0.033	100.2	31
-0.0008	-0.0218	0.021	-0.003	100.4	31
-0.0015	-0.0706	0.0202	-0.048	100	31
-0.0023	-0.1006	0.0075	-0.0833	100.5	31
-0.0046	-0.0856	-0.003	-0.063	100	31
-0.003	-0.0353	-0.0053	-0.0203	100.4	31
0	-0.0128	-0.0046	-0.0105	100	31
0.003	-0.0015	0.0045	-0.003	100.3	31
0.006	0.0082	0.009	0.003	100.3	31
0.0045	0.0225	0.0105	-0.0046	100.2	31
0.003	0.0202	0.012	0.0007	100.2	31
-0.0008	0.0075	0.0105	0.0052	100.1	31
-0.0046	0.006	0.0082	0.0165	100.2	31
-0.0038	0.0067	0.006	0.0165	100.2	31
-0.006	0.0052	0.0075	0.0112	100.3	31
-0.0053	0.0022	0.012	0.0015	100.2	31
-0.003	-0.0083	0.009	0.0015	100.3	31
-0.0053	-0.0233	-0.0046	-0.012	100.1	31
-0.0083	-0.0218	-0.0143	-0.0293	100.2	31
-0.0083	-0.0053	-0.0165	0.0007	100.2	31
-0.0068	0.0052	-0.0181	-0.0023	100	31
-0.0023	-0.0023	-0.0165	0.0037	100.4	31
0.0052	0.0007	-0.0195	0.0015	99.8	31
0.0105	-0.0023	-0.0181	-0.0256	100.3	31
0.012	-0.0083	-0.0203	-0.033	99.9	31
0.012	0.0067	-0.024	-0.0173	100.1	31
0.0097	-0.003	-0.0188	-0.0143	100	31
0.006	-0.0053	-0.0105	-0.015	100.1	31
0.003	0.0015	0.003	0.0202	100	31
-0.0015	0.009	0.0202	0.0337	100.3	31
-0.0015	0.0345	0.0315	0.0495	99.7	31
-0.0038	0.048	0.0382	0.054	100.3	31
-0.0046	0.036	0.0352	0.0427	99.8	31
-0.0075	0.003	0.027	0.0337	100.1	31
-0.0113	-0.0195	0.0165	0.0082	100	31
-0.0105	-0.0285	0.0037	-0.0083	99.9	31
-0.012	-0.0353	-0.0015	-0.0098	100.2	31
-0.006	-0.0375	-0.0023	-0.0181	99.9	31
-0.0015	-0.0383	-0.003	-0.021	100	31
0	-0.0315	-0.0038	-0.0233	99.9	31
0.0037	-0.0128	-0.0091	-0.024	99.8	31
0.0067	0.0037	-0.0128	-0.0158	100	31
0.009	0.0127	-0.0158	-0.027	100	31
0.009	0.0225	-0.0195	-0.0315	99.8	31
0.009	0.0277	-0.0218	-0.0068	100	31
0.009	0.0285	-0.0263	-0.0053	99.8	31
0.009	0.0157	-0.0293	-0.0046	99.9	31
0.003	0.0142	-0.0263	0.0142	100	31
0	0.0232	-0.0098	0.0202	99.7	31
-0.0023	0.0052	0.0082	0.0345	100.2	31
-0.0046	-0.0113	0.024	0.0405	99.7	31
-0.0015	-0.0113	0.0405	0.0577	100.2	31
0.0022	-0.0015	0.0412	0.0532	99.6	31
0.0045	-0.0165	0.0292	0.0127	100	31
0.0052	-0.0218	0.018	-0.0105	99.8	31
0.0045	-0.0158	0.0075	-0.0518	99.8	31
-0.0008	-0.0353	0.0007	-0.039	99.9	31
-0.0053	-0.0383	-0.006	-0.003	99.8	31
-0.0068	-0.0158	-0.0083	-0.0105	99.8	31
-0.0046	0.0045	-0.003	0.0022	99.8	31
-0.003	0.0202	-0.003	-0.0053	99.8	31
-0.0053	0.0307	-0.0068	-0.0023	99.6	31
-0.0068	0.033	-0.0105	0.0097	100	31
-0.0068	0.0375	-0.0128	-0.0135	99.6	31
-0.003	0.042	-0.0105	0.006	99.8	31
0.003	0.042	-0.0068	0.027	99.5	31
0.0052	0.0157	-0.0091	0.0202	99.9	31
0.0052	-0.0068	-0.0188	0.0045	99.7	31
0.006	-0.015	-0.0278	-0.0293	99.6	31
0.0045	-0.0308	-0.0256	-0.0293	99.8	31
0.003	-0.0383	-0.0091	-0.0105	99.7	31
0.0045	-0.0218	0.0127	0.0247	100	31
0.0052	0.003	0.0277	0.0367	99.5	31
0.0052	0.0157	0.0367	0.0255	99.8	31
0.0037	0.0067	0.0352	0.0195	99.7	31
0.0022	-0.0143	0.0262	-0.0053	99.7	31
0.0022	-0.0143	0.0187	0.009	99.8	31
0.0007	-0.021	0.0097	0.0007	99.8	31
-0.0015	-0.024	0.003	-0.0195	99.6	31
-0.0015	-0.0181	-0.003	-0.0225	99.6	31
0.0007	-0.015	-0.0068	-0.015	99.8	31
0.003	-0.0113	-0.006	-0.0075	99.5	31
0.003	-0.0053	-0.0075	-0.012	99.8	31
0.0007	0.0022	-0.0098	0.0157	99.4	31
-0.0008	0.009	-0.0083	0.0127	99.9	31
-0.0008	0.015	-0.0053	0.003	99.5	31
-0.0015	0.0105	-0.0083	-0.0053	99.8	31
-0.0008	0.0022	-0.0128	-0.0068	99.6	31
-0.0038	-0.0083	-0.0158	-0.012	99.7	31
-0.0053	-0.0046	-0.0143	-0.0113	99.6	31
-0.006	0.0007	-0.012	0.0172	99.8	31
-0.0075	0.0067	-0.0083	0.0135	99.7	31
-0.006	0.009	-0.0008	0.0255	99.8	31
-0.006	0.0112	0.0052	0.0397	99.6	31
-0.0068	0.0172	0.0127	0.0315	99.8	31
-0.0053	0.0135	0.0195	0.0007	99.8	31
-0.0038	0.0045	0.0195	-0.0113	99.5	31
-0.0038	-0.006	0.0157	0.0052	99.7	31
-0.003	-0.0083	0.0127	0.0135	99.5	31
-0.0023	-0.0083	0.0097	0.0285	99.6	31
0	-0.0068	0.0045	0.003	99.5	31
0.0007	-0.0015	-0.0008	-0.0181	99.6	31
0.0007	-0.0008	-0.003	-0.0218	99.7	31
0.003	0	-0.006	-0.0293	99.4	31
0.003	0.0052	-0.0053	-0.0181	99.8	31
0.0037	0.0082	-0.0038	-0.0158	99.6	31
0.0015	0.0067	-0.0038	-0.0105	99.4	31
0.0007	0.0045	-0.0015	-0.0038	99.5	31
0.0007	0.0052	-0.0053	0.0045	99.6	31
-0.0015	0.0082	-0.0075	0.0097	99.4	31
-0.0015	0.0105	-0.015	0.0007	99.6	31
0.0007	0.0082	-0.0203	-0.003	99.4	31
0.0067	0	-0.0203	0.0247	99.7	31
0.0067	0.0007	-0.0181	0.0105	99.5	31
0.0052	0.0202	-0.0091	-0.0256	99.6	31
0.0037	0.033	-0.0023	0.0322	99.7	31
0.0045	0.054	0.009	0.0577	99.3	31
0.0052	0.06	0.0217	0.0352	99.5	31
-0.0008	0.0007	0.0202	0.0127	99.4	31
-0.003	-0.0443	0.0127	-0.0225	99.5	31
-0.0053	-0.0593	0.0142	-0.0158	99.6	31
-0.0068	-0.0615	0.018	-0.0128	99.5	31
-0.003	-0.0525	0.0187	-0.0165	99.6	31
-0.0015	-0.0428	0.0112	-0.0346	99.5	31
0.0015	-0.0428	0.0045	-0.0368	99.3	31
0.0045	-0.048	-0.003	-0.063	99.4	31
0.0052	-0.0293	-0.0098	-0.0848	99.6	31
0.0067	-0.0023	-0.0105	-0.0593	99.3	31
0.006	0.0157	-0.0128	-0.0293	99.6	31
0.0022	0.0105	-0.0158	0.0412	99.2	31
-0.003	0.0052	-0.012	0.0727	99.7	31
-0.0053	-0.0015	-0.0053	0.0667	99.2	31
-0.0038	0.0067	-0.0008	0.0502	99.7	31
-0.0046	0.021	0.0067	0.063	99.4	31
-0.0046	0.015	0.0142	0.0705	99.6	31
-0.003	0.0142	0.0165	0.0592	99.4	31
-0.003	0.0165	0.0157	0.0495	99.5	31
-0.0015	0.0165	0.0127	0.024	99.4	31
-0.0008	0.0037	0.0067	0.0082	99.5	31
0.0015	-0.012	0	-0.0158	99.6	31
0.003	-0.0195	-0.0091	-0.027	99.6	31
0.0015	-0.0203	-0.0143	-0.0353	99.6	31
0.0007	-0.0143	-0.015	-0.027	99.3	31
-0.0008	-0.0068	-0.0143	-0.0173	99.7	31
0	0.0015	-0.0091	-0.0158	99.3	31
0	0.0112	-0.003	-0.0113	99.4	31
-0.0008	0.0135	0.0022	-0.012	99.5	31
0	0.0157	0.0067	-0.0083	99.5	31
0.0037	0.0165	0.0082	-0.012	99.6	31
0.0052	0.012	0.0082	-0.0113	99.3	31
0.0045	0.0082	0.0067	-0.012	99.6	31
0.0045	0.006	0.0037	-0.0105	99.3	31
0.003	0.003	-0.0008	-0.0091	99.6	31
0.0007	0.0022	-0.0008	-0.0053	99.4	31
0.0007	0.0022	0	0.0045	99.4	31
0.0022	0.0015	0.0022	0.009	99.4	31
0.003	0.0052	0.0007	0.0135	99.5	31
0.003	0.0097	-0.003	0.0082	99.4	31
0.0015	0.0157	-0.0068	-0.0015	99.4	31
0.003	0.024	-0.0135	-0.0083	99.5	31
0.0007	0.0262	-0.0165	-0.0046	99.6	31
0.0022	0.0255	-0.0158	0.0135	99.5	31
0.0007	0.0277	-0.0128	0.0255	99.2	31
-0.003	0.0232	-0.0091	0.0142	99.8	31
-0.003	0.0225	-0.0046	0.0277	99.2	31
-0.0038	0.0135	0.0052	0.0405	99.6	31
-0.0015	-0.0008	0.012	0.0307	99.4	31
-0.003	-0.03	0.0135	0.0225	99.6	31
-0.0053	-0.0675	0.0045	-0.0285	99.5	31
-0.003	-0.0698	-0.0083	-0.0555	99.4	31
-0.0015	-0.0623	-0.0105	-0.0346	99.4	31
-0.0008	-0.042	-0.0083	-0.0346	99.5	31
-0.0023	-0.0225	-0.0053	-0.0308	99.4	31
-0.003	-0.021	-0.0046	-0.024	99.4	31
-0.003	-0.0053	0	0.0015	99.5	31
-0.0046	0.0052	0.0082	0.0142	99.3	31
-0.006	0.0172	0.0127	-0.0113	99.7	31
-0.0053	0.0127	0.015	-0.003	99.3	31
-0.0053	0.006	0.0135	0.0067	99.6	31
-0.0075	0.0045	0.012	0.012	99.3	31
-0.0046	-0.0008	0.0157	0.0195	99.6	31
-0.0046	0.018	0.0157	0.0292	99.6	31
-0.0038	0.015	0.012	0.0427	99.3	31
-0.0015	-0.0023	0.0067	0.0307	99.6	31
0.003	-0.0008	0.0022	0.0202	99.3	31
0.0067	0.0067	-0.0008	0.018	99.5	31
0.0075	0.012	-0.0075	-0.0008	99.6	31
0.003	0.0015	-0.0135	-0.0158	99.4	31
-0.0015	-0.0128	-0.0165	-0.012	99.3	31
-0.003	-0.0165	-0.0143	0.0082	99.8	31
-0.0053	-0.0091	-0.006	0.0225	99.3	31
-0.0053	-0.0015	-0.0015	0.027	99.7	31
-0.0023	0.009	0.0015	0.0307	99.3	31
0.0007	0.0127	0.0015	0.0285	99.6	31
0.003	0.0165	0.0022	0.0195	99.4	31
0.0045	0.0307	0.003	0.0045	99.4	31
0.0067	0.0367	0.0045	0.0015	99.6	31
0.0082	0.027	0.0067	-0.0015	99.4	31
0.006	-0.0181	0.006	-0.0293	99.6	31
0.003	-0.0518	0.0052	-0.0503	99.3	31
0.0015	-0.0465	0.0022	-0.0533	99.4	31
-0.0008	-0.0346	0.0007	-0.0443	99.4	31
-0.0008	-0.0098	0.003	-0.0256	99.4	31
0.0007	-0.0091	0.0037	-0.0181	99.5	31
0.0022	-0.0135	0.0045	-0.0158	99.6	31
0.0007	-0.0091	0.0007	-0.012	99.4	31
0.0007	-0.0053	-0.0046	-0.0023	99.4	31
0.0022	0.0075	-0.0046	0.009	99.7	31
0.0022	0.0097	-0.0023	0.0172	99.3	31
0.0022	0.012	-0.0015	0.021	99.7	31
0.0007	0.0052	0.0015	0.009	99.1	31
-0.0008	0.0015	-0.0008	0.0037	99.6	31
-0.0008	0.0007	-0.003	0.0082	99.3	31
0	-0.0008	-0.003	0.0112	99.6	31
0.0015	0.0015	-0.0038	0.012	99.4	31
-0.0008	0.0022	-0.0046	0.009	99.5	31
-0.0015	0.0045	-0.006	0.006	99.5	31
-0.0008	0.0015	-0.006	0.003	99.4	31
-0.003	0.0037	-0.0053	0.0007	99.4	31
-0.0015	0.0015	-0.0046	-0.003	99.5	31
-0.0008	0.0007	-0.0068	-0.0046	99.6	31
0	0.003	-0.0075	-0.0068	99.2	31
0.0015	0.003	-0.0038	-0.0098	99.6	31
0.0015	0.003	-0.0023	-0.0098	99.2	31
0.0007	0.0075	-0.0008	-0.0091	99.6	31
0	0.0112	0	-0.0023	99.3	31
-0.0008	0.0142	0.003	0.0097	99.4	31
-0.0008	0.0135	0.0075	0.0105	99.3	31
-0.0008	0.0105	0.0082	-0.0023	99.2	31
-0.003	0.006	0.0067	-0.0053	99.5	31
-0.003	0.0045	0.0045	0.012	99.2	31
-0.0023	0.003	0.0007	0.0367	99.6	31
-0.0008	0.0052	0.0007	0.0375	99.4	31
-0.003	0.0105	0.0007	0.0262	99.4	31
-0.0053	0.0097	-0.0015	0.0135	99.3	31
-0.0038	0.0022	-0.0008	-0.0075	99.4	31
-0.0008	-0.0046	-0.0008	-0.0098	99.3	31
0.0015	-0.0075	-0.0053	-0.0091	99.4	31
-0.0008	-0.0143	-0.0098	-0.0083	99.5	31
-0.0015	-0.0083	-0.0158	-0.0015	99.3	31
0.0007	0.0067	-0.0143	0.0052	99.5	31
0.003	0.0045	-0.0083	0.0157	99.3	31
