File Name: 10Asen.log
Channel 1: 'Recto femoral', 19740 values, engineering units: mV, no filters.
Channel 2: 'Biceps Femoral', 19740 values, engineering units: mV, no filters.
Channel 3: 'Vasto Medial', 19740 values, engineering units: mV, no filters.
Channel 4: 'Semitendinoso', 19740 values, engineering units: mV, no filters.
Channel 5: 'Flexo', 19740 values, engineering units: deg, no filters.
Digitals combined (event=16, d=8, c=4, b=2, a=1): 19740 values, .

0.0007	0	0.0007	0.0022	79.2	31
0.0022	-0.0053	0.0015	0.0037	79.1	31
0.0015	-0.006	-0.0008	0.0015	79.2	31
0.0015	-0.0053	-0.003	0.0007	79.3	31
0.0015	-0.0075	-0.003	0.0007	79.1	31
0.0022	-0.0068	-0.0008	0.0007	79.2	31
0.003	-0.0068	-0.0008	0.0015	79.4	31
0.0037	-0.0053	-0.003	0.0007	79	31
0.0045	-0.0053	-0.0046	0.0015	79.3	31
0.0007	-0.0046	-0.0015	0.0015	79.1	31
0.0015	-0.003	0.0007	0.0022	79.1	31
0.0015	-0.0015	0	0.003	79.2	31
0.0007	-0.0015	0.0007	0.0015	79.2	31
0.0007	0.0007	0	0.0007	79.2	31
0.0015	0.0007	0.0007	0.0007	79.2	31
0.0015	0.0007	-0.0008	0.0007	79	31
0	0.0015	0	0.0007	79.3	31
0.0007	0.0015	0.0022	0.0022	79.4	31
0.0007	0.0015	0.0007	0.0015	79	31
-0.0015	0.0022	0.003	0	79.3	31
-0.0015	0.0022	0.0022	0.0015	79.2	31
-0.0023	0.0007	0.0022	0.0022	79.2	31
0	0.0007	0.0015	0.003	79.3	31
0.0007	0.0015	0	0.0022	79.1	31
-0.0008	0.003	-0.0015	0.0007	79.3	31
-0.0008	0.003	-0.0046	0.0015	79.2	31
-0.0023	0.003	-0.0053	0.0015	79.3	31
-0.003	0.0015	-0.0053	0.0015	79.2	31
0	0.0015	-0.003	0.0015	79.3	31
0.0007	0.0007	-0.0015	0.0022	79.2	31
-0.0008	0.0015	-0.0023	0.0022	79.2	31
0	0.0045	-0.0008	0.0015	79.2	31
-0.0008	0.0015	-0.0015	0.003	79.3	31
-0.0008	0.0015	0.0007	0.0015	79.3	31
-0.0008	0.0037	0.003	0.003	79.2	31
0	0.0022	0.0007	0.0045	79.3	31
0.0007	0.003	0.0007	0.0037	79.1	31
-0.0008	0.003	0.0007	0.0015	79.6	31
-0.0008	0.0007	0.0007	0.0007	79.1	31
-0.0008	0.0007	0.003	0.0022	79.4	31
0.0007	0.0007	0.003	0.0022	79.1	31
-0.0008	-0.0008	0.0015	0.0015	79.3	31
-0.0015	-0.0023	-0.0008	0.0015	79.2	31
-0.0015	-0.003	-0.0008	-0.0008	79.3	31
-0.0023	-0.0023	0.0007	0	79.2	31
-0.0008	-0.003	-0.0015	0	79.4	31
-0.0008	-0.0015	-0.0015	-0.0008	79.2	31
0.0007	0.0007	-0.0015	0.0007	79.2	31
-0.0008	0.0007	-0.0015	0.0007	79.3	31
-0.0008	-0.0008	-0.0015	0	79	31
-0.0008	-0.0015	-0.0038	0	79.6	31
-0.0023	-0.0008	-0.0023	0.0007	79.1	31
0.0007	-0.0015	-0.003	0.003	79.3	31
-0.0015	0.0007	-0.003	0.0045	79.3	31
-0.0008	0	-0.0015	0.003	79.1	31
-0.0008	-0.0015	-0.0023	0.0015	79.4	31
-0.0023	0.0007	-0.0015	0.0007	79	31
-0.003	-0.0008	-0.0008	0.0007	79.5	31
-0.0046	-0.0015	0.0007	0.0007	79.2	31
-0.0015	-0.0015	0.0007	0	79.3	31
-0.003	-0.003	0.0015	0.0007	79.3	31
-0.0015	-0.003	0.0015	0.0007	79.3	31
-0.0015	-0.0046	0.0015	0.0015	79.3	31
-0.0008	-0.0046	0.003	0.0037	79.2	31
-0.0008	-0.0023	0.0015	0.0045	79.3	31
0.0007	-0.0015	0.0015	0.0037	79.3	31
0.0007	-0.0015	0.0052	0.003	79.4	31
-0.0008	-0.0008	0.006	0.0015	79.1	31
-0.0008	0	0.003	0.0007	79.4	31
-0.0008	-0.0015	0	0	78.9	31
0.0007	-0.003	0	0	79.4	31
0.0022	-0.0038	0.0015	0.0015	79	31
0.0045	-0.003	0.0007	0.0022	79.3	31
0.003	0.0007	-0.0008	0.0015	79.2	31
0.003	0	-0.0008	0.0045	79.2	31
0.0052	-0.0008	0.0015	0.0015	79.3	31
0.006	0.0007	0	0.0015	79.2	31
0.0052	0.0015	-0.0008	0.0045	79.2	31
0.003	0.0015	0.0007	0.0037	79.3	31
0.003	0.0007	-0.0008	0.0037	79.3	31
0.0015	0.003	0.0007	0.0022	79.1	31
0	0.0015	0.0007	0.0022	79.3	31
0	0.0007	0	0.003	79.2	31
-0.0008	0.0022	0.0007	0.0015	79.2	31
0	0.0007	0	0.0022	79.3	31
-0.0008	0.0007	-0.0015	0.003	79.2	31
-0.0038	0.0015	-0.0008	0.0022	79.3	31
-0.0038	0.0022	-0.0008	0	79	31
-0.0023	0.0015	-0.0023	0	79.4	31
-0.0023	0.0007	-0.0008	-0.0015	79	31
-0.0015	0	-0.0008	-0.003	79.5	31
-0.0023	-0.0015	0	0	79.3	31
-0.0008	-0.0008	-0.0008	-0.0015	79.3	31
0	-0.0023	-0.0008	-0.0046	79.3	31
-0.0015	-0.0046	0.0007	-0.003	79.3	31
-0.0008	-0.0038	0.0007	-0.0023	79	31
-0.0008	-0.003	0.0007	-0.0015	79.3	31
-0.0015	-0.003	0.0015	-0.0023	79.2	31
0.0007	-0.0046	0.0015	-0.0023	79.2	31
-0.0008	-0.0046	0.003	-0.0015	79.3	31
0.0015	-0.0046	0.003	-0.0023	79.1	31
0.003	-0.0038	0.0022	-0.0008	79.3	31
0.0022	-0.003	0.0015	-0.0008	79.2	31
0.003	-0.0015	0.003	0.0007	79.4	31
0.0022	-0.0015	0.0022	0.0015	79.2	31
0.0007	0.0007	0.0015	0.0007	79.2	31
-0.0015	0.0007	0.0015	0.0022	79.3	31
-0.0008	0.0007	0.0007	0.0052	79.2	31
0.0007	-0.0008	0.0007	0.0067	79.2	31
0.0015	0	-0.0015	0.0082	79.2	31
0.0007	-0.0008	0	0.0082	79.2	31
-0.0008	-0.0023	-0.0015	0.009	79.1	31
0	-0.0015	-0.003	0.0082	79.4	31
0.0007	-0.003	-0.0008	0.0052	79	31
0.0007	-0.003	-0.0008	0.0045	79.3	31
0.0007	-0.0038	0.0007	0.0045	79.1	31
0.003	-0.0023	0.0007	0.0052	79.5	31
0.003	-0.0015	0.0007	0.0037	79.2	31
0.0007	-0.0008	0	0.0015	79.2	31
0.0015	0.0015	-0.0008	0.0022	79.3	31
-0.0008	0.0015	-0.0008	0.0015	79.2	31
-0.0023	0.0015	-0.0008	0.003	79.3	31
-0.0015	0.0015	-0.0008	0.0015	79.2	31
-0.0008	0.0022	-0.0008	0.0007	79.3	31
-0.0015	0	-0.0008	0.0015	79.3	31
-0.0023	-0.0008	-0.003	0.003	79.3	31
-0.0046	0.0015	-0.003	0.0022	79	31
-0.006	0.0007	-0.003	0.0015	79.5	31
-0.0038	0.0007	-0.0046	0.0015	79.1	31
-0.0015	0.0015	-0.0053	0.0007	79.4	31
-0.0023	0.003	-0.003	-0.0015	79.2	31
-0.0015	0.0015	-0.0046	-0.0015	79.2	31
-0.0008	0.0022	-0.0038	-0.0023	79.4	31
0.0015	0.003	-0.003	0.0015	79	31
0.0015	0.0015	-0.0038	0.0015	79.4	31
0.0022	0.0015	-0.0015	0.0007	79	31
0.0015	0.003	-0.0008	0.003	79.6	31
0.0007	0.0045	0	0.0007	79	31
-0.0008	0.003	-0.0015	0.0015	79.3	31
-0.0015	0.0007	-0.003	0	79.3	31
-0.0015	0	-0.0008	-0.0015	79.2	31
-0.003	0	0.0007	0	79.3	31
-0.003	-0.0008	0.0007	0.0007	79.2	31
-0.003	-0.0008	0.0007	0.0015	79.4	31
-0.0015	-0.0015	-0.0008	0	79	31
-0.0008	-0.0046	0	0.0007	79.6	31
-0.0008	-0.0023	0.0015	0.0015	79.1	31
-0.0008	-0.0015	0.003	0.0007	79.4	31
-0.0008	-0.0008	0.0037	0	79	31
0.0007	-0.0015	0.0052	-0.0008	79.2	31
0.0007	-0.0023	0.0045	0.0015	79.2	31
0.0007	-0.0046	0.0037	0.0022	79.1	31
0.0007	-0.006	0.0052	0.003	79.3	31
0	-0.0053	0.0045	0.0045	79.2	31
0.0007	-0.006	0.0022	0.003	79.5	31
0.0022	-0.003	-0.0008	0.0045	79.3	31
0.0015	-0.0046	-0.0023	0.0037	79.2	31
0.0015	-0.003	-0.0015	0.0015	79.2	31
0.0015	-0.003	-0.0008	0.003	79.2	31
0.003	-0.0015	0.0007	0.003	79.2	31
0.003	-0.0015	0	0.0015	79.3	31
0.0015	-0.0008	-0.0008	0.003	79.2	31
0.0007	0	-0.0015	0.0022	79.3	31
-0.0008	-0.0015	0	0.0007	79.3	31
0	-0.0015	0.0007	0.0015	79.2	31
0.0007	-0.0023	-0.0015	0.0015	79.4	31
-0.0008	-0.0008	-0.0008	0.0007	79	31
-0.0023	-0.0015	0.0007	-0.0008	79.6	31
-0.0023	-0.0015	-0.0008	0.0007	78.9	31
-0.0008	-0.0023	-0.0008	0.0007	79.4	31
-0.0008	-0.003	0.003	-0.0008	79.3	31
0.0007	-0.003	0.0022	-0.0015	79.2	31
0.0015	-0.0008	0.0015	-0.0015	79.3	31
0.0015	0.0015	0.0022	0.0007	79.2	31
0.0015	0.0015	0.0015	0.0022	79.1	31
0.0007	0.0007	0.0015	0.003	79.3	31
0.0007	-0.0008	0.0037	0.003	79.2	31
-0.0008	-0.0008	0.0037	0.0045	79.3	31
-0.0008	-0.0008	0.0007	0.0037	79.4	31
0.0007	-0.0023	0	0.003	79.2	31
0.0015	-0.003	-0.0015	0.0015	79.3	31
0.0022	-0.0046	-0.0008	0.0007	79.3	31
0.0022	-0.0053	-0.0015	-0.0008	79.3	31
0.0037	-0.0053	-0.0038	-0.0015	79.3	31
0.0037	-0.006	-0.003	-0.0008	79.2	31
0.003	-0.0046	-0.003	-0.003	79.4	31
0.003	-0.0015	-0.0015	0	79.2	31
0.0022	0.0015	0.0015	0.0015	79.3	31
0.003	0.0045	0.003	0.0007	79.4	31
0.0022	0.0045	0.0022	0.0007	79.3	31
0.0022	0.0052	0.0007	-0.0008	79.1	31
0.0007	0.003	-0.0008	-0.0008	79.5	31
-0.0008	0.0007	-0.0015	-0.0008	79.1	31
-0.0015	0.0007	-0.0023	0	79.4	31
-0.0008	0	-0.0038	-0.0008	79.1	31
-0.0008	-0.0008	-0.0038	-0.0008	79.4	31
-0.0015	-0.0015	-0.003	-0.0008	79.1	31
-0.003	-0.0008	-0.0008	0	79.2	31
-0.0038	0.0015	0.0015	0.0015	79.4	31
-0.0015	0.0037	0.0022	0.0015	79.2	31
-0.0015	0.0052	0.0022	0.0045	79.4	31
-0.0008	0.0045	0.0015	0.0052	79.2	31
-0.0008	0.003	0.0015	0.0045	79.2	31
-0.0015	0.0015	0.003	0.0022	79.3	31
-0.0023	0.0015	0.0022	0.0037	79.3	31
-0.0023	0.0015	0.0007	0.003	79.4	31
-0.0023	0	0.0015	-0.0008	79.6	31
-0.003	-0.0008	0.0022	0.0007	79.2	31
-0.0023	-0.0015	0.0015	0.003	79.3	31
-0.0008	-0.003	0.0022	0.0015	79.3	31
0	-0.0046	0	0.0037	79.2	31
-0.0015	-0.006	0	0.0037	79.4	31
0	-0.006	0	0.0007	79.3	31
0.0015	-0.0023	0.0007	0.0015	79.5	31
0.0007	-0.0015	0.0007	0.003	79.2	31
-0.0008	-0.0015	-0.0008	0.0037	79.5	31
-0.0015	-0.003	0.0007	0.0022	79.3	31
0.0007	-0.003	0.0015	0.0015	79.5	31
-0.0008	-0.0008	0.0015	0.0015	79.3	31
0.0007	-0.0015	-0.0008	0.0022	79.2	31
0.0015	-0.0015	0	0.0022	79.3	31
0	-0.0015	0	0.0022	79.3	31
-0.0008	-0.0008	-0.0023	0.0037	79.5	31
-0.0008	-0.0008	-0.003	0.003	79.2	31
-0.0008	-0.0008	-0.0046	0.0007	79.5	31
-0.0015	0.0015	-0.0053	0.0015	79.2	31
-0.0015	0.003	-0.0053	0.0015	79.6	31
0.0007	0.003	-0.0038	0.0015	79.1	31
0.0007	0.003	-0.0046	0.0022	79.6	31
-0.0015	0.0015	-0.003	0.003	79.3	31
0	0	-0.0008	0.003	79.4	31
-0.0015	0	0.0015	0.003	79.3	31
-0.0008	0.0015	0.0022	0.0022	79.3	31
0	0.0022	0.0015	0.003	79.6	31
0.0015	0.0037	0.0015	0.0022	79.3	31
0.0015	0.0045	0.0015	0.003	79.4	31
0.0007	0.0037	0.0007	0.0037	79.3	31
0.0015	0.0022	0.0015	0.003	79.3	31
0.0007	0.0007	0.0015	0.0015	79.2	31
0.0022	-0.0015	0.0015	0.0015	79.5	31
0.0015	-0.0023	0.0015	0.003	79.2	31
0.0015	-0.0023	0.0015	0.0022	79.4	31
0.0015	-0.0015	0.0015	0.0037	79.4	31
0.0022	0.0007	0.0007	0.003	79.3	31
0.003	0	0.0007	0.003	79.5	31
0.0015	-0.0008	-0.0008	0.003	79.2	31
0.0007	-0.0015	0	0.0007	79.6	31
-0.0008	-0.0015	-0.0008	-0.0008	79.2	31
-0.0015	-0.0008	0.0007	-0.003	79.8	31
-0.003	-0.0015	0.0015	-0.0008	79.3	31
-0.0015	-0.003	0.0007	-0.0023	79.3	31
-0.0015	-0.003	0.0015	-0.0015	79.5	31
-0.0023	-0.0015	0.0007	-0.0015	79.5	31
-0.0015	-0.003	0	-0.0023	79.5	31
-0.003	-0.0015	0	-0.0008	79.8	31
-0.0023	0.0007	0.0015	-0.0023	79.4	31
-0.003	-0.0008	0.0007	0.0007	79.6	31
-0.0015	0.0015	0.0007	0.0007	79.6	31
-0.0015	0	0.0015	0	79.4	31
-0.0008	-0.0008	0	0.0007	79.6	31
0.0015	-0.0015	-0.0008	0	79.3	31
0.0007	-0.003	-0.0015	0.0037	79.5	31
0.0037	-0.003	-0.0008	0.0022	79.3	31
0.0022	-0.0015	-0.0008	0.0015	79.4	31
0.0015	-0.0008	-0.0015	0.0015	79.5	31
0.0007	-0.0038	-0.0008	0.0022	79.3	31
0	-0.003	-0.0015	0.0037	79.6	31
0.0015	-0.0015	-0.0023	0.0007	79.4	31
0	-0.0015	-0.0008	-0.0008	79.3	31
0	-0.0023	-0.0008	0	79.5	31
-0.0015	-0.0008	-0.0023	-0.0008	79.6	31
-0.0023	-0.0008	-0.0023	-0.0023	79.3	31
-0.0008	-0.0008	-0.003	-0.0015	79.6	31
0	0.0007	-0.0015	-0.0008	79.2	31
0.0015	-0.0023	-0.0008	0.0007	79.7	31
0.0007	-0.0015	-0.0015	0.0015	79.3	31
0	-0.0008	-0.0008	0.0015	79.4	31
-0.0008	0.0007	0.0007	0.003	79.5	31
0.0007	0.0007	0.0007	0.0015	79.3	31
-0.0008	-0.0015	0.0007	0.0015	79.6	31
-0.0008	-0.0008	0	0.0015	79.4	31
0.0007	-0.0015	0.003	0	79.6	31
0.0007	-0.0015	0.006	-0.0008	79.5	31
0.0007	-0.0015	0.0037	-0.0008	79.4	31
0.0015	-0.0015	0.0037	-0.0008	79.6	31
0.0022	0.0015	0.0015	-0.0008	79.6	31
0.003	0.0022	0.0022	0	79.3	31
0.003	0.0015	0.0045	0	79.6	31
0.0015	0.0007	0.0022	0.0007	79.4	31
0.0015	0	0.0007	0.0022	79.5	31
0.0007	0	-0.003	0.0045	79.6	31
0.0015	0.0015	-0.0038	0.0045	79.2	31
0.0015	0.003	-0.0008	0.0052	79.6	31
0.0022	0.0007	0.0007	0.003	79.2	31
0	0	0.0015	0.0007	79.8	31
-0.0008	0	0.0007	0.0015	79.3	31
0.0015	-0.003	-0.0015	-0.0008	79.7	31
-0.0008	-0.003	-0.003	0.0007	79.4	31
-0.0008	-0.003	-0.0046	0.0007	79.6	31
0.0007	-0.0015	-0.0046	0	79.5	31
0.0007	-0.0015	-0.003	0.0007	79.6	31
0.0007	-0.0008	-0.0008	-0.0008	79.5	31
0.0007	0	0.003	-0.0008	79.4	31
0	0.0015	0.0045	0.0015	79.8	31
-0.0008	0.003	0	0.0015	79.5	31
-0.003	0.0015	-0.0015	0.0022	79.8	31
-0.0038	0.0007	-0.0015	0.0022	79.4	31
-0.0023	0.0007	-0.0023	0.003	79.6	31
-0.0015	0	-0.0008	0.0037	79.4	31
0	-0.0008	0	0.0037	79.6	31
0.0007	-0.0015	-0.0008	0.0037	79.7	31
0.0015	-0.0015	-0.0008	0.003	79.4	31
0.0015	-0.0015	-0.0008	0.0037	79.9	31
0.0015	-0.0023	0.0015	0.0015	79.3	31
0.003	-0.0015	-0.0008	0	79.6	31
0.003	-0.003	-0.0008	0	79.6	31
0.003	-0.003	-0.0008	0	79.6	31
0.0015	-0.0038	-0.0008	-0.0015	79.6	31
0.0007	-0.003	-0.0008	-0.0008	79.7	31
0	-0.003	-0.0015	-0.0008	79.5	31
-0.0015	-0.0046	-0.0046	0	79.6	31
-0.0015	-0.0008	-0.0046	0.0015	79.6	31
-0.0015	-0.0008	-0.0046	0.0015	79.5	31
0.0007	-0.0008	-0.0038	0.0015	79.6	31
0.0015	-0.0008	-0.0008	0.0015	79.5	31
0.0015	-0.0008	-0.0023	0.0007	79.8	31
0.0007	-0.0015	-0.0015	0.0037	79.3	31
-0.0015	-0.0015	0.0007	0.003	79.8	31
-0.0015	0	0.003	0.0007	79.5	31
-0.0008	0.0015	0.0022	0.0022	79.6	31
-0.0023	0.003	0.0015	0.0037	79.6	31
-0.003	0.003	0.003	0.0045	79.6	31
-0.0038	0.003	0.0007	0.003	79.6	31
-0.0046	0.0007	-0.0008	0.0037	79.9	31
-0.0038	0.0007	0	0.0022	79.6	31
-0.0023	-0.0008	0	0.003	79.6	31
-0.0008	0	0.0015	0.0037	79.8	31
-0.0008	-0.0008	0.003	0.0022	79.5	31
0	-0.003	0.0022	0.0015	79.8	31
-0.0008	-0.0023	0.0037	0.0022	79.5	31
-0.003	-0.003	0.003	0.003	79.5	31
-0.0046	-0.003	0.003	0.0045	79.6	31
-0.0038	-0.0023	0.0045	0.0052	79.6	31
-0.003	-0.003	0.0045	0.0052	79.8	31
-0.0008	-0.003	0.0045	0.006	79.5	31
-0.0015	-0.0053	0.0045	0.0045	79.8	31
-0.0008	-0.0053	0.003	0.0037	79.6	31
-0.0008	-0.0046	0.0015	0.006	79.6	31
-0.0008	-0.003	0	0.0045	79.6	31
-0.0015	-0.0015	-0.0015	0.0007	79.6	31
-0.0008	-0.0015	0.0007	0	79.4	31
0	-0.0008	-0.0008	0.0007	80	31
0.0007	-0.0008	-0.0015	0.0015	79.4	31
0.0022	-0.0038	-0.0023	0	79.7	31
0.0007	-0.003	-0.003	-0.0015	79.6	31
0.0007	-0.0023	-0.0015	-0.0015	79.8	31
0.0022	-0.0015	-0.003	-0.003	79.7	31
0.003	-0.0008	-0.003	-0.003	79.4	31
0.0022	-0.0015	-0.0023	-0.0023	79.9	31
0.0007	-0.0008	-0.003	-0.0023	79.6	31
0.0022	-0.0015	-0.0023	-0.0015	79.6	31
0.003	-0.0008	-0.0046	0.0007	79.7	31
0.0007	0.0007	-0.003	0.003	79.7	31
0.0007	0.0022	0	0.003	79.6	31
0	0.0037	-0.0008	0.0015	79.7	31
0.0007	0.0022	-0.0008	0	79.5	31
0.0007	0.0037	0	0.0015	79.7	31
0	0.0045	0	0.003	79.6	31
0.0007	0.0037	0.0007	0.0037	79.6	31
-0.0008	0.003	0.0007	-0.0008	79.8	31
-0.0008	0.003	0	0	79.4	31
-0.0008	0.003	-0.0008	0.0015	79.9	31
-0.0015	0.0015	-0.0015	-0.0008	79.4	31
0.0007	0.0007	-0.0008	0.0007	80	31
0.0015	-0.0015	0.0007	0.0007	79.6	31
0.003	0.0007	0.0007	0.003	79.8	31
0.0015	0.0015	-0.0008	0.0045	79.6	31
0	0.0015	-0.0008	0.0037	79.5	31
-0.003	0.0022	0.0015	0.0037	79.8	31
-0.003	0.003	0.0007	0.003	79.8	31
-0.003	0.003	0	0.0045	79.9	31
-0.0046	0.003	-0.0015	0.003	79.8	31
-0.0046	0.0045	-0.0023	0.0022	79.8	31
-0.0015	0.0015	-0.0015	0.0045	79.6	31
0.0007	0.0007	0.0015	0.0052	79.8	31
0.0015	0.0007	0.003	0.006	79.6	31
0.0037	0.0007	0.0015	0.0067	80.1	31
0.0037	-0.0023	0.0007	0.0052	79.6	31
0.003	-0.0046	-0.003	0.0045	80	31
0.003	-0.0046	-0.0015	0.0037	79.6	31
0.003	-0.0053	0	0.0022	79.9	31
0.003	-0.0046	0	0.003	79.7	31
0.0015	-0.0053	0	0.0022	79.6	31
0.003	-0.006	-0.0008	0.003	80	31
0.003	-0.0068	-0.0008	0.0015	79.7	31
0.0015	-0.0075	-0.0008	0.0007	79.6	31
0.003	-0.0038	0	0.0022	79.6	31
0.0015	-0.0046	0	0.0015	79.9	31
0.0007	-0.0053	0.0015	0.0015	79.6	31
0.0007	-0.0053	0.0022	0.0007	79.9	31
0	-0.006	0.0015	0	79.7	31
-0.0015	-0.0053	0.0007	0	79.8	31
-0.003	-0.0015	-0.0008	-0.0023	79.9	31
-0.0023	-0.0008	-0.0015	-0.0015	79.6	31
-0.003	0	0	0	79.9	31
-0.003	-0.0008	0	0.0007	79.6	31
-0.0015	-0.0008	0	0.0015	79.9	31
-0.003	-0.0015	0.0022	0.0015	79.6	31
-0.0015	-0.0038	0.0015	0.0022	79.9	31
-0.0008	-0.0008	0.003	0.0052	79.6	31
-0.0008	-0.0015	0.003	0.003	79.8	31
-0.0008	-0.0008	0.0007	0.003	79.8	31
-0.0008	0.0015	0.0015	0.003	79.9	31
-0.0015	0.0015	-0.0008	0.0015	79.6	31
-0.0015	0.0015	0.0007	0.0045	80.1	31
-0.0015	0.0022	0.003	0.0045	79.5	31
-0.0023	0.0022	0.0007	0.0022	80	31
-0.0015	0.0015	0.0007	0.003	79.6	31
-0.0015	0.0015	0.0007	0.0007	79.9	31
0.0007	0.0022	0.0015	-0.0015	79.9	31
0.0015	0.0022	0.0022	-0.0015	79.8	31
0.0007	0.0015	0.0007	0.0007	79.9	31
0.0007	0.0037	0.0015	-0.0015	79.6	31
0.0015	0.0022	0.0007	0	80	31
0.0015	0.003	0	0.0015	79.7	31
0.0015	0.0015	0.0007	0	79.9	31
0.003	0.0015	0.0007	0.0007	79.7	31
0.0015	0.003	-0.0008	-0.0015	79.7	31
0.0015	0.0007	-0.0015	-0.0015	79.7	31
0.0015	0.0022	-0.0008	-0.0008	80	31
0	0.0022	-0.003	0	79.7	31
0	0	-0.0046	0.0007	79.9	31
0.0007	-0.0015	-0.0015	0.0022	79.9	31
0.0007	-0.0038	-0.0008	0.0022	79.6	31
0.0015	-0.0046	0	0.0007	80	31
0.0007	-0.0038	-0.0008	0.003	79.5	31
-0.0008	-0.0038	0	0.0037	80.1	31
-0.0008	-0.003	-0.0015	0.0015	79.6	31
-0.0008	-0.003	-0.0015	0.0007	80.1	31
0	-0.003	-0.0008	0.0007	79.6	31
-0.0008	-0.0023	-0.0015	0.0007	79.9	31
-0.0015	-0.003	-0.0015	0.0007	80	31
-0.0008	-0.0015	-0.003	0.0007	79.8	31
-0.0008	-0.003	-0.0038	0.0007	79.9	31
-0.0015	-0.0023	-0.003	0.0007	79.8	31
-0.003	0	-0.0023	0.0022	79.9	31
-0.0015	0.0007	-0.0015	0.0045	79.6	31
-0.003	0.0022	-0.0008	0.0037	79.9	31
-0.0038	0.0015	-0.0008	0.003	79.5	31
-0.0023	0.0015	0.0022	0.0052	80.1	31
-0.003	0.0015	0.0022	0.006	79.6	31
-0.0015	0.0007	0	0.003	80	31
-0.0015	0.0015	0.0007	0.003	79.7	31
-0.0008	0.0015	0.0007	0.003	80	31
-0.0008	0.0007	0.0007	0.0022	79.9	31
0.0007	-0.0008	0.0015	0.0015	79.7	31
0.0022	-0.0015	-0.0008	0.0015	80.1	31
0.0007	-0.0015	-0.0023	0.003	79.7	31
0.003	-0.003	-0.0023	0.0022	79.9	31
0.003	-0.0038	-0.0008	0	79.8	31
0.0015	-0.0023	-0.0008	-0.0015	79.8	31
0.0015	-0.0015	-0.003	-0.0015	79.6	31
0.0015	-0.0023	-0.0008	0	79.9	31
0.0015	-0.003	0.0007	0.0015	79.7	31
0.0007	-0.0046	0.0007	0.0022	79.9	31
0	-0.0053	0.0015	0.0007	79.8	31
-0.0015	-0.0053	0.0007	0.0007	79.7	31
-0.0015	-0.0046	0.0015	0.0015	79.9	31
0	-0.0046	0.0015	0.0015	79.7	31
0.0015	-0.0053	0.0015	0.0015	80	31
0.0007	-0.0038	0.0007	0.0022	79.7	31
-0.0008	-0.003	0.0007	0.0007	80.1	31
-0.0015	-0.0008	0.0015	0.0015	79.6	31
-0.0015	-0.0008	0.003	0.003	79.7	31
-0.0015	-0.0015	0.003	0.003	79.8	31
-0.0008	-0.0023	0.0007	0.0037	79.8	31
0	-0.003	-0.0008	0.0052	79.7	31
-0.0015	-0.0008	0.0007	0.0045	80	31
-0.0008	-0.0008	0.003	0.0022	79.5	31
-0.0015	-0.0015	0.0007	0.0007	80	31
-0.0023	-0.0008	0.003	-0.0008	79.8	31
-0.0008	0.003	0.0022	0	79.6	31
-0.0008	0.0037	0.0015	-0.0023	79.8	31
-0.0008	0.0015	0.0015	-0.0023	79.6	31
-0.0008	0.003	0	-0.003	79.8	31
0.0007	0.0015	0	-0.0023	79.6	31
0	0.0015	-0.0015	0	79.9	31
0.0007	0.003	-0.003	0.0007	79.7	31
0.0007	0.003	-0.0038	0.0015	79.7	31
0.0007	0.0037	-0.003	0.0022	79.9	31
-0.0008	0.0015	-0.0023	0.0015	79.7	31
0	-0.0015	-0.0038	0.0015	79.6	31
0.0007	-0.0023	-0.0046	0.0022	79.8	31
-0.0008	-0.0008	-0.0068	0.0022	79.8	31
0.0007	-0.0023	-0.0053	0.003	79.6	31
0.0007	-0.0015	-0.0068	0.003	79.8	31
-0.0008	-0.003	-0.0068	0.0022	79.6	31
-0.0008	-0.0023	-0.003	0.0037	80	31
0.0015	-0.0008	-0.0015	0.003	79.5	31
0.0007	-0.0015	-0.0015	0.003	80.1	31
-0.0008	0.0007	0	0.0045	79.6	31
0.0007	0.0007	0	0.0045	79.9	31
-0.0008	0.0007	0.0007	0.003	79.6	31
-0.0008	-0.0008	0.0015	0.0045	79.7	31
-0.0008	-0.0008	0.0007	0.0045	79.7	31
-0.0008	0	0.0015	0.0045	79.6	31
0	-0.0008	0.003	0.0037	79.7	31
0	0.0007	0.0015	0.0037	79.6	31
0.0007	0.0015	0	0.003	79.7	31
0.0022	0.0022	-0.0008	0.0015	79.6	31
0.003	0.0015	0.0015	0	79.9	31
0.0037	0.0022	0.003	-0.0008	79.6	31
0.0037	-0.0008	0.0045	-0.0023	80	31
0.0045	-0.0015	0.003	-0.003	79.6	31
0.003	-0.0015	0.0022	0.0007	79.9	31
0.0007	-0.0023	0.003	0	79.5	31
0.0015	-0.0023	0.0022	-0.0008	79.7	31
0.0007	-0.003	0.0022	-0.0008	79.8	31
-0.0008	-0.0015	0.0007	-0.0008	79.6	31
-0.0015	0.0007	0.0015	0.0007	79.9	31
-0.003	0	0.0007	0.0007	79.6	31
-0.003	0.0007	-0.0008	0.0022	79.8	31
-0.0015	0.0015	-0.0015	0.0015	79.8	31
-0.0008	0.0015	-0.0015	0.0015	79.6	31
0.0007	0.0015	-0.0015	0.0015	79.8	31
-0.0008	0.0022	-0.0015	-0.0008	79.9	31
-0.0008	0.003	-0.0008	-0.0008	79.6	31
0.0015	0.003	-0.0008	-0.0008	79.9	31
0.003	0.003	0.0015	0	79.6	31
0.0052	0.0007	0.0022	0.0015	79.6	31
0.003	-0.0008	0.003	0.0015	79.8	31
0.0015	0.0007	0.003	0.0007	79.6	31
0.003	0.0015	0.0022	-0.0023	79.9	31
0.0007	0.0015	0.003	-0.0015	79.4	31
-0.0008	0	0	-0.0023	79.9	31
-0.0008	0.0007	-0.0015	-0.0008	79.6	31
-0.0015	0.0007	-0.0015	0.0015	79.9	31
-0.0015	-0.003	-0.0008	-0.0008	79.6	31
-0.0015	-0.0038	0	-0.0008	79.6	31
0	-0.0046	0.0007	0.0007	79.8	31
-0.0015	-0.0038	0.0007	-0.0015	79.6	31
-0.003	-0.0038	0.0015	-0.0008	79.6	31
-0.0015	-0.0038	0.0015	0.0015	79.9	31
-0.003	-0.0008	0.0015	0.0007	79.5	31
-0.0015	0	0.0007	0.0007	79.6	31
0	-0.0008	0.0015	0.0015	79.6	31
0.0007	-0.0015	0.0022	0.0007	79.6	31
0.0007	-0.0015	0.0015	0.0007	79.8	31
0	0	0.0007	0.0007	79.5	31
-0.0008	0.003	-0.0023	-0.0008	79.8	31
0	0.0015	-0.0053	-0.003	79.6	31
0.0007	0.0015	-0.003	-0.0008	79.6	31
-0.0008	0.003	-0.0023	0.0015	79.6	31
0.0007	0.0007	-0.0038	0.0007	79.6	31
0.0015	-0.0008	-0.0023	0.0015	79.6	31
-0.0008	-0.0015	-0.0038	0.003	79.6	31
-0.0023	-0.0023	-0.0038	0.0045	79.7	31
-0.0008	-0.0023	-0.003	0.0045	79.7	31
-0.0008	-0.0015	-0.0015	0.003	79.6	31
-0.0015	-0.0038	-0.0008	0.0052	79.6	31
-0.0015	-0.0038	-0.0015	0.0037	79.7	31
-0.0023	-0.003	0.0022	0.0015	79.4	31
-0.0008	-0.0046	0	0.0022	80	31
0.0007	-0.0053	-0.0015	0.0007	79.5	31
0	-0.0046	-0.0015	0.003	79.9	31
0.0007	-0.003	-0.0015	0.0037	79.6	31
0.0037	-0.0053	0	0.0045	79.7	31
0.003	-0.0053	0.0007	0.006	79.5	31
0.003	-0.0046	0.0015	0.0052	79.6	31
0.003	-0.0023	0.0015	0.0045	79.6	31
0.0015	0	0.003	0.0037	79.5	31
0.0015	0.0007	0.003	0.0037	79.6	31
0.003	0.0007	0.003	0.0007	79.6	31
0.003	-0.0008	0.0015	0	79.7	31
0.003	-0.003	0.0007	0.0007	79.3	31
0.0022	-0.0038	0.0007	-0.0015	79.8	31
0.0007	-0.0023	0.0015	-0.0008	79.5	31
0	-0.003	0.003	-0.0008	79.8	31
0.0015	0	0.003	-0.0008	79.3	31
0.0015	0.0022	0.0015	0.0015	79.7	31
0.0007	0	0.0007	0.003	79.6	31
0.0022	0.0007	0.0007	0.003	79.5	31
0.0015	-0.0008	-0.0008	0.0037	79.7	31
-0.0008	-0.0015	-0.0008	0.003	79.6	31
-0.0015	-0.0015	-0.0008	0.003	79.8	31
-0.0038	-0.003	-0.0008	0.003	79.6	31
-0.0015	-0.0015	0	0.0015	79.5	31
-0.003	-0.0015	0.0007	0.0007	79.6	31
-0.0046	-0.0015	0.0007	-0.0008	79.6	31
-0.0023	-0.0015	0.0007	-0.0015	79.5	31
-0.0046	-0.003	0.0015	-0.0015	79.7	31
-0.0038	-0.0023	0.0007	0.0007	79.6	31
-0.0015	-0.0015	0.0007	0.0015	79.6	31
-0.0008	-0.0015	0.0007	0.0022	79.6	31
0	-0.0015	0.0015	0.003	79.6	31
0.0007	-0.0008	0.0045	0.0022	79.6	31
0.0015	0.0007	0.0015	0.0015	79.4	31
0	-0.0008	0.0022	-0.0008	79.7	31
0.0007	0.0015	0.0022	0.0007	79.3	31
-0.0008	0.003	-0.0008	0.0015	79.9	31
-0.0015	0.0015	-0.0015	0.0015	79.4	31
-0.0015	0.0015	-0.0038	0.0007	79.6	31
-0.0008	0.0007	-0.003	0.0007	79.6	31
-0.0015	0	-0.0023	0	79.5	31
-0.0008	0.0007	-0.0038	-0.0015	79.4	31
-0.0008	0.0015	-0.0015	-0.0008	80	31
0.0007	0.0022	-0.0015	-0.0008	79.5	31
0.0015	0.003	-0.0015	-0.0023	79.6	31
-0.0008	0.0015	-0.0015	-0.003	79.5	31
0.0015	0.0015	-0.0015	-0.0046	79.6	31
0.0015	0.0022	-0.0015	-0.0023	79.6	31
-0.0008	0.0015	-0.0008	-0.0015	79.4	31
-0.0015	0.0007	-0.0015	-0.003	79.7	31
-0.0015	0.0007	-0.0046	-0.0015	79.5	31
-0.0015	0.0022	-0.0023	0	79.7	31
-0.003	0.003	-0.0008	0.0015	79.5	31
-0.0015	0.003	-0.0008	0.0015	79.6	31
-0.0008	0.0007	0	0	79.5	31
0	0	-0.0015	-0.0008	79.6	31
0	0	0.0007	0.0007	79.6	31
-0.003	-0.0015	-0.0008	0.0007	79.6	31
-0.003	-0.0015	0	0.0007	79.6	31
-0.003	-0.0015	0.0015	0.0015	79.5	31
-0.0046	-0.003	0.0007	0.0022	79.6	31
-0.0015	-0.003	0.0015	0.003	79.4	31
0.0007	-0.0038	-0.0008	0.0015	79.9	31
-0.0008	-0.0046	0.0007	0.0015	79.2	31
-0.0008	-0.0046	0.003	0.0015	79.7	31
0.0015	-0.0038	0.0015	0.0022	79.4	31
0.0022	-0.0015	0.0015	0.0037	79.7	31
0	0.0007	0.0015	0.0022	79.4	31
0.0015	0.0007	0.0022	0.0015	79.6	31
0.0022	-0.0008	0.0007	0	79.6	31
0.0015	-0.0015	0.0007	0	79.5	31
0.0015	-0.0015	-0.0015	-0.0008	79.6	31
0.0015	-0.0015	-0.003	-0.0008	79.6	31
0.0022	0.0007	-0.006	0.0015	79.6	31
0.003	-0.0015	-0.006	-0.0008	79.3	31
0.0045	-0.0008	-0.0023	0.0007	79.6	31
0.0015	-0.0008	0	0.0022	79.3	31
-0.0008	-0.003	0.0007	0.003	79.8	31
0.0022	-0.0008	0.0007	0.0015	79.4	31
0.0007	0.0015	0.003	0.0015	79.8	31
-0.0008	0.0007	0.0045	0.0045	79.5	31
-0.0008	-0.0023	0.0037	0.0067	79.6	31
-0.0015	-0.0015	0.003	0.0075	79.6	31
-0.0015	-0.0015	0.0007	0.009	79.4	31
-0.003	-0.0015	0.0007	0.0075	79.7	31
-0.003	-0.0008	0.0007	0.0075	79.3	31
-0.0023	0.0015	0.0007	0.0082	79.6	31
-0.0015	0.0007	0.0007	0.0067	79.5	31
-0.0015	0.0007	-0.0023	0.0067	79.6	31
-0.0015	-0.0008	-0.003	0.0052	79.6	31
0	-0.0015	-0.0023	0.0052	79.6	31
-0.0008	-0.0008	-0.0038	0.0045	79.4	31
-0.0008	-0.0015	-0.0023	0.003	79.7	31
0	-0.0015	0.0015	0.003	79.6	31
0.0022	-0.0015	0.0007	0.0037	79.6	31
0.0007	-0.0008	-0.0008	0.003	79.6	31
-0.0008	-0.0015	0.0007	0.0022	79.3	31
0.0007	-0.0008	-0.0015	0.0015	79.9	31
0	0.0007	-0.0038	-0.0008	79.4	31
0.0015	-0.0015	-0.0015	0	79.6	31
0.0015	-0.0015	-0.0015	-0.0008	79.3	31
0.0015	-0.0038	-0.0023	-0.0023	79.6	31
0.0007	-0.0038	-0.0038	-0.0015	79.5	31
-0.0008	-0.0038	-0.003	-0.0008	79.6	31
0.0007	-0.003	-0.0015	-0.0008	79.5	31
0.0007	-0.0008	-0.0023	-0.0008	79.7	31
0.0015	-0.0008	-0.0008	-0.0008	79.5	31
0.0007	-0.0015	0	-0.0015	79.6	31
0.0015	-0.0015	0.0015	-0.0008	79.6	31
0.0037	-0.0008	0	0.0007	79.6	31
0.003	-0.0008	-0.0015	0.0015	79.6	31
0.0015	-0.0008	0	0.0007	79.5	31
0.0015	-0.0008	-0.0015	0.0007	79.7	31
0.0015	-0.0008	-0.0015	0.0007	79.4	31
0	0	-0.0008	-0.0015	79.6	31
-0.0015	-0.0008	-0.0008	0	79.6	31
-0.0008	0	0	-0.0008	79.5	31
-0.0023	0	0	-0.0015	79.9	31
-0.0023	0	0.0015	0.0015	79.6	31
-0.0023	0.0007	0.003	0.0015	79.5	31
-0.0023	0.003	0.0015	0.0015	79.6	31
-0.0023	0.0045	0.0015	0.0022	79.6	31
-0.0015	0.003	0.003	0.003	79.5	31
0	0.0037	0.006	0.0045	79.7	31
-0.0015	0.0045	0.0067	0.0052	79.3	31
-0.0015	0.003	0.0052	0.0052	79.8	31
-0.0008	0.0015	0.0052	0.0037	79.3	31
-0.0008	-0.0008	0.006	0.0015	79.7	31
-0.0008	-0.0008	0.0037	0	79.5	31
0.0007	-0.0008	0.0007	0	79.7	31
0.0007	-0.0015	0.003	-0.0015	79.6	31
0.0015	-0.0023	0.0015	-0.0015	79.5	31
0.0015	-0.0015	-0.0008	-0.0008	79.9	31
0.003	-0.0008	-0.0023	-0.0008	79.4	31
0.003	-0.0008	-0.003	0.0007	79.6	31
0.0037	-0.0008	-0.0015	0.0015	79.6	31
0.003	0	-0.0015	0.003	79.6	31
0.0015	0.0007	-0.0008	0.0022	79.4	31
0.0015	0.0007	0	0.003	79.8	31
0.0007	0.0007	-0.0008	0.0045	79.3	31
0.0007	-0.0015	0	0.003	79.7	31
-0.0008	-0.003	-0.0015	0.0022	79.5	31
-0.0023	-0.0015	-0.003	0.0007	79.7	31
-0.0008	-0.0008	-0.0015	0	79.6	31
-0.0008	-0.0008	-0.0015	0.0007	79.4	31
-0.0015	-0.0008	-0.0015	0.0015	79.7	31
-0.0008	-0.0015	-0.0023	0.0007	79.4	31
0.0007	-0.003	-0.003	0.0007	79.9	31
0	-0.003	-0.0008	-0.0008	79.5	31
-0.0008	-0.0015	0	-0.0008	79.6	31
-0.0015	-0.0015	-0.0008	-0.0008	79.6	31
-0.0008	-0.0023	-0.0008	-0.0015	79.6	31
0.0007	0	0.0007	0.0007	79.7	31
0.0007	-0.0015	0	0.0007	79.7	31
-0.0015	-0.003	0.0007	0.003	79.8	31
0	-0.0015	0	0.003	79.6	31
-0.0008	-0.0015	-0.0015	0.003	79.8	31
-0.0008	-0.0015	-0.0008	0.0015	79.5	31
0	-0.0015	-0.0023	0	79.9	31
-0.0023	-0.0008	-0.0015	0.0007	79.5	31
-0.003	-0.0015	-0.0015	0.0015	79.8	31
-0.0023	-0.0015	-0.0023	0.0037	79.5	31
-0.0008	-0.0015	-0.0015	0.0007	79.6	31
-0.0008	-0.0015	-0.0015	-0.0015	79.7	31
-0.0008	-0.0015	-0.0023	-0.0015	79.6	31
-0.0008	-0.0015	-0.003	-0.0008	79.7	31
-0.0008	-0.0015	-0.0023	0	79.5	31
0	-0.0015	-0.0015	0.0045	79.6	31
-0.0008	-0.0015	-0.0008	0.0067	79.6	31
-0.0015	-0.0023	-0.0015	0.0045	79.6	31
0	-0.0038	-0.0008	0.0045	79.5	31
0.0007	-0.0038	0.0015	0.003	79.7	31
0.0007	-0.0015	0	0.0037	79.5	31
-0.0008	-0.0015	0.0015	0.003	79.7	31
0.0015	-0.0008	0.003	0.003	79.6	31
0.0022	0.0015	0.0007	0.0045	79.6	31
-0.0008	0.0015	-0.0008	0.003	79.7	31
-0.0015	0.0007	-0.0023	0.0015	79.4	31
-0.0015	0	-0.0008	0.0015	79.9	31
-0.0015	0.0015	0.0007	0	79.3	31
-0.0008	0.0015	-0.0008	0.0007	79.9	31
0.0007	-0.0008	-0.0008	0.0007	79.6	31
0.0015	0.0007	-0.0008	0.0007	79.6	31
0.0022	0.0007	0	0.0052	79.6	31
0.0007	0	0	0.0037	79.6	31
0.0007	-0.0008	0.0015	0.003	79.5	31
0	-0.0008	0.0007	0.003	79.9	31
-0.0008	-0.0023	0.0015	0.003	79.6	31
0.0015	-0.003	0.0037	0.003	79.6	31
0	-0.0046	0.0015	0.003	79.7	31
0	-0.003	0.0022	0.0015	79.5	31
-0.0015	-0.0015	0.003	0	79.7	31
-0.0015	-0.0008	0.0052	0.0007	79.6	31
0.0007	0.0007	0.0045	0.0007	79.6	31
-0.0008	-0.0008	0.003	-0.0008	79.6	31
0	0.0007	0.0007	-0.0008	79.6	31
-0.0008	0.0007	-0.0023	0.0007	79.9	31
0.0007	-0.0008	-0.0023	0.0022	79.6	31
0.003	0.0015	-0.0038	0.0045	79.7	31
0.0022	-0.0008	-0.0046	0.0045	79.6	31
0.0022	-0.0023	-0.006	0.0037	79.6	31
0.0015	-0.0015	-0.0068	0.0037	79.6	31
0.0007	-0.0008	-0.0038	0.0022	79.6	31
-0.0008	0.0015	-0.0023	0.0022	79.5	31
-0.0008	0	-0.0015	0.0022	79.9	31
-0.0008	0.0015	-0.0015	0.0015	79.6	31
-0.0008	0.003	-0.0015	0.0015	80	31
0	0.003	0.0007	0	79.6	31
-0.0008	0.003	0.0015	-0.0008	79.8	31
-0.0008	0.003	0.003	-0.003	79.6	31
0	0.0022	0.0007	-0.003	79.6	31
0	0.0015	0.0022	-0.0023	79.7	31
0.0007	0.003	0.0052	-0.0015	79.5	31
-0.0008	0.0007	0.006	-0.0008	79.7	31
-0.0023	0.0015	0.003	-0.0008	79.6	31
-0.0015	0.0022	0.003	-0.0008	79.6	31
-0.0015	0.0007	0.0045	-0.0008	79.7	31
-0.0015	0.0007	0.0037	0.0007	79.9	31
0.0007	-0.0015	0.0045	0	79.5	31
0.0007	-0.0015	0.0052	0	79.7	31
-0.0008	-0.0015	0.0052	0.0015	79.6	31
-0.0015	-0.003	0.0052	-0.0015	79.6	31
-0.0008	-0.0046	0.0045	-0.0008	79.6	31
-0.0015	-0.0053	0.003	0	79.6	31
-0.0023	-0.0053	0.0015	0.0007	80	31
-0.0008	-0.0068	-0.0008	0.0015	79.5	31
0	-0.0075	-0.0015	0.0007	80	31
0	-0.0091	-0.0038	0.003	79.5	31
0	-0.0091	-0.0053	0.003	79.9	31
-0.0008	-0.0068	-0.0046	0.0045	79.7	31
0	-0.0075	-0.0053	0.0052	79.6	31
-0.0015	-0.0068	-0.0053	0.0045	79.8	31
-0.0023	-0.0038	-0.0046	0.0067	79.6	31
-0.003	-0.0015	-0.0046	0.0067	79.7	31
-0.0015	-0.0015	-0.0038	0.003	79.5	31
-0.0008	-0.0008	-0.0038	0.003	79.9	31
-0.0023	-0.0008	-0.0023	0.0022	79.6	31
-0.0023	-0.0023	-0.0015	0.0007	79.9	31
-0.0023	-0.0023	0	0.0015	79.5	31
-0.003	-0.0023	-0.0008	0.0015	79.9	31
-0.0008	-0.0023	-0.0015	0.003	79.6	31
0.0022	-0.0008	-0.0015	0.0037	79.7	31
0.0037	-0.0008	0.0007	0.0037	79.8	31
0.0022	-0.0023	0.0037	0.0045	79.6	31
0.0015	-0.0023	0.0052	0.003	79.8	31
0.0022	-0.0038	0.0045	0.0007	79.7	31
0.0022	-0.003	0.0015	0	79.9	31
0.0007	-0.0008	0.0007	-0.0008	79.6	31
0.0015	-0.0008	0.0007	-0.0008	79.6	31
0.0037	0.0007	0.0015	-0.0008	79.6	31
0.0015	0.0015	-0.0015	0.0007	79.8	31
0.0022	-0.0008	-0.003	0	79.6	31
0.0022	0.0015	-0.0023	0	79.6	31
0.0022	0.0007	-0.003	0.0007	79.7	31
0.003	0.0007	-0.0023	0.0007	79.5	31
0.003	0.003	-0.0008	0.0007	79.8	31
0.0022	0.0022	-0.0015	-0.0008	79.5	31
0.0007	0.003	-0.0015	-0.0008	80	31
0.0007	0.0007	-0.0008	0.0007	79.5	31
0.0015	-0.0008	-0.0008	0.0007	79.9	31
0.0007	0	-0.0015	0	79.6	31
0.0007	0.0007	-0.0023	0.0007	79.6	31
-0.0008	0.003	-0.0015	0.0022	79.7	31
-0.0023	0.003	0.0015	0.0007	79.6	31
-0.0015	0.0052	0.0007	0.0015	79.6	31
-0.003	0.0052	0.0015	0.0015	79.8	31
-0.0023	0.003	0	0	79.6	31
-0.0023	0.0022	-0.0008	-0.0008	79.7	31
-0.003	0.0015	-0.0008	0.0007	79.7	31
-0.0015	0.0007	-0.0015	0.0015	79.6	31
-0.0023	0.0007	-0.0008	0.0007	79.8	31
-0.0015	0.003	-0.0008	0.003	79.5	31
-0.0015	0.0022	-0.0008	0.003	79.8	31
-0.0015	0.0022	0.0007	0.0022	79.6	31
-0.0015	0.003	0	0.0022	79.6	31
-0.0015	0.0015	0	0.0007	79.7	31
0	-0.0008	0.0015	0.0007	79.6	31
-0.0008	-0.0023	0	0.0007	79.7	31
0.0007	-0.0038	-0.0023	-0.0008	79.6	31
0	-0.003	-0.0015	-0.0008	79.7	31
0	-0.0023	-0.0038	-0.0008	79.8	31
0.0007	-0.003	-0.0023	0	79.8	31
-0.0008	-0.0015	0	0.0007	79.6	31
-0.0008	-0.0015	0.0007	0.0007	80	31
0	0.0007	0.0007	0.003	79.5	31
-0.0008	0	-0.0008	0.0037	79.9	31
-0.0008	-0.0023	0	0.0052	79.6	31
-0.0015	-0.0015	0.0007	0.0045	79.9	31
-0.0008	-0.0015	-0.0008	0.006	79.7	31
0.0007	-0.0008	-0.0008	0.006	79.8	31
0.0007	0	-0.0008	0.0045	79.9	31
0.0007	-0.0015	-0.0015	0.0037	79.5	31
0.0015	-0.0023	-0.0008	0.0015	79.9	31
0.003	-0.0023	0.0015	0.0015	79.8	31
0.0015	-0.0015	0.003	0.0037	79.8	31
0	-0.0008	0.0052	0.003	79.8	31
-0.0008	0	0.0067	0.0022	79.7	31
-0.0015	-0.0008	0.0045	0.0022	79.4	31
-0.0015	-0.0008	0.0037	0.0015	79.9	31
-0.0008	-0.0008	0.0007	0.003	79.6	31
0	0	-0.0008	0.003	79.8	31
-0.0008	-0.0015	0.0015	0.0015	79.6	31
0.0007	-0.0023	0.003	0.003	79.7	31
-0.0008	-0.0008	0.0015	0.0007	79.7	31
0	0.0007	-0.0008	0.0007	79.6	31
0.0007	0.003	-0.0008	-0.0008	79.9	31
0.0007	0.003	-0.0008	0.0007	79.6	31
0.0007	0	0	0.003	79.9	31
0.0015	0.0007	0.0015	0.0015	79.6	31
0.003	0	0.0015	0.003	79.7	31
0.0015	-0.0023	0.0015	0.0037	79.6	31
0.0007	-0.003	0.003	0.0052	79.6	31
-0.0008	-0.0046	0.0015	0.0075	79.6	31
-0.0008	-0.003	0.0015	0.0067	79.6	31
-0.0015	-0.0015	0.0015	0.0052	79.9	31
-0.0023	-0.003	0.0007	0.003	79.6	31
-0.0023	-0.0008	0.0022	0.003	79.8	31
-0.0008	-0.0008	0.0007	0.0015	79.5	31
0.0015	-0.0008	-0.0008	-0.0015	79.8	31
0.0015	0.0022	-0.0008	-0.0008	79.4	31
0.003	0.0015	0	0	79.9	31
0.0022	0.0037	0.0007	-0.0008	79.6	31
0.003	0.003	-0.0008	-0.0008	79.7	31
0.0022	0.0022	-0.0008	-0.0008	79.6	31
0.003	0.0015	-0.0015	0	79.5	31
0.0037	0.0007	-0.0038	0.0007	79.6	31
0.003	-0.0008	-0.003	0.0015	79.7	31
0.0045	-0.0038	-0.0023	0.0015	79.6	31
0.0015	-0.0015	-0.0008	-0.0015	79.7	31
0.0015	-0.003	0	-0.0008	79.6	31
-0.0008	-0.0038	-0.003	-0.0008	79.6	31
-0.0015	-0.003	-0.003	-0.0023	79.6	31
0	-0.0038	-0.003	-0.0015	79.7	31
-0.0008	-0.0046	-0.0053	0.0007	79.8	31
0.0007	-0.0046	-0.0053	-0.0008	79.6	31
0.0007	-0.003	-0.0046	0	79.7	31
-0.0008	-0.003	-0.0015	-0.0008	79.6	31
-0.0008	-0.0038	0	-0.0008	79.6	31
0.0007	-0.003	0.0015	0.0007	79.6	31
0.0015	-0.0015	0.003	-0.0015	79.5	31
0.0007	-0.0008	0.0045	-0.0008	79.8	31
-0.0008	-0.0008	0.0045	0.0007	79.7	31
-0.0023	0.0007	0.0015	0.0022	79.6	31
-0.003	0.0007	-0.0008	0	79.8	31
-0.003	0.0015	-0.0008	0.0007	79.7	31
-0.0038	0.003	0.0007	0.0015	79.6	31
-0.003	0.0045	0.0007	0.0007	79.9	31
-0.0023	0.003	0.0007	0.0007	79.5	31
-0.0046	0.0015	0.0022	-0.0008	79.8	31
-0.0046	0.0022	0.0007	-0.0008	79.5	31
-0.0038	0.0037	0.0007	-0.0008	79.7	31
-0.0008	0.0052	0.0007	0.0007	79.5	31
0.0015	0.0045	0.0007	0.0007	79.6	31
0	0.0045	-0.0008	0	79.6	31
-0.0015	0.003	0.0007	0.0015	79.5	31
-0.003	0.0045	0	0.0007	79.7	31
-0.0015	0.003	-0.0008	0.0015	79.5	31
-0.0015	0	0.0007	0.003	79.8	31
-0.0015	0	0.0007	0.0022	79.6	31
-0.0015	-0.0008	-0.0015	0.0015	79.6	31
-0.0015	-0.0015	-0.0023	0.003	79.6	31
-0.0015	-0.0038	0	0.0045	79.9	31
-0.0008	-0.003	0	0.0037	79.5	31
-0.0008	-0.0038	0	0.003	79.7	31
0.0007	-0.0046	-0.0015	0.0037	79.6	31
0.0015	-0.0023	-0.0015	0.0045	79.7	31
0.0007	-0.0015	0.0007	0.003	79.6	31
0	-0.0038	0.0007	0.0037	79.4	31
0.0007	-0.003	-0.0008	0.0052	79.9	31
0	-0.0015	-0.0015	0.0052	79.3	31
0	-0.0015	-0.0015	0.003	79.9	31
0.0007	-0.0008	-0.0015	0.0015	79.4	31
0.0007	-0.0015	-0.0008	0.0022	79.6	31
0.0015	-0.0023	0.0007	0.0022	79.6	31
0	-0.003	-0.0015	0.0015	79.6	31
0	-0.003	-0.0015	0.0015	79.6	31
0.0007	-0.003	-0.0015	0.0007	79.6	31
-0.0008	-0.0038	-0.0023	0.0015	79.7	31
-0.0008	-0.003	-0.0015	0.0015	79.6	31
0	-0.003	-0.0015	0.003	79.7	31
0.0007	-0.0023	0.0007	0.0045	79.4	31
0.0015	-0.0015	0.0022	0.006	79.9	31
0.0022	-0.0008	0.0007	0.0067	79.4	31
0.0015	-0.0008	0	0.0045	79.8	31
0.0007	0.0007	0	0.0045	79.4	31
0.0007	0.0007	-0.0008	0.0052	79.7	31
0.0015	0.0015	-0.0008	0.0052	79.6	31
0.0022	0.003	0.0015	0.003	79.5	31
0.003	0.0022	0.003	0	79.8	31
0.0022	0.0022	0.003	-0.0015	79.6	31
0.0015	0.003	0.0015	-0.0038	79.5	31
0.0015	0.0015	0.0007	-0.0038	79.6	31
0.0022	0.0007	-0.0008	-0.003	79.6	31
0.0022	-0.0008	-0.0015	-0.0038	79.5	31
0.0015	-0.0038	-0.0008	-0.0023	79.8	31
0	-0.003	0.0007	-0.0015	79.6	31
-0.0008	-0.003	0.0007	-0.0008	79.8	31
-0.0008	-0.0038	0.0007	0.0015	79.5	31
-0.0015	-0.0038	0	0.0015	79.5	31
-0.003	-0.0046	-0.0015	0.0015	79.6	31
-0.0015	-0.0038	-0.0015	0.0015	79.4	31
-0.0023	-0.0038	-0.0008	0.003	79.8	31
-0.0015	-0.0038	-0.0008	0.0015	79.4	31
-0.0023	-0.0046	0.0007	0.003	79.7	31
-0.003	-0.003	0.0022	0.0045	79.5	31
-0.0023	-0.0023	0.003	0.0037	79.6	31
-0.003	-0.0015	0.003	0.0052	79.6	31
-0.0023	0.0007	0.0015	0.003	79.6	31
-0.0015	0	0	0.0007	79.4	31
-0.0015	-0.0038	0.0015	-0.0008	79.7	31
-0.0008	-0.0046	0.0022	-0.0015	79.4	31
0.0015	-0.003	0.003	0.0007	79.8	31
0.0022	-0.0023	0.0015	-0.0008	79.6	31
0.0007	-0.0008	0.0045	-0.0023	79.6	31
0	-0.0015	0.003	-0.0015	79.5	31
0.0007	-0.003	0.0007	-0.0008	79.6	31
0.0022	-0.0008	0.0007	0.0022	79.6	31
0.0022	0.0007	-0.0015	0.003	79.4	31
0.0015	0.0007	-0.0015	-0.0008	79.6	31
0.003	0.003	-0.0023	0.0015	79.6	31
0.0045	0.0037	-0.0038	0.0037	79.6	31
0.0045	0.0045	-0.0015	0.0037	79.6	31
0.0015	0.0052	-0.0015	0.0022	79.6	31
0.0015	0.0045	-0.0008	0.003	79.6	31
0.0007	0.003	0.0007	0.0045	79.6	31
-0.0008	0.0022	0	0.0045	79.4	31
0.0007	0.0022	-0.0008	0.0022	79.7	31
0	0.0022	-0.0008	0.0015	79.6	31
0.0007	0.0007	-0.0008	0.0015	79.4	31
-0.0008	-0.0008	-0.0008	0.0007	79.8	31
-0.0008	-0.0015	-0.0008	0.0007	79.3	31
0	-0.0008	0.0015	0.0007	79.9	31
0	-0.0008	0.0015	0	79.3	31
-0.0015	-0.0015	0.0015	-0.0015	79.8	31
-0.0008	-0.0023	0	-0.0015	79.5	31
0.0007	-0.0046	-0.0015	-0.0008	79.7	31
0	-0.0046	0.0007	-0.0015	79.6	31
0	-0.0046	0	-0.0008	79.6	31
0	-0.0023	0.0015	0	79.6	31
0.0015	-0.0015	0.0007	0	79.6	31
0.0007	-0.003	-0.0015	0	79.6	31
0.0007	-0.0015	-0.0008	-0.0015	79.5	31
0.0007	-0.0023	0.0007	-0.003	79.9	31
0.0007	-0.0023	0.0007	-0.003	79.3	31
0	-0.0015	-0.003	-0.0023	79.8	31
0.0007	-0.0015	-0.003	-0.0015	79.3	31
-0.0008	-0.003	-0.0038	0.0007	79.6	31
-0.0015	-0.003	-0.0023	0.0022	79.4	31
0	-0.0008	0	0.003	79.4	31
0	-0.003	0	0.003	79.6	31
0.0007	-0.0015	-0.0008	0.006	79.3	31
0.0007	-0.0015	-0.0023	0.0067	79.7	31
0	-0.0023	-0.0046	0.006	79.5	31
-0.0008	0.0007	-0.003	0.0075	79.6	31
0	-0.0023	-0.0008	0.0075	79.6	31
0.0007	-0.0046	-0.0008	0.0052	79.5	31
0.0015	-0.0046	-0.0015	0.0052	79.4	31
0.0007	-0.0053	-0.003	0.0052	79.7	31
0.0007	-0.0053	-0.0023	0.003	79.3	31
0.0007	-0.0038	0.0007	0.0015	79.6	31
0.0022	-0.003	0.003	0.0007	79.5	31
0.0022	-0.003	0.0007	-0.0008	79.6	31
0	-0.0008	0.0007	-0.0015	79.6	31
0	0.0007	0.0022	-0.0015	79.5	31
0	0.0015	0.0007	-0.0008	79.7	31
-0.0008	0.0015	0.0007	0	79.3	31
-0.0008	0.003	0	0	79.8	31
-0.0015	0.0022	0.0007	0	79.3	31
-0.0008	0.0022	0.0022	0.0015	79.6	31
0.0007	0.003	0.0022	0.003	79.6	31
0.0015	0.003	0.0015	0.0022	79.6	31
0.0022	0.0045	0.0007	0.0045	79.6	31
0.003	0.003	-0.003	0.0052	79.8	31
0.003	0.0037	-0.0038	0.0045	79.3	31
0.0015	0.0037	-0.003	0.0045	79.6	31
0	0.0037	-0.0008	0.003	79.5	31
-0.0008	0.0045	-0.0008	0.003	79.5	31
0.0007	0.003	-0.0023	0.003	79.6	31
-0.0008	0.0045	-0.0015	0.003	79.4	31
-0.0038	0.0022	0	0.0015	79.6	31
-0.003	0.0007	0.0015	0	79.5	31
-0.0023	-0.0015	0.003	-0.0015	79.6	31
-0.0023	-0.0015	0.0022	-0.0023	79.5	31
-0.0015	0.0007	0.0037	-0.0008	79.6	31
-0.003	0.003	0.0037	-0.0008	79.5	31
-0.003	0.003	0.003	-0.0023	79.5	31
-0.0015	0.0015	0.0045	-0.0015	79.6	31
-0.0023	0.0022	0.003	-0.0008	79.6	31
-0.0015	0.0015	0.003	0.0007	79.5	31
-0.0008	-0.0008	0.0022	0.0015	79.3	31
-0.0015	0.0007	0.0007	0.0022	79.6	31
-0.0008	0	0.0015	0.003	79.4	31
-0.0015	0	-0.0008	0.0045	79.6	31
-0.0015	-0.003	-0.0015	0.0045	79.4	31
-0.0008	-0.0023	-0.0008	0.0045	79.8	31
-0.0008	0	-0.0008	0.003	79.3	31
0	0.0015	0.0007	0.0037	79.5	31
0.0007	0.003	0.0007	0.003	79.5	31
0.0007	0.0007	-0.0008	0.0007	79.5	31
0.0015	0.0015	0	-0.0015	79.5	31
0.0022	0.0007	0.0007	-0.0008	79.6	31
0.003	0	-0.0008	-0.0008	79.6	31
0.003	-0.0015	-0.0015	0.0007	79.6	31
0.0052	-0.003	-0.0008	0.0015	79.6	31
0.0067	-0.0046	0.0007	0.0015	79.4	31
0.0052	-0.0046	-0.0008	0.0015	79.9	31
0.0045	-0.0023	-0.003	0.003	79.2	31
0.0015	-0.0015	-0.003	0.0037	79.6	31
0.0015	-0.0015	-0.003	0.0045	79.5	31
0.0007	-0.003	-0.0023	0.003	79.6	31
0	-0.0046	0	0.0045	79.5	31
0	-0.0046	0	0.003	79.5	31
-0.0008	-0.0053	0	0.003	79.6	31
-0.003	-0.0068	-0.0008	0.0045	79.3	31
-0.0038	-0.0068	-0.003	0.0052	79.8	31
-0.0046	-0.0068	-0.0038	0.0037	79.2	31
-0.0068	-0.0046	-0.0023	0.0022	79.3	31
-0.0068	-0.0008	-0.003	0.003	79.4	31
-0.0068	0	-0.0008	0.0037	79.5	31
-0.0053	0.0022	0	0.003	79.6	31
-0.0038	0.003	0.0007	0.0007	79.6	31
-0.0015	0.003	0.0007	0.0015	79.6	31
-0.0015	0.0022	-0.0008	0.0007	79.4	31
-0.003	0.0015	0.0007	-0.0008	79.6	31
-0.0015	0.003	0.0007	0.0007	79.5	31
-0.0008	0.0037	0.0015	-0.0008	79.6	31
-0.0008	0.003	0.0007	-0.0015	79.3	31
-0.0008	0.003	-0.0008	-0.0008	79.8	31
0.0007	0.003	-0.0015	-0.003	79.2	31
0.0015	0.0007	-0.0008	-0.003	79.8	31
0	-0.0015	-0.0008	-0.0023	79.4	31
0	-0.0015	-0.0008	-0.0008	79.6	31
-0.0008	-0.0023	0.0007	0.0015	79.6	31
-0.0008	-0.0015	-0.0008	-0.0015	79.5	31
-0.0008	-0.0015	-0.0008	-0.0008	79.5	31
-0.0023	-0.0046	0.0015	0.0007	79.6	31
-0.003	-0.0015	0.0015	0.0007	79.4	31
-0.0023	-0.003	-0.0008	0.003	79.5	31
-0.0015	-0.0038	-0.0015	0.0022	79.6	31
-0.0008	-0.0038	-0.0015	0.003	79.3	31
0.0007	-0.0046	-0.0008	0.003	79.7	31
0.0007	-0.003	0.0007	0.0007	79.3	31
0.0007	-0.0038	0.0015	0.0007	79.6	31
0.0015	-0.0046	0.0015	0.003	79.5	31
0.0015	-0.0053	0.003	0.003	79.4	31
0.0015	-0.0046	0.0045	0.003	79.6	31
0.0015	-0.0046	0.0045	0.003	79.3	31
0.0015	-0.0038	0.0045	0.003	79.7	31
0.0015	-0.0015	0.0045	0.0045	79.6	31
0.0015	-0.0008	0.0045	0.003	79.5	31
0.0015	0.0015	0.003	0.0045	79.6	31
0.0007	0.003	0.003	0.0022	79.6	31
0.0007	0.0022	0.003	0.0022	79.3	31
0	0.0022	0.0015	0.0037	79.8	31
0.0007	0.0015	0.0022	0.0022	79.4	31
0.0007	0	0.0022	0.0022	79.8	31
0	-0.0008	0.003	0.0037	79.3	31
0.003	-0.0008	0.0007	0.003	79.6	31
0.0015	-0.0008	0.0007	0.0015	79.4	31
0.003	-0.0008	0.0007	0	79.6	31
0.0022	-0.0015	-0.0023	-0.0008	79.4	31
0.0015	-0.0015	-0.0015	0.0015	79.4	31
0.0022	-0.0008	-0.0015	0.003	79.6	31
0.003	-0.0008	-0.003	0.0015	79.4	31
0.003	-0.0008	-0.0046	0.0015	79.5	31
0.0022	-0.0008	-0.0046	0.0022	79.6	31
0.003	0	-0.003	0.0015	79.4	31
0.0015	0.0007	-0.0015	0.0022	79.4	31
0.0015	-0.0008	-0.0008	0.0037	79.7	31
0.0015	-0.003	-0.0023	0.003	79.3	31
0.0007	-0.0015	-0.0008	0.0015	79.5	31
-0.0008	-0.0008	0.0015	0.0007	79.6	31
-0.0015	-0.0015	0.0007	0	79.6	31
-0.0015	-0.0023	-0.0015	-0.0023	79.6	31
0	-0.0015	-0.0023	-0.0015	79.3	31
-0.0015	-0.0015	-0.003	-0.0008	79.6	31
-0.0015	-0.0008	-0.003	0.0015	79.4	31
-0.0015	0.0015	-0.0015	0.0015	79.7	31
-0.0015	0.0007	-0.0023	0.0007	79.3	31
-0.0008	-0.0008	-0.0023	0.0007	79.6	31
-0.003	-0.0015	-0.0015	0	79.5	31
-0.0038	-0.0015	-0.003	0.0007	79.5	31
-0.0015	-0.0015	-0.0023	0.0007	79.4	31
0.0022	0.0015	-0.0015	0.0007	79.6	31
0.0037	0.0007	-0.0008	0.003	79.6	31
0.0015	-0.0015	-0.0015	0.003	79.5	31
0.003	0.0007	-0.0015	0.003	79.5	31
0.0045	-0.0008	-0.0015	0.0037	79.6	31
0.0022	0	-0.0015	0.003	79.6	31
0.0015	0.0007	-0.003	0.003	79.2	31
0.0022	-0.0008	-0.0008	0.0022	79.7	31
0.0015	0.0007	0.0015	0.0037	79.2	31
0.0007	0.0007	0	0.003	79.7	31
-0.0008	0.0015	0	0.003	79.3	31
-0.0008	0.003	0.0007	0.0022	79.4	31
-0.0023	0.0045	0.0015	0	79.5	31
-0.003	0.0045	0.0022	0	79.5	31
-0.0038	0.003	0.003	0.0007	79.5	31
-0.0046	0.0007	0.003	0.0007	79.6	31
-0.003	-0.0015	0.0007	0	79.5	31
-0.0038	-0.0008	-0.0008	-0.0015	79.4	31
-0.003	-0.0015	-0.0038	0	79.7	31
-0.0008	-0.0015	-0.0008	-0.0008	79.3	31
0.0007	-0.0023	0	-0.0023	79.6	31
0.003	-0.0023	-0.0008	-0.0015	79.3	31
0.0015	-0.0023	0.0007	-0.0023	79.6	31
0.0007	-0.0015	0.0007	-0.0023	79.3	31
0.0015	0	-0.0008	-0.0023	79.5	31
0.0015	0.0007	-0.0015	-0.0015	79.6	31
0.0015	0.0007	-0.0015	-0.0015	79.3	31
-0.0015	-0.0008	0.0007	-0.003	79.7	31
-0.0015	-0.003	0	-0.0015	79.2	31
-0.0015	-0.0023	0.0007	-0.0008	79.6	31
-0.0023	-0.0023	0.0007	0	79.6	31
-0.0015	-0.0046	0	0.0015	79.6	31
-0.003	-0.0046	0.0007	0.0022	79.3	31
-0.003	-0.0053	0.0015	0.003	79.7	31
-0.0023	-0.0053	0.003	0.0015	79.2	31
-0.0008	-0.0038	0.003	-0.0008	79.6	31
0.0007	-0.0015	0.0007	0	79.2	31
0.003	-0.0015	0.0007	0.0007	79.6	31
0.0022	-0.003	-0.0015	-0.0015	79.4	31
0.0007	-0.0008	-0.003	-0.0015	79.5	31
0.0015	-0.0008	-0.0015	-0.0015	79.5	31
0.003	0.0007	-0.0008	-0.0023	79.3	31
0.003	0.0015	0.0007	-0.0008	79.6	31
0.0022	0.0015	0.0007	0.0007	79.4	31
0.0022	0.0015	0.0007	0.0015	79.5	31
0.0015	-0.0008	0.0015	0.0022	79.6	31
0	0.0007	0.0022	0.003	79.4	31
-0.0008	0.0007	0.0015	0.0067	79.4	31
-0.0008	0.0007	-0.0008	0.0067	79.5	31
-0.0008	-0.0015	-0.0008	0.0052	79.5	31
-0.0015	-0.0008	-0.003	0.0052	79.5	31
-0.003	0.0007	-0.003	0.0037	79.5	31
-0.0046	-0.0008	0	0.0052	79.3	31
-0.003	-0.0008	-0.0008	0.0045	79.6	31
-0.003	-0.0023	-0.0015	0.003	79.3	31
-0.0046	-0.003	-0.0008	0.0045	79.7	31
-0.0053	-0.0015	-0.0015	0.0022	79.2	31
-0.0068	-0.0008	-0.0015	0.0015	79.6	31
-0.006	0	-0.0015	0.003	79.4	31
-0.0038	-0.0008	-0.003	0.0015	79.5	31
-0.0046	0	-0.0008	0.0037	79.4	31
-0.0015	-0.0008	-0.0015	0.0037	79.4	31
0.0007	-0.0015	0	0.0022	79.5	31
0.0007	0	0.0007	0.0045	79.5	31
-0.0008	0.0007	0.0007	0.0045	79.4	31
0	-0.0008	0.0015	0.0045	79.5	31
0.0015	0.0007	-0.0008	0.003	79.6	31
0.0015	0	0	0.0007	79.2	31
0.0007	0.0007	-0.0008	0	79.6	31
-0.0008	0.0007	-0.003	0.0015	79.1	31
0	0.0022	0	0.0007	79.6	31
-0.0008	0.003	0.0007	0.0007	79.2	31
-0.0008	0.0022	-0.0008	0.0015	79.4	31
0.0007	0.003	0.0007	0.0007	79.3	31
0.0007	0.0015	0.0022	-0.0008	79.4	31
0.003	0.0007	0.0045	-0.0008	79.4	31
0.0015	-0.0008	0.0045	0	79.3	31
0.0015	0.0015	0.0052	0.0015	79.5	31
0.003	0.0015	0.006	0.0007	79.6	31
0.003	0.003	0.0052	-0.0008	79.4	31
0.003	0.003	0.0052	-0.0008	79.4	31
0.0037	0.0007	0.0045	0.0007	79.5	31
0.0052	-0.0015	0.003	0.0022	79.2	31
0.0052	-0.003	0.0037	0.003	79.5	31
0.003	-0.0008	0.003	0.0022	79.3	31
0.003	-0.003	0.0015	0.0037	79.5	31
0.003	-0.0046	0.0022	0.0052	79.3	31
0.0015	-0.0046	0.0007	0.0045	79.3	31
0.0015	-0.0053	0	0.003	79.5	31
0.0022	-0.0053	-0.0015	0.003	79.2	31
0.0015	-0.0053	-0.0015	0.003	79.6	31
0.0007	-0.0038	-0.0008	0.003	79.2	31
0.0007	-0.0015	-0.003	0.003	79.6	31
-0.0008	-0.0008	-0.0053	0.0015	79.4	31
-0.0008	-0.0015	-0.0068	0.0015	79.3	31
-0.0015	-0.0015	-0.0053	0.003	79.3	31
-0.0015	0	-0.003	0.003	79.6	31
-0.0015	-0.0008	-0.0023	0.003	79.1	31
-0.0038	-0.0015	-0.0023	0.0015	79.6	31
-0.003	0.0007	-0.0015	0.0022	79.2	31
-0.003	0	-0.0015	0.003	79.5	31
-0.003	0.0007	-0.0015	0.0015	79.1	31
-0.0008	0.003	-0.0023	0.0015	79.5	31
-0.0023	0.0015	-0.0008	0.003	79.3	31
-0.0015	0.003	0.0007	0.003	79.2	31
-0.0008	0.0037	-0.0015	0.0007	79.6	31
0	0.0015	0.0015	0	79.3	31
0.0022	0.0022	0.0045	0.0007	79.5	31
0.0022	0.0045	0.0045	0.003	79.5	31
0.0022	0.003	0.0045	0.0015	79.4	31
0.0015	0.003	0.0052	0.0007	79.4	31
0.0022	0.0045	0.0045	0.0022	79.3	31
0.0037	0.0045	0.0022	0.0015	79.1	31
0.0022	0.0022	0.003	0.0022	79.5	31
0.0015	0.0022	0.0007	0.0045	79.2	31
0.0015	0.0015	-0.0008	0.0045	79.4	31
0.0007	0.0022	-0.0008	0.0045	79.3	31
0.0015	0.0015	-0.0008	0.003	79.2	31
0.0007	-0.0008	-0.0015	0.003	79.6	31
0.0015	-0.0023	-0.003	0.0015	79.1	31
0	-0.0015	-0.0008	-0.0008	79.6	31
0.0007	-0.0015	-0.0008	0.0007	79	31
0.0007	-0.0023	-0.0015	-0.0008	79.5	31
0.0015	-0.0008	-0.0015	-0.0023	79.2	31
0.0007	-0.0008	-0.003	-0.0023	79.3	31
-0.0008	-0.0015	-0.003	-0.0038	79.3	31
0.0007	-0.003	-0.003	-0.003	79.5	31
0.0007	-0.0023	-0.003	-0.0015	79.3	31
0.0015	-0.0046	-0.003	-0.0008	79.4	31
0	-0.0068	-0.0008	-0.0015	79.5	31
-0.0015	-0.0068	-0.0015	-0.0015	79.2	31
0	-0.0075	-0.0008	-0.0015	79.6	31
0.0007	-0.0068	0	-0.0008	79.2	31
0	-0.006	0.0007	-0.0015	79.6	31
0	-0.0068	0.0015	-0.0015	79.1	31
0.0007	-0.0068	0.0022	-0.0015	79.5	31
0	-0.0053	0.0022	0	79.2	31
-0.0008	-0.0053	0.003	0.0007	79.6	31
-0.0015	-0.003	0.0015	0.0015	79.2	31
-0.0015	-0.0015	-0.0008	0.0022	79.3	31
-0.0015	-0.0015	-0.0008	0.0022	79.5	31
-0.0015	0	-0.0015	0.003	79.4	31
-0.0015	-0.0008	-0.0015	0.003	79.2	31
-0.0023	0.0007	-0.0015	0.0015	79.3	31
-0.0038	0.0015	0.0007	0.0007	79.4	31
-0.003	-0.0008	0.0007	0	79.2	31
-0.0023	-0.0015	-0.0015	-0.0015	79.4	31
-0.0038	0	-0.0008	0.0007	79.2	31
-0.003	0.0007	-0.0008	0.0015	79.5	31
-0.0008	0.0007	0	0.0015	79.4	31
-0.0008	-0.0008	-0.0008	0.0015	79.4	31
-0.0008	-0.0015	-0.0008	0.0007	79.5	31
0	-0.0015	0	0.0015	79.2	31
0.0007	-0.0008	-0.0023	0.003	79.5	31
0.0015	0.0007	-0.0046	0.003	79.1	31
0.0022	-0.0008	-0.0046	0.0052	79.6	31
0.0022	-0.0015	-0.003	0.006	79.2	31
0.0015	-0.003	-0.0023	0.0045	79.3	31
0.0015	-0.0023	-0.0015	0.006	79.4	31
0.0015	-0.0008	0	0.0067	79.4	31
0.003	-0.0008	0.0007	0.0052	79.1	31
0.0015	0.0007	0.0015	0.0022	79.6	31
0	0.0007	0.0022	0.0007	79.2	31
0.0007	-0.0008	0.0045	0.003	79.6	31
0.0007	-0.0008	0.0037	0.0022	79.3	31
0.0007	0.0015	0.0007	0.0015	79.5	31
-0.0008	0.0007	-0.0008	0.0022	79.5	31
-0.0008	-0.0023	-0.0023	0.0007	79.3	31
0.0007	0.0007	-0.003	0.0015	79.5	31
-0.0008	0.003	-0.0046	0.003	79.1	31
-0.0008	0.0015	-0.003	0.003	79.3	31
-0.0008	0.0022	-0.0023	0.0015	79.3	31
-0.0008	0.0015	-0.0038	0.0022	79.3	31
-0.0008	0.0015	-0.003	0.003	79.4	31
0.0015	0	-0.0038	0.0015	79.3	31
0.0007	0.0015	-0.0008	0.0015	79.4	31
-0.0015	0	0	0.0022	79.5	31
-0.0015	-0.0008	0.0007	0.0015	79.3	31
-0.0023	-0.0015	0.0015	0.0007	79.4	31
-0.0023	-0.0015	0.0022	0.0007	79.6	31
-0.003	-0.0008	0.0045	0.0015	79.2	31
-0.003	-0.003	0.0045	0.0015	79.6	31
-0.0023	-0.0015	0.0037	0.0022	79.2	31
-0.0015	-0.0008	0.003	0.003	79.6	31
-0.0008	-0.0015	0.0022	0.0015	79.3	31
0.0007	-0.0015	0.0007	0.0007	79.6	31
0.0007	-0.0023	0.0015	0.0022	79.4	31
0	-0.0008	0.0022	0.0037	79.3	31
0.0007	0.0007	0.0015	0.0015	79.5	31
0.0007	0.0015	0.0022	0.0007	79.4	31
0	0.003	0.0015	-0.0008	79.3	31
-0.0015	0.0007	-0.0008	-0.0008	79.4	31
-0.0023	-0.0008	-0.0008	0.0007	79.7	31
-0.003	-0.0008	0.0007	0.0022	79.3	31
-0.0046	-0.0008	0	0.0015	79.6	31
-0.0023	0.0007	0.0015	0.0015	79.3	31
-0.0015	-0.0008	0.0015	0.0037	79.5	31
-0.0038	0.0015	0.0007	0.003	79.5	31
0	0.0007	0.0022	0.0037	79.4	31
0.0015	0.0015	0.003	0.0037	79.6	31
0	0	0.0037	0.0015	79.3	31
-0.0008	-0.0015	0.0037	0.0015	79.6	31
-0.0008	-0.0008	0.0045	0.0015	79.2	31
-0.0015	-0.0046	0	0.0015	79.9	31
0	-0.0046	0	0.0015	79.5	31
0.0007	-0.0053	0	-0.0008	79.6	31
0	-0.0038	-0.0015	-0.0015	79.4	31
0.0007	-0.003	-0.003	-0.003	79.6	31
0.003	-0.0015	-0.0023	-0.003	79.4	31
0.0015	-0.0015	-0.003	-0.0008	79.6	31
0.0022	-0.0008	-0.0038	0.0007	79.6	31
0.0052	0	-0.003	0.0007	79.5	31
0.003	-0.0008	-0.0023	0.0015	79.7	31
0.0037	-0.0015	-0.0015	0.0007	79.5	31
0.0045	-0.0015	-0.0046	0.0015	79.8	31
0.0045	0	-0.0015	0.0007	79.3	31
0.0037	0	0.0007	0.0007	79.9	31
0.003	0.0007	-0.0008	0.0007	79.5	31
0.0045	0.0015	-0.0008	0.0015	79.9	31
0.0037	0.0007	-0.0023	0.0015	79.6	31
0.0045	-0.0008	-0.003	-0.0008	79.7	31
0.0045	-0.0008	-0.0015	-0.0023	79.7	31
0.0037	-0.0015	0	-0.0015	79.6	31
0.0037	0.0007	0.0015	-0.0015	79.6	31
0.003	0.0015	0.0022	-0.003	79.8	31
0.003	0.0022	0.003	-0.003	79.8	31
0.0007	0.003	0.0045	-0.0046	79.7	31
0.0015	0.0022	0.0037	-0.003	79.9	31
0.0007	0.003	0.003	-0.0023	79.7	31
0.0007	0.003	0.0022	-0.0008	79.9	31
0.0022	0.003	0.0015	0	79.7	31
0.0015	0.003	0.0007	-0.0008	79.7	31
0.0015	0.0007	0.0015	0.0022	79.9	31
0.0015	-0.0015	0.0007	0.003	79.7	31
0.0022	-0.003	-0.0008	0.0007	79.9	31
0.0015	-0.0053	-0.0015	0.0022	79.6	31
0.0007	-0.0046	-0.0015	0.003	79.9	31
0.0007	-0.0015	-0.0008	-0.0008	79.8	31
0.0007	-0.0008	0	-0.0008	79.9	31
0.0007	0.0007	-0.0008	-0.0008	79.9	31
-0.0008	-0.0008	-0.0023	0.0015	80	31
-0.0015	0	-0.003	0.0015	79.7	31
-0.0038	0	-0.0015	0.003	80.1	31
-0.0038	-0.0015	-0.0023	0.0045	79.8	31
-0.0053	-0.003	-0.0015	0.0052	80.1	31
-0.0053	-0.0038	0.0007	0.0052	79.9	31
-0.0046	-0.0023	0.0007	0.0052	80	31
-0.003	-0.0015	0.0007	0.0052	80	31
-0.0023	0	0.0015	0.0067	79.8	31
-0.003	0.0007	0.0015	0.0075	80.1	31
-0.0008	-0.0015	0.0007	0.0075	79.9	31
-0.0023	0	0.0007	0.0067	80.1	31
-0.0015	0.0007	0.0015	0.0045	80.1	31
-0.0015	0.0007	0.003	0.0037	79.9	31
-0.0008	0.0022	0.0015	0.003	79.9	31
-0.0008	-0.0008	0.0007	0.0015	80	31
-0.003	-0.0023	0.0015	0.003	79.9	31
-0.0046	-0.003	0.0007	0.0037	80.2	31
-0.0046	-0.0023	-0.0023	0.003	79.9	31
-0.0046	-0.0015	-0.003	0.0037	80.1	31
-0.0038	0.0015	-0.0038	0.0045	80.1	31
-0.003	0.0015	-0.0023	0.0052	80	31
-0.0015	0.0007	-0.0008	0.0067	80.2	31
0.0007	0.0015	-0.0015	0.0082	79.8	31
0.003	0.0007	-0.0008	0.0075	80.2	31
0.0022	0.0015	-0.0015	0.0067	79.9	31
0.0015	0.0007	-0.0015	0.0045	80.4	31
0.0022	0.0007	-0.0008	0.0015	79.9	31
0.0022	0.0015	0	0.0015	80.1	31
0.0007	0.0007	0.0007	0.0015	80.1	31
0.0015	0	0.0015	0	80.3	31
0.0007	-0.0008	0.0015	-0.0015	80.1	31
-0.0015	-0.0015	-0.0008	-0.0008	80.1	31
0	0	0	0.0007	80.4	31
-0.0008	-0.0008	-0.0023	-0.0008	80	31
-0.0008	-0.0008	-0.0023	-0.0008	80.5	31
-0.0008	-0.0015	0.0007	-0.0015	80.1	31
-0.0008	-0.0015	-0.0008	-0.0038	80.5	31
-0.0008	-0.0008	-0.0015	-0.0008	80	31
0.0015	-0.0015	-0.0015	-0.0008	80.2	31
0.0015	-0.0008	-0.0008	-0.0008	80.2	31
0.0022	-0.0046	-0.003	-0.0008	80.2	31
0.0022	-0.0053	-0.0015	-0.0015	80.3	31
0.0007	-0.003	-0.0008	-0.0008	80.1	31
0.0015	-0.003	-0.0008	0	80.3	31
0.0022	-0.003	0.0015	0	80.3	31
0.0022	-0.003	0.003	-0.0015	80.4	31
0.003	-0.0023	0.0022	0	80.4	31
0.003	-0.0015	0.0015	0.0007	80.5	31
0.0007	-0.0008	0.0015	0.0007	80.1	31
-0.0015	-0.003	0.0015	0.0007	80.4	31
-0.0008	-0.003	0.003	0.0007	80.4	31
-0.0015	-0.0038	0.0045	0	80.3	31
-0.003	-0.0046	0.0015	0.0007	80.5	31
-0.0038	-0.0015	-0.0008	0.0007	80.2	31
-0.003	-0.0023	-0.0008	0.0022	80.5	31
-0.0015	-0.0008	-0.0008	0.0015	80.2	31
-0.0015	0	0	0.0007	80.5	31
-0.0008	0.0007	0.0007	0.0015	80.1	31
-0.0008	0.0022	0.0015	0.003	80.5	31
-0.0008	0.0015	0.0015	0.003	80.2	31
0.0007	0.0015	0.0007	0.0007	80.2	31
-0.0008	0.0007	0.0007	0.0015	80.3	31
0.0007	0.0007	0	0.0022	80.5	31
0.0007	0	0.0015	0	80.2	31
-0.0008	0	0.0045	-0.0015	80.4	31
-0.0053	0.0007	0.003	-0.0015	80.3	31
-0.0075	0.003	0.0015	-0.0008	80.4	31
-0.0038	0.0007	0.0015	-0.0023	80.6	31
-0.0015	-0.0008	-0.0008	-0.0008	80.4	31
-0.0008	0.0015	-0.0015	0.0015	80.5	31
-0.0008	0	-0.0023	0.0022	80.3	31
-0.0008	-0.0008	-0.003	0.003	80.5	31
-0.0015	0	-0.003	0.0015	80.5	31
-0.0023	-0.0008	-0.0015	0.0015	80.3	31
0.0007	-0.0015	0.0007	0.0015	80.6	31
0.0015	-0.0046	-0.0015	0.0045	80.5	31
0.0007	-0.0015	-0.0015	0.003	80.5	31
0.0007	-0.0046	-0.0015	0.003	80.5	31
-0.0015	-0.006	-0.0015	0.0037	80.3	31
-0.0008	-0.0046	-0.0008	0.003	80.5	31
-0.0008	-0.0046	-0.0008	0.003	80.5	31
-0.0008	-0.003	0.0007	0.0022	80.2	31
0	-0.0053	0	0.0015	80.6	31
0.0007	-0.0046	-0.0023	0	80.2	31
0.0007	-0.0046	-0.0023	0.0007	80.5	31
-0.0008	-0.0053	-0.0023	0.0015	80.4	31
0	-0.0046	-0.0015	0.0007	80.6	31
-0.0015	-0.0023	0	0	80.5	31
-0.0015	-0.0008	0.0007	0.0015	80.4	31
-0.0015	0	0.0007	0.0022	80.6	31
-0.0008	0.0007	0.0007	0.0015	80.4	31
0.0007	0.0007	-0.0015	0.0015	80.6	31
0	0.0007	-0.0015	0.0007	80.5	31
-0.0008	0.0007	-0.0015	0	80.4	31
-0.0015	0.0007	-0.0015	0.0007	80.4	31
0	0	-0.0008	0.0007	80.8	31
0.0007	0.0007	-0.0015	0.003	80.3	31
0.0015	0	-0.0008	0.003	80.6	31
0.0007	0.0015	0.0015	0.0015	80.4	31
0	0.0015	0.003	0.0007	80.5	31
0.0007	0.0015	0.003	0.0007	80.7	31
0.0015	0.0015	0.0015	0	80.5	31
0.0022	0.0015	0.0007	-0.0008	80.7	31
0.003	0.0015	0.0015	-0.0008	80.4	31
0.003	0.0015	0.0015	0.0007	80.6	31
0.0015	0.003	0.0015	0.0015	80.4	31
0.0015	0.0015	0.0015	0.0015	80.5	31
0	0	0.0015	0.003	80.5	31
-0.0008	0.0015	0.0037	0.0045	80.7	31
0.0015	0.0022	0.0037	0.0052	80.5	31
0.0007	-0.0008	0.0037	0.0067	80.6	31
0	-0.0008	0.0015	0.0067	80.7	31
-0.0008	-0.0015	0.0015	0.006	80.5	31
-0.0008	-0.0008	0.0007	0.0067	80.8	31
0.0007	0.0007	-0.0008	0.006	80.5	31
0.0015	-0.0008	-0.0015	0.006	80.7	31
0.0015	-0.0008	-0.0046	0.0075	80.4	31
0.0015	0.0007	-0.0068	0.0052	80.8	31
0.003	0	-0.0068	0.003	80.5	31
0.0037	0.0015	-0.0083	0.0022	80.8	31
0.0037	-0.0008	-0.0075	0.0015	80.5	31
0.0037	-0.0015	-0.0068	0.0007	80.7	31
0.0037	-0.0023	-0.006	0.003	80.8	31
0.0022	-0.0015	-0.003	0.003	80.6	31
0.0007	-0.0015	-0.0008	0.0045	80.6	31
0.0007	-0.0008	-0.0015	0.003	80.6	31
0.0007	0.0007	-0.0015	0.0015	80.5	31
0.0007	-0.0008	0.0022	0.0007	80.8	31
0	-0.0008	0.0052	0	80.7	31
-0.0008	-0.0008	0.0052	0.0007	80.6	31
-0.003	-0.0015	0.0045	-0.0008	80.8	31
-0.0015	0.0007	0.0037	0.003	80.5	31
-0.0023	0.0037	0.0022	-0.0008	80.9	31
-0.003	0.0037	0.0015	-0.003	80.6	31
-0.0015	0.0022	0.0007	-0.003	80.6	31
-0.003	0.0015	0.0007	-0.0038	80.8	31
-0.0023	0.0015	0.0015	-0.0023	80.5	31
-0.0015	0	0.0022	-0.0008	80.8	31
-0.0015	-0.0023	0.003	-0.0023	80.6	31
-0.0023	-0.003	0.003	-0.003	80.6	31
-0.0023	-0.0023	0.003	-0.0008	80.7	31
-0.003	-0.0046	0.0022	-0.0008	80.6	31
-0.003	-0.0053	-0.0015	0.0007	80.6	31
-0.0023	-0.0053	-0.003	0.0022	80.7	31
-0.0015	-0.0053	-0.0008	0.0022	80.5	31
-0.0015	-0.0038	0.0015	0.0022	80.9	31
-0.0015	-0.003	0.0007	0.0015	80.5	31
-0.0023	0	0	0.0007	81	31
-0.0038	0.0007	0	-0.0008	80.5	31
-0.0053	0	-0.0015	-0.0008	80.8	31
-0.0015	0	-0.0008	-0.0008	80.6	31
0.0007	0.0015	-0.0008	0.0015	80.8	31
0.0015	0.003	-0.0015	0.0007	80.7	31
0.0015	0.0015	-0.003	0.0007	80.6	31
0.0015	0	-0.0046	0.003	80.9	31
0.0022	0.0007	-0.0046	0.003	80.6	31
0.0015	0.0015	-0.0053	0.003	80.6	31
0.003	0.003	-0.0046	0.003	80.8	31
0.0015	0.003	-0.0015	0.0037	81	31
0.0015	0.0022	-0.0015	0.0045	80.5	31
0.0007	0.0022	-0.0015	0.0052	80.9	31
0.0007	0.0022	-0.0008	0.0067	80.6	31
0.0007	0.0037	0.0007	0.0067	80.7	31
0.003	0.0015	0.0007	0.0045	80.8	31
0.0037	-0.0008	0.0007	0.0007	80.5	31
0.003	-0.0008	0.0007	-0.0008	80.9	31
0.003	-0.003	0.003	-0.0008	80.4	31
0.0037	-0.0038	0.0022	-0.0008	80.9	31
0.003	-0.0053	0.0015	-0.0015	80.4	31
0	-0.006	0.0037	-0.0015	80.8	31
-0.0015	-0.0068	0.0015	-0.0023	80.7	31
-0.0008	-0.0068	0.003	-0.0038	80.7	31
-0.0008	-0.0083	0.0052	-0.003	80.5	31
-0.0023	-0.0083	0.0045	-0.0015	80.7	31
-0.0015	-0.006	0.0045	-0.0015	80.5	31
-0.0015	-0.0068	0.0045	-0.003	80.5	31
-0.003	-0.0046	0.0052	-0.0015	80.7	31
-0.0015	-0.0015	0.0037	-0.0015	80.5	31
-0.0015	-0.0008	0.003	0.0007	80.9	31
-0.0023	0.0007	0.0022	0.0015	80.5	31
-0.003	0	0.0007	-0.0008	80.9	31
-0.0046	0.0007	0.0007	0.0015	80.4	31
-0.0038	0.0015	0.0015	0.0015	80.7	31
-0.003	0.003	0.0007	0.003	80.5	31
-0.0015	0.003	0.0007	0.0022	80.6	31
0.0007	0.0015	0.0007	0.003	80.7	31
0.0015	0.0007	0.0007	0.0052	80.5	31
0.0007	0.0015	0.0015	0.0052	80.5	31
0.0015	0.0015	-0.0008	0.0037	80.6	31
0.0022	0.0022	-0.0023	0.0015	80.6	31
0.0045	0.0037	-0.003	0	80.4	31
0.0052	0.0015	-0.003	0.0015	80.8	31
0.0045	0.0007	-0.0015	0.0015	80.4	31
0.0052	0.0007	-0.003	0.0015	80.7	31
0.0045	0	-0.0023	0.0015	80.5	31
0.0052	-0.0008	-0.0023	0.0007	80.7	31
0.0037	-0.0023	-0.003	0.0007	80.8	31
0.0015	-0.0038	-0.0023	0.0015	80.5	31
-0.0008	-0.0023	-0.003	0.0015	80.8	31
-0.0015	-0.0038	-0.003	0.003	80.5	31
-0.0015	-0.003	-0.0015	0.003	80.8	31
-0.0015	-0.0015	-0.0008	0.0037	80.4	31
-0.0023	-0.003	0.0007	0.0045	80.5	31
-0.0023	-0.003	0.0015	0.006	80.5	31
-0.0008	-0.0053	0.0007	0.006	80.8	31
0.0007	-0.0053	0.0007	0.0037	80.5	31
0.0007	-0.006	0.0007	0.003	81	31
0.003	-0.0068	0.0007	0.0022	80.3	31
0.003	-0.0083	0.0022	0.003	80.7	31
0.0045	-0.0091	0.0015	0.0022	80.5	31
0.0037	-0.0083	0.0022	0.003	80.5	31
0.0037	-0.0075	0.0037	0.0052	80.6	31
0.003	-0.0046	0.0015	0.0067	80.3	31
0	-0.0038	0.0022	0.0052	80.6	31
-0.0008	-0.003	-0.0015	0.0022	80.5	31
0.0007	-0.0023	-0.003	0.0007	80.5	31
0	-0.0008	-0.003	0.0007	80.5	31
-0.0008	0.0015	-0.0046	0.003	80.4	31
-0.0015	0.0022	-0.0038	0	80.6	31
-0.0008	0.0022	-0.0053	-0.0008	80.5	31
0.0007	0.0015	-0.006	0.0007	80.4	31
0.0007	0.0022	-0.0075	0.0007	80.5	31
-0.0008	0.003	-0.006	0.0015	80.5	31
0.0007	0.0015	-0.0038	-0.0015	80.3	31
-0.0008	-0.0008	-0.0046	-0.0015	80.6	31
0.0007	0	-0.0038	0	80.3	31
0.0015	0.0022	-0.003	0.0022	80.7	31
0.0022	0.0052	-0.003	0.0037	80.4	31
0.0007	0.0045	-0.0015	0.003	80.7	31
-0.0015	0.0045	-0.0008	0.0022	80.5	31
-0.0008	0.0045	-0.0015	0.0022	80.5	31
-0.003	0.003	-0.0008	0.0015	80.5	31
-0.0053	0.0045	0.003	0.0022	80.5	31
-0.006	0.0045	0.003	0.0015	80.6	31
-0.0053	0.003	0.0015	0.003	80.5	31
-0.0046	0.0007	0.0015	0.0037	80.5	31
-0.003	0.0007	0.003	0.0015	80.6	31
-0.003	0.0007	0.0045	-0.0008	80.5	31
-0.003	0.0015	0.003	-0.0008	80.3	31
-0.003	0.0015	0.003	0.0007	80.8	31
-0.0038	0.003	0.0022	0.0015	80.3	31
-0.0038	0.0052	0.003	0.0007	80.5	31
-0.003	0.006	0.0045	0.0007	80.4	31
-0.0008	0.0067	0.0037	0.003	80.5	31
-0.0008	0.0052	0.0015	0.003	80.6	31
-0.0008	0.0037	-0.0008	0.0037	80.4	31
0	0.0045	-0.0008	0.0045	80.7	31
-0.0015	0.0052	-0.0008	0.0045	80.1	31
-0.003	0.0045	-0.0008	0.0022	80.6	31
-0.0023	0.003	0	0.0015	80.3	31
-0.0008	0.0015	0.0007	0.0015	80.5	31
-0.0008	-0.0008	0	-0.0008	80.4	31
-0.0015	-0.003	0.0007	-0.0015	80.6	31
-0.0023	-0.0046	0.0015	-0.0015	80.6	31
-0.0015	-0.0053	0.0007	-0.0008	80.6	31
-0.003	-0.006	0.003	0.0007	80.5	31
-0.0015	-0.0068	0.0022	0.0007	80.5	31
-0.0015	-0.0068	0.003	0.0007	80.5	31
-0.0015	-0.0053	0.0015	-0.0015	80.4	31
0.0007	-0.0053	0	-0.0015	80.8	31
0.0007	-0.006	0	-0.003	80.1	31
0.0015	-0.0053	-0.0023	-0.0023	80.7	31
0.0015	-0.0046	-0.0008	-0.0015	80.4	31
0.0015	-0.0053	-0.0023	-0.0046	80.6	31
0.0015	-0.006	-0.0015	-0.0008	80.5	31
0.0015	-0.0053	0.0007	-0.0015	80.4	31
0.0045	-0.0038	0.0007	-0.0008	80.5	31
0.003	-0.003	0.0037	0	80.5	31
0.0045	-0.003	0.003	-0.0023	80.6	31
0.0045	-0.003	0.0007	0.0015	80.6	31
0.0037	-0.0046	0.0007	0.003	80.5	31
0.0052	-0.0053	0	0.0015	80.5	31
0.0037	-0.0046	0.0007	0.003	80.5	31
0.0037	-0.0008	0.0007	0.0007	80.3	31
0.0045	0.0007	0.0015	-0.0008	80.7	31
0.0045	0.0015	-0.0008	-0.0015	80.3	31
0.0045	0.003	-0.0015	-0.0023	80.7	31
0.0052	0.003	0	-0.0038	80.6	31
0.0045	0.0037	0.0007	-0.0046	80.5	31
0.0045	0.0045	0.0015	-0.0046	80.8	31
0.0022	0.0052	-0.0008	-0.0053	80.5	31
0.0007	0.0045	-0.0015	-0.003	80.8	31
-0.0008	0.0045	0.0007	-0.003	80.5	31
-0.0015	0.0015	0.003	-0.003	80.5	31
-0.003	0.003	0.0045	-0.0015	80.6	31
-0.0053	0.003	0.003	0	80.6	31
-0.0046	0.0007	0.0015	0.0037	80.2	31
-0.006	0.0015	0.0007	0.0052	80.8	31
-0.0068	0.0007	0.0015	0.0037	80.3	31
-0.0068	0.0015	0	0.0045	80.8	31
-0.0068	0.0015	-0.003	0.0045	80.5	31
-0.0038	0.0015	-0.0046	0.0045	80.5	31
-0.003	0.003	-0.0053	0.0045	80.5	31
-0.0015	0.0015	-0.0046	0.0067	80.5	31
-0.0015	0	-0.0038	0.0075	80.5	31
-0.0015	-0.0015	-0.0023	0.0067	80.5	31
-0.0015	-0.0023	-0.0023	0.0075	80.6	31
-0.0008	-0.0015	-0.003	0.0045	80.5	31
0	-0.0023	-0.0038	0.0022	80.6	31
0.0007	-0.0015	-0.003	0.0022	80.5	31
0.0015	-0.0015	-0.003	0.0022	80.6	31
0.0015	-0.0015	-0.0046	0.0045	80.4	31
0.0007	-0.0008	-0.0046	0.0052	80.6	31
0	0	-0.0053	0.0067	80.5	31
0	-0.0008	-0.003	0.0067	80.5	31
0.0015	-0.0008	-0.003	0.0067	80.6	31
0.0007	-0.0008	-0.0046	0.0052	80.4	31
0.0007	-0.0015	-0.0008	0.0037	80.7	31
0.0015	-0.0008	0.003	0.0022	80.5	31
0.0015	0.0007	0.003	0.0015	80.8	31
0.0015	0.0007	0.003	0.003	80.3	31
0.0015	-0.0008	0.0045	0.0045	80.8	31
0.0015	0	0.0037	0.006	80.4	31
0.0022	-0.0015	0.0037	0.0037	80.7	31
0.0015	-0.003	0.0045	0.0022	80.8	31
0.0007	-0.0046	0.0037	0.003	80.7	31
0	-0.0046	0.0037	0.003	80.7	31
-0.0008	-0.0053	0.0045	0.0015	80.6	31
-0.0015	-0.0046	0.003	0.0015	80.8	31
-0.0008	-0.003	0.0037	0.0037	80.4	31
-0.0015	-0.0038	0.0037	0.0007	80.9	31
-0.0015	-0.0015	0.0007	0.0007	80.5	31
-0.0015	-0.0023	0	0.0015	81	31
-0.003	-0.0046	0	0.0015	80.5	31
-0.0015	-0.003	0.0015	0.0045	80.8	31
0.0007	-0.0008	0.0007	0.006	80.5	31
0.0007	0.0007	0.0015	0.0037	80.9	31
0.0015	-0.0008	0.0045	0.003	80.6	31
0.003	-0.0008	0.0067	0.003	80.7	31
0.0015	-0.0023	0.0052	0.0015	80.8	31
0.0015	-0.0023	0.0015	-0.0015	80.8	31
-0.0008	-0.0023	0	-0.0008	80.8	31
0	-0.0015	-0.0008	0.0007	80.8	31
0.0007	0	-0.0023	0.0007	80.5	31
-0.0008	0.0007	-0.0046	0.0007	80.7	31
-0.0008	0.0015	-0.0023	0	80.8	31
-0.0008	-0.0015	-0.0015	0.0007	80.5	31
-0.0008	-0.0008	-0.0046	0	80.8	31
0	-0.0008	-0.0015	0.0007	80.5	31
0	-0.0023	-0.0008	-0.0008	80.8	31
-0.0008	-0.003	-0.003	-0.0023	80.7	31
0	-0.0046	-0.0046	-0.0015	80.7	31
0.0007	-0.003	-0.0038	-0.0008	80.8	31
0.0007	-0.003	-0.003	-0.0008	80.5	31
-0.0023	-0.0038	-0.0015	-0.0015	80.8	31
-0.0015	-0.0023	-0.0015	-0.0015	80.5	31
0.003	-0.0015	-0.0015	-0.0015	80.6	31
0.0045	-0.0015	-0.0015	-0.0015	80.7	31
0.003	-0.0015	-0.0015	-0.003	80.8	31
0.0015	-0.0008	0.0015	-0.003	80.5	31
0.003	-0.0023	0.0022	-0.003	80.9	31
0.0045	-0.003	0.0022	-0.0015	80.5	31
0.0037	-0.0015	0.0015	0.0015	81	31
0.0052	-0.0008	0.0007	0.0007	80.5	31
0.0037	-0.0015	0.003	0.0022	80.7	31
0.0022	-0.0015	0.0007	0.0015	80.7	31
0.003	0.0007	-0.0008	0.0015	80.6	31
0.003	-0.0008	0.0007	0.0015	81	31
0.0015	0.0007	0.0007	0.0015	80.5	31
0	0.0015	0.0015	0.0007	80.8	31
0.0007	0.0007	0.003	0.003	80.5	31
0.0015	0.0022	0.0045	0.0045	80.6	31
0.0022	0.003	0.0015	0.003	80.7	31
0.0007	0.0022	0	0.0045	80.8	31
-0.0008	0.0015	-0.0015	0.0045	80.7	31
-0.0008	0.0015	-0.0046	0.0045	80.8	31
0	0.0022	-0.0046	0.003	80.5	31
0	0.0007	-0.0046	0.0015	80.9	31
-0.0008	-0.0008	-0.0023	0.0007	80.6	31
-0.0015	-0.0023	-0.003	0	80.8	31
-0.003	-0.0023	-0.0008	0.003	80.8	31
-0.0038	-0.0023	0.0007	0.0015	80.5	31
-0.0046	-0.0015	0.0007	0.003	80.8	31
-0.0053	-0.003	0.0015	0.0037	80.5	31
-0.0068	-0.0015	0.0007	0.003	80.8	31
-0.006	0.0007	0.0007	0.0045	80.5	31
-0.0053	0.0007	-0.0015	0.003	80.9	31
-0.0038	0.003	-0.0023	0.003	80.7	31
-0.0038	0.003	0.0007	0.003	80.7	31
-0.003	0.0022	0.0007	0.0022	80.7	31
-0.0023	0.003	-0.0015	0.0007	80.7	31
-0.0023	0.0045	-0.0008	-0.0008	80.8	31
-0.0008	0.0045	-0.0015	0.0007	80.8	31
0.0007	0.003	-0.0023	0.0007	80.8	31
0.0007	0.0007	-0.0038	-0.0008	80.6	31
0.0015	0.0015	-0.003	0.0015	80.8	31
0.0007	0.0022	-0.0008	0	80.5	31
-0.0008	0.0007	0	0	81	31
-0.0015	0	0.0015	0.0007	80.5	31
-0.003	-0.0015	0.0007	0.0015	80.9	31
-0.0015	-0.0023	0.0015	0.0022	80.7	31
-0.0023	-0.003	0.003	0.0015	80.8	31
-0.0023	-0.0015	0.0015	0.0007	80.8	31
0	-0.0008	0.0015	0.0015	80.6	31
-0.0008	-0.0008	0	0.003	80.8	31
0.0007	0	-0.0023	0.0037	80.7	31
0.0007	-0.003	-0.003	0.0037	80.7	31
0	-0.0015	-0.0038	0.003	80.7	31
0.0007	-0.0023	-0.006	0.003	80.9	31
0.0007	-0.003	-0.0046	0.0015	80.5	31
0.0022	-0.003	-0.0015	0.0015	80.9	31
0.0045	-0.0023	-0.0015	0.003	80.6	31
0.0037	-0.003	-0.0015	0.0015	80.8	31
0.0037	-0.003	-0.0008	0.0007	80.7	31
0.0015	-0.0015	0.0037	0.0022	80.8	31
0.0007	-0.0015	0.0037	0.0015	80.8	31
0	-0.0015	0.003	-0.0015	80.5	31
0.0007	-0.0015	0.003	-0.0008	80.9	31
0.0007	0.0007	0.003	0.0007	80.5	31
-0.0023	0.0007	0.003	-0.0015	80.8	31
-0.0008	-0.0008	0.003	-0.0015	80.6	31
0.0015	0.0007	0.0022	-0.0015	80.5	31
0.0022	-0.0008	0.0007	0.0007	80.6	31
0.003	-0.0008	0.0007	0.0015	81	31
0.0022	-0.003	0.003	-0.0008	80.5	31
0.0022	-0.003	0.003	0	80.9	31
0.0015	-0.0023	0.0037	0	80.5	31
0.003	-0.0038	0.0022	0	80.7	31
0.0022	-0.0053	0.0007	0.0007	80.9	31
0.0015	-0.006	0.0015	0.0007	80.6	31
0.0007	-0.0046	0.0015	0.0015	80.9	31
-0.0008	-0.003	0.0015	0.0015	80.5	31
0.0015	-0.003	0	0.0022	80.7	31
0.0022	-0.0015	-0.0008	0.0015	80.8	31
0.0007	-0.0008	-0.0015	0.0015	80.5	31
0	-0.0015	-0.0015	0.0022	81	31
0.0007	-0.0023	0	0.0007	80.7	31
0.0015	-0.0038	0.0007	0.0015	80.7	31
0.0007	-0.0015	-0.0008	0.0037	80.9	31
-0.0008	0.0007	-0.0015	0.0037	80.7	31
0	0.0015	-0.0008	0.003	80.8	31
0.0022	0.0015	-0.0008	0.003	81.1	31
0.0015	0.003	-0.0008	0.0052	80.5	31
0.0015	0.003	0	0.0052	81	31
0.0015	0.0015	0	0.0045	80.5	31
0.0015	0.003	-0.0008	0.0045	80.9	31
0.0015	0.0022	-0.0008	0.0045	80.5	31
-0.0008	0	-0.0015	0.0045	80.8	31
-0.0008	0.0015	-0.003	0.0022	80.7	31
-0.0008	0.0015	-0.0008	0.0015	80.7	31
-0.0008	0.003	-0.0008	0.0015	80.8	31
-0.0008	0.003	-0.0008	0.0007	80.7	31
-0.0015	0.0015	0.0007	0.0022	80.7	31
-0.003	0.003	0.0015	0.003	80.5	31
-0.0038	0.0022	0.0015	0.003	80.7	31
-0.0015	0.003	0.0007	0.003	80.5	31
0	0.0037	-0.0015	0.003	80.8	31
0.0007	0.006	-0.003	0.0045	80.5	31
0.0015	0.0052	-0.0015	0.003	80.9	31
-0.0008	0.0045	-0.0015	0.0037	80.7	31
-0.003	0.0052	-0.0015	0.0037	80.5	31
-0.0046	0.0052	-0.0023	0.0045	80.8	31
-0.0053	0.0052	0	0.0052	80.6	31
-0.0038	0.0022	0.0022	0.006	80.9	31
-0.0038	0.0022	0.003	0.006	80.5	31
-0.0046	-0.0008	0.0037	0.006	80.9	31
-0.0015	-0.0046	0.003	0.0067	80.5	31
-0.0008	-0.0068	0.0022	0.0075	80.6	31
0.0015	-0.0083	0.0007	0.0075	80.7	31
0.0015	-0.0098	-0.0008	0.006	80.6	31
0.0007	-0.0098	-0.0015	0.0045	80.8	31
0.0015	-0.006	-0.0038	0.0015	80.7	31
0.003	-0.0053	-0.0046	0	80.7	31
0.0037	-0.0046	-0.0008	-0.0015	80.5	31
0.0007	-0.0046	-0.0015	-0.0008	80.9	31
-0.0008	-0.003	-0.003	-0.0008	80.6	31
0.0007	-0.0008	-0.003	-0.0015	81	31
-0.0008	0.0015	-0.003	-0.0015	80.4	31
0.0007	0.0022	-0.0008	-0.0015	80.8	31
0.0007	0.0015	0.0007	-0.0015	80.6	31
0.0007	0.0015	0	0.0007	80.8	31
0.0015	0.0007	0.0007	0.0007	80.7	31
0.0007	0.0007	0.0022	0.0007	80.6	31
0.0007	-0.0008	0.0015	0.0007	80.7	31
0	-0.0008	0.0007	0.0015	80.6	31
0.0007	-0.0008	0.0037	-0.0008	80.5	31
0.0015	-0.003	0.0022	-0.0038	80.7	31
-0.0008	-0.0015	0	-0.003	80.8	31
-0.0008	-0.0008	0.0022	-0.003	80.5	31
0.0007	0	0.0022	-0.003	80.8	31
0.0007	-0.0015	0.0015	-0.0015	80.6	31
0	-0.0023	0.0015	-0.0046	80.7	31
0.0007	0	0.0037	-0.0023	80.8	31
0.003	-0.0015	0.0037	-0.0008	80.5	31
0.0007	-0.0023	0.003	-0.0008	80.8	31
-0.0008	-0.0038	0.003	-0.0008	80.5	31
0.0022	-0.0046	0	0.0015	80.8	31
0.0045	-0.003	0.0007	0.003	80.5	31
0.003	-0.003	0	0.0007	80.8	31
0.0015	-0.0015	-0.0008	0.0015	80.7	31
0.0007	-0.0015	0	0.0007	80.8	31
-0.0008	-0.003	0.0007	-0.0008	80.7	31
-0.0015	-0.0038	0.0007	0.0007	80.6	31
-0.0023	-0.003	0.0007	-0.0008	80.5	31
-0.0046	-0.0023	0.003	0.0015	80.8	31
-0.0053	-0.0015	0.003	-0.0008	80.5	31
-0.0053	-0.0015	0.0037	-0.0008	80.6	31
-0.0068	-0.0015	0.0037	-0.0008	80.6	31
-0.006	-0.0015	0.0015	-0.0046	80.5	31
-0.003	0.0007	0	-0.0046	80.8	31
0	0.003	0.0015	-0.003	80.6	31
0.0007	0.0007	0.0007	-0.0015	80.7	31
0.0007	-0.0008	-0.0008	-0.0008	80.7	31
-0.0008	-0.0008	-0.0008	0.0007	80.5	31
-0.0008	-0.0015	-0.0015	0.0007	80.7	31
-0.0008	-0.0015	-0.0023	-0.0008	80.5	31
-0.0008	-0.003	-0.003	0.0007	80.6	31
-0.0015	-0.0053	-0.0046	0.0015	80.6	31
-0.0046	-0.0046	-0.0046	0.003	80.5	31
-0.0038	-0.0053	-0.003	0.0015	80.5	31
-0.0046	-0.0053	-0.003	0.0022	80.8	31
-0.0046	-0.0038	-0.0038	0.003	80.4	31
-0.0046	-0.003	-0.0046	0	80.8	31
-0.0023	-0.0008	-0.0046	0.0015	80.5	31
-0.0008	-0.0008	-0.006	0.003	80.8	31
-0.0015	0.0022	-0.0068	0.0022	80.5	31
-0.0008	0.0007	-0.006	0.0045	80.6	31
0.0022	0.0015	-0.0053	0.0052	80.7	31
0.0037	0.003	-0.0023	0.0052	80.5	31
0.003	0.0007	-0.0023	0.0067	80.8	31
0.003	0.0015	-0.0008	0.0075	80.5	31
0.0045	0	0.0007	0.0075	80.6	31
0.0037	-0.0015	0.0007	0.0052	80.8	31
0.0037	-0.0023	0.0007	0.0015	80.6	31
0.0052	-0.003	0.0007	-0.0008	80.5	31
0.0045	-0.0015	0.0007	-0.0008	80.8	31
0.0045	0	-0.0008	0	80.5	31
0.0045	0.0007	-0.0015	0.0022	80.6	31
0.0045	-0.0015	0.0007	0.0022	80.8	31
0.0037	-0.0015	0.0045	0.0045	80.5	31
0.0015	-0.0023	0.0045	0.0045	80.9	31
-0.0015	-0.003	0.0052	0.003	80.4	31
-0.0053	-0.0015	0.0052	0.003	80.8	31
-0.0053	0.0007	0.0022	0.0015	80.3	31
-0.0023	0.003	0.0007	0.0015	80.8	31
-0.003	0.0037	-0.0015	0.0015	80.5	31
-0.0008	0.0045	-0.003	0.0037	80.6	31
0.0007	0.0045	-0.0008	0.0015	80.5	31
0	0.006	0.0007	0.0022	80.5	31
0.0015	0.0082	0	0.003	80.6	31
0.0045	0.0082	0.0007	-0.0008	80.5	31
0.0067	0.0067	0.0022	0	80.8	31
0.0067	0.0045	0.0022	-0.0008	80.3	31
0.006	0.003	0.0022	-0.0008	80.8	31
0.0052	-0.0008	0.0007	0.0015	80.5	31
0.0052	-0.0008	0.0022	0.0015	80.8	31
0.0045	-0.0008	0.003	0.0007	80.5	31
0.0037	-0.0008	0.0015	-0.0008	80.5	31
0.0015	-0.0008	0.003	0	80.7	31
0.0015	-0.0015	0	-0.0015	80.4	31
0.0015	-0.003	-0.0023	-0.003	80.9	31
0.0007	-0.0008	-0.003	-0.0015	80.4	31
0	0.0007	-0.0015	-0.0008	80.8	31
-0.0008	0.0015	0.0007	-0.0008	80.6	31
-0.0015	0.0007	0.0007	0	80.6	31
-0.0015	-0.0008	0.0007	-0.0008	80.6	31
-0.0008	-0.003	0.0015	-0.0008	80.6	31
-0.0015	-0.003	0.0022	0.003	80.5	31
-0.0038	-0.003	0.0015	0.0052	80.5	31
-0.0046	-0.0053	0.0022	0.0052	80.6	31
-0.003	-0.0068	0.0015	0.0052	80.5	31
-0.003	-0.0068	-0.0008	0.0052	80.8	31
-0.0053	-0.0068	-0.0015	0.0052	80.4	31
-0.0053	-0.0083	-0.0023	0.0052	80.8	31
-0.0053	-0.0068	-0.003	0.0045	80.3	31
-0.0046	-0.0046	-0.003	0.0045	80.8	31
-0.003	-0.003	-0.0023	0.0022	80.4	31
-0.0038	-0.0046	-0.003	0.0037	80.6	31
-0.003	-0.0046	-0.003	0.003	80.6	31
0.0007	-0.0038	-0.0038	0.0007	80.5	31
0.0022	-0.003	-0.003	0.0007	80.5	31
0.003	-0.0046	-0.0046	-0.0015	80.5	31
0.003	-0.0038	-0.0068	-0.0008	80.4	31
0.003	-0.003	-0.0053	-0.0015	80.5	31
0.0045	-0.0015	-0.0015	-0.0023	80.6	31
0.0052	0.0007	0.0022	-0.0015	80.4	31
0.0037	0.0007	0.0015	-0.0015	80.7	31
0.0022	0.0045	0	0	80.4	31
0.0007	0.0045	-0.003	0.0015	80.5	31
-0.0015	0.0015	-0.0015	0.003	80.5	31
-0.003	0.0022	-0.0023	0.003	80.5	31
-0.003	0.0007	-0.0015	0.0015	80.8	31
-0.0015	0.0007	-0.0008	0.0007	80.3	31
-0.0023	0.0007	-0.0008	0.0015	80.7	31
-0.003	-0.0015	0.0037	0.003	80.3	31
-0.003	-0.0053	0.0015	0.0037	80.5	31
-0.0046	-0.003	0.0007	0.0045	80.5	31
-0.0053	-0.0008	0.003	0.0052	80.5	31
-0.0053	-0.0008	0.0052	0.006	80.3	31
-0.0053	-0.0008	0.003	0.0045	80.8	31
-0.0053	0	0.003	0.006	80.2	31
-0.0046	0.0007	0.0037	0.0052	80.7	31
-0.003	0.0007	0.003	0.0052	80.3	31
-0.0015	0	0.003	0.0075	80.4	31
-0.0008	0.0007	0.003	0.0052	80.5	31
-0.0015	0	0.0015	0.006	80.3	31
-0.003	0.0007	-0.0008	0.0067	80.5	31
-0.0015	0.0007	-0.0008	0.0082	80.3	31
-0.0008	0.0007	-0.0015	0.0082	80.5	31
0.0007	0.0015	0	0.006	80.3	31
-0.0008	0.003	-0.0008	0.0067	80.3	31
-0.0008	0.0052	-0.0008	0.0067	80.4	31
0	0.006	-0.0015	0.0052	80.4	31
0.0015	0.0067	-0.0015	0.0022	80.4	31
0.003	0.0067	-0.0015	0.0015	80.5	31
0.0037	0.0067	-0.0015	0.0007	80.3	31
0.003	0.0007	0.0015	-0.0008	80.4	31
0.003	-0.0008	0.0015	-0.0008	80.5	31
0.0045	0.0007	-0.0008	-0.0015	80.2	31
0.0022	-0.0015	-0.0015	-0.0015	80.6	31
0.0007	-0.0015	-0.0008	-0.003	80.1	31
-0.0008	-0.003	0.0007	-0.003	80.5	31
0.0015	-0.003	0.0007	0.0015	80.2	31
0.003	-0.0038	0.0007	0.003	80.4	31
0.003	-0.0038	-0.0008	0.0007	80.2	31
0.0022	-0.003	-0.0038	0.0007	80.2	31
0.0037	-0.0008	-0.0053	0.0007	80.3	31
0.0052	-0.0015	-0.0038	-0.0008	80.3	31
0.0052	-0.0023	-0.0015	-0.0008	80.2	31
0.0022	-0.003	-0.003	-0.0008	80.5	31
0.0015	-0.0015	-0.0023	-0.0015	80.4	31
0.003	-0.0008	-0.0008	-0.0008	80.2	31
0.0007	-0.0023	0.0007	-0.0008	80.5	31
-0.0008	-0.0038	0.0022	-0.0015	80.1	31
-0.0023	-0.0023	0.0015	-0.0046	80.5	31
-0.0015	-0.003	0.0045	-0.0068	80.2	31
-0.0015	-0.0015	0.0052	-0.0075	80.5	31
-0.0015	-0.0008	0.0045	-0.0053	80.2	31
-0.0053	-0.0015	0.003	-0.0046	80.1	31
-0.0075	-0.0015	0.0015	-0.0038	80.5	31
-0.0038	-0.003	0	-0.0015	80.1	31
-0.003	-0.003	-0.003	-0.0015	80.5	31
-0.003	-0.003	-0.003	-0.0008	80.1	31
-0.0023	-0.003	-0.0015	0.003	80.4	31
-0.0023	-0.003	0	0.0052	80.3	31
-0.0008	-0.0023	0.0015	0.0075	80.3	31
0.0015	-0.003	0.003	0.0052	80.2	31
0.0045	-0.0023	0.0052	0.0037	80.5	31
0.0037	-0.0015	0.0052	0.0037	80.2	31
0.006	-0.003	0.0067	0.0015	80.1	31
0.0045	-0.0015	0.009	0.0015	80.4	31
0.003	-0.0008	0.0045	0.0015	80.1	31
0.003	-0.0015	0.0015	0.0007	80.5	31
0.0007	-0.0015	0	0.0015	80.1	31
-0.0008	-0.0008	-0.0008	0.0015	80.6	31
0.0015	0.0007	0.003	0.0015	80.1	31
0.003	0.0022	0.0022	0.0007	80.5	31
0.0007	0.0015	0.0007	0.0015	80.2	31
0.0007	0.0007	0.0007	0.0007	80.1	31
0.0007	0.003	-0.0015	-0.0015	80.3	31
-0.0008	0.003	-0.003	-0.003	80.4	31
0.0007	0.0022	-0.0015	-0.003	80.1	31
0	0.0015	-0.003	-0.003	80.4	31
-0.0008	0.0015	-0.0008	-0.003	80.2	31
-0.0023	0.0015	-0.003	-0.003	80.2	31
-0.0015	0.0022	-0.0038	-0.0015	80.2	31
0.0007	0.0022	0	0	80.1	31
0.0007	0.0007	-0.0008	0.0015	80.3	31
0.0007	0.0015	-0.0015	0.0022	80.1	31
0.0015	0.0015	-0.0015	0.003	80.3	31
0.0007	0.0022	-0.0015	0.0022	80.1	31
-0.0008	0.0015	-0.003	0.0015	80.2	31
0.0022	0.003	0	0.0022	80.3	31
0.003	0.0007	-0.0008	0.0022	80.1	31
0.0007	-0.0015	-0.0023	0.003	80.4	31
0.0022	0	-0.0015	0.0037	80.4	31
0.003	0	-0.0015	0.0052	80.1	31
0.0052	0	-0.0015	0.0075	80.2	31
0.0045	-0.0008	-0.0023	0.0067	80.3	31
0.003	-0.0008	-0.0008	0.0075	80	31
0.0037	-0.003	-0.0015	0.0082	80.5	31
0.0015	-0.0053	-0.0023	0.0082	80.1	31
-0.0008	-0.0068	-0.0015	0.0082	80.2	31
-0.0008	-0.0068	-0.0008	0.0097	80.2	31
-0.0015	-0.0068	0.0007	0.009	80.2	31
-0.0023	-0.0053	0.0022	0.006	80.2	31
-0.0023	-0.0038	0.0015	0.0007	80.2	31
-0.0023	-0.003	0.0007	-0.0015	80.4	31
-0.0046	0	0.0007	-0.0008	80	31
-0.003	-0.0008	0.0007	-0.0023	80.5	31
-0.0038	-0.0015	0.0007	-0.0046	80.2	31
-0.0038	0.0007	-0.003	-0.0038	80.3	31
-0.0008	0.0007	-0.0038	-0.0038	80.2	31
-0.0015	-0.0008	-0.0008	-0.0015	80.3	31
0.0007	-0.0023	-0.0008	-0.0046	80.1	31
0.0007	-0.0015	0	-0.0046	80.5	31
-0.0008	-0.0008	-0.0015	-0.0023	80.1	31
-0.0015	0.0007	-0.003	-0.0015	80.2	31
-0.003	0.0007	-0.0008	0.0007	80.3	31
-0.003	0.0015	0.0015	0.0015	80.1	31
-0.003	0.003	0.003	0.0007	80.5	31
-0.0023	0.0022	0.0007	0.0007	79.9	31
-0.0008	0.0015	0.0007	0.0015	80.4	31
0.0007	0	0	0.0015	80.1	31
0.0015	-0.0008	-0.003	0.0007	80.3	31
0.0007	-0.0008	-0.0008	-0.0008	80.1	31
0.0007	-0.0008	-0.0008	-0.0008	80.1	31
0.0007	-0.0008	-0.0008	-0.0023	80.2	31
-0.0008	-0.0008	0.0007	-0.0046	80.2	31
-0.0008	0.0007	0.0015	-0.0046	80.3	31
-0.0015	0	0.0015	-0.0046	80.1	31
-0.0015	0.0007	-0.0008	-0.0046	80.3	31
0	0	-0.0008	-0.006	80	31
0.0007	-0.0008	0	-0.0053	80.4	31
0.0007	0.0015	-0.0008	-0.0038	80.1	31
0.0015	0.0015	-0.0015	-0.0023	80.2	31
0.0015	0.0007	-0.0008	-0.0015	80.2	31
0.0015	0.0007	-0.0008	-0.0023	80.1	31
-0.0008	0.0015	0.0007	0.0007	80.4	31
-0.0015	0.0015	0.0015	0.0015	80	31
-0.0008	0.0007	0.0007	0.0022	80.5	31
-0.0008	0.003	0.0007	0.0015	79.9	31
-0.0008	0.0045	-0.0015	0.003	80.1	31
-0.0008	0.0045	-0.0015	0.0045	80.1	31
-0.0023	0.0052	-0.0008	0.0045	80.2	31
-0.0008	0.0037	-0.0015	0.006	80.2	31
0.0015	0.0015	-0.0015	0.0045	80.2	31
0.0015	0	-0.0015	0.0052	80.1	31
0.003	-0.0008	0.0007	0.006	80.1	31
0.0022	-0.0008	0.0015	0.0045	80.2	31
0.0015	-0.0023	0.003	0.0045	79.9	31
-0.0008	-0.0023	0.0045	0.006	80.5	31
-0.0008	-0.0023	0.003	0.0082	79.9	31
-0.0015	-0.0015	0.0022	0.0097	80.3	31
-0.003	0	0.0007	0.009	80	31
-0.0023	0.0007	0.0007	0.0052	80.2	31
-0.0015	-0.0008	0.0007	0.0045	80.1	31
-0.0008	-0.0015	0.0007	0.003	80.2	31
-0.0008	-0.003	0.0015	0.0007	80.2	31
-0.0008	-0.0046	-0.0008	0.0015	80.2	31
-0.0015	-0.003	-0.0015	0.0022	80	31
-0.0015	-0.003	-0.0015	0.0045	80.2	31
-0.0008	-0.0053	-0.0015	0.0045	80.2	31
0.0015	-0.0046	-0.0008	0.003	80	31
0.0007	-0.0046	-0.0008	0.0045	80.3	31
0.0007	-0.0046	0.0007	0.0045	80	31
0.0007	-0.006	0.0015	0.0052	80.4	31
0.0015	-0.0083	0.0015	0.0067	80.1	31
0.003	-0.0083	0.0007	0.0075	80.2	31
0.0015	-0.0068	0.0007	0.0067	80.3	31
0.0015	-0.006	0.0007	0.0052	79.9	31
0	-0.006	-0.0008	0.003	80.4	31
-0.0008	-0.0083	-0.0008	0.0015	80.1	31
0	-0.0053	-0.0015	0.0015	80.3	31
-0.0015	-0.0046	-0.0023	-0.0015	80.1	31
-0.0008	-0.0023	-0.0008	-0.0008	80.2	31
0	0	0.0015	-0.0008	80.1	31
-0.0015	0.0022	0.0007	-0.0008	80.1	31
0	0.003	0.003	0.0007	80.1	31
-0.0008	0.0015	0.003	0.0015	80.4	31
0.0007	0.0015	0.0007	0.0022	80	31
0.0015	0.0015	0.0015	-0.0008	80.4	31
0.0022	0.0037	0.0015	0	80	31
0.0022	0.0052	0.0007	-0.0008	80.5	31
0.0015	0.0045	-0.0008	-0.0015	80.1	31
0.0022	0.0015	-0.0008	-0.0008	80.4	31
0.0015	0.0007	0.0007	0.0015	80.2	31
0.0015	0.0007	0.0015	0.003	80.1	31
0.0015	-0.0008	0.0022	0.0037	80.2	31
0.0007	0	0.0015	0.0045	80.1	31
0	-0.003	0.0007	0.0052	80.1	31
-0.0008	-0.0008	-0.0008	0.0082	80.4	31
-0.0015	0	-0.0015	0.006	80.2	31
-0.0015	0.0015	-0.0015	0.0052	80.4	31
-0.0015	0.0007	-0.0015	0.0045	80.5	31
-0.0015	0	-0.0038	0.0022	80.1	31
-0.0015	0.0015	-0.003	0.0015	80.4	31
-0.003	0	-0.003	-0.0008	80.2	31
-0.003	-0.0008	-0.0015	-0.0015	80.2	31
-0.0046	-0.0015	-0.0023	-0.0023	80.2	31
-0.0023	-0.0015	-0.0046	-0.0038	80	31
-0.0008	-0.0015	-0.003	-0.0046	80.5	31
-0.0008	-0.0046	-0.0008	-0.003	80.1	31
0.0007	-0.0038	0.0015	-0.0023	80.5	31
0.003	-0.0023	0.0015	-0.0008	80	31
0.0007	-0.003	0	0	80.4	31
0.0007	-0.003	0	-0.0008	80.4	31
0.0015	-0.003	0.0015	0.0015	80.2	31
0	-0.0015	0.0052	0.003	80.3	31
0.0015	0	0.006	0.0015	80.3	31
0.0007	0.0007	0.003	0.0007	80.2	31
0.0007	-0.0015	-0.0015	-0.0008	80.4	31
0.0015	-0.0015	-0.0015	0.0007	80.3	31
0	0	-0.0015	0.0015	80.2	31
-0.0008	0.0007	-0.003	0.0015	80.4	31
0.0007	0.0007	-0.003	0.0015	80.1	31
0.0007	0.0007	-0.0023	0.0007	80.6	31
0.0007	0.003	-0.0015	0.0007	80.1	31
0.0007	0.003	-0.0015	0	80.5	31
0	0.003	-0.0023	-0.0008	80.2	31
-0.0015	0.0052	-0.003	0.0007	80.4	31
-0.0023	0.0045	-0.0008	0	80.3	31
-0.0046	0.0052	0	-0.0008	80.4	31
-0.0046	0.0052	-0.0023	-0.0008	80.2	31
-0.003	0.006	-0.0038	0	80.3	31
-0.0053	0.0052	-0.0053	0.0015	80.4	31
-0.0075	0.0007	-0.0046	0.003	80.2	31
-0.0075	-0.0015	-0.003	0.0007	80.5	31
-0.0053	-0.0038	-0.0015	0.0007	80.2	31
-0.0038	-0.0046	0.0015	0.003	80.4	31
-0.0023	-0.003	0.0037	0.003	80.2	31
0.0007	-0.0046	0.003	0.006	80.4	31
0.0037	-0.0046	0.0037	0.0067	80.4	31
0.006	-0.003	0.003	0.0052	80.2	31
0.006	-0.003	0.0037	0.0045	80.5	31
0.0067	0.0015	0.0037	0.0022	80.2	31
0.0067	0.0022	0.003	0.0045	80.6	31
0.0067	0.0015	0.003	0.0037	80.2	31
0.006	0.0015	0.0045	0.0007	80.3	31
0.0067	0.003	0.0075	0.0015	80.4	31
0.0082	0.0007	0.0067	0.0015	80.4	31
0.0052	-0.0008	0.0052	0.0015	80.2	31
0.0045	-0.0008	0.0067	0.0007	80.5	31
0.0022	-0.0023	0.0067	0.0015	80.1	31
0	-0.0015	0.006	0.0015	80.6	31
0.0007	-0.0015	0.003	0.0022	80.3	31
-0.0046	-0.0023	-0.0008	0.0037	80.4	31
-0.0046	-0.0038	-0.0015	0.0015	80.5	31
-0.0046	-0.003	-0.0023	0.0007	80.3	31
-0.0053	-0.003	-0.0023	0.0007	80.5	31
-0.006	-0.0023	-0.0053	-0.0015	80.3	31
-0.0053	-0.0038	-0.0053	-0.0023	80.5	31
-0.0046	-0.0053	-0.0053	-0.003	80.4	31
-0.0053	-0.0053	-0.0068	-0.0015	80.3	31
-0.003	-0.0046	-0.006	-0.0015	80.5	31
-0.0015	-0.0023	-0.0046	-0.0015	80.2	31
-0.0008	-0.0023	-0.0015	0.0007	80.3	31
0.0007	-0.0015	0	-0.0008	80.6	31
0.0015	-0.0015	0.0015	-0.0008	80.5	31
0.0037	-0.0015	0.0015	0.0007	80.2	31
0.003	0	0.003	-0.0008	80.7	31
0.0007	0.0015	0.0015	-0.0008	80.2	31
0.0007	0.0015	0.0007	0.0015	80.6	31
0	0.0007	0.0022	0.0015	80.2	31
0	0	0.0015	-0.0008	80.7	31
0.0007	0	0.0015	-0.0015	80.4	31
0.0007	0	0.0007	0	80.4	31
0.0015	-0.0015	0.0007	0.0007	80.6	31
0.0007	-0.0008	0.0007	0.0007	80.3	31
0.0015	-0.0038	-0.0015	0.0007	80.7	31
0.0007	-0.0053	-0.0015	0	80.5	31
0.0007	-0.0068	-0.0023	0.0007	80.5	31
0.0015	-0.006	-0.003	0.0015	80.5	31
0.0015	-0.0046	-0.003	0.0015	80.5	31
0.0037	-0.006	-0.003	0.0015	80.2	31
0.003	-0.003	-0.0046	0.0045	80.6	31
0.003	-0.0053	-0.003	0.0045	80.4	31
0.0052	-0.0046	-0.0023	0.0052	80.7	31
0.003	-0.0015	-0.0023	0.006	80.5	31
-0.0008	-0.003	-0.0015	0.0052	80.5	31
-0.0046	-0.0038	-0.0008	0.006	80.8	31
-0.0053	-0.0038	0.0015	0.006	80.3	31
-0.0053	-0.003	-0.0008	0.0067	80.7	31
-0.0053	-0.003	-0.0008	0.0052	80.3	31
-0.0046	-0.003	0.0007	0.003	80.7	31
-0.0008	-0.0015	0	0.0045	80.6	31
0.0022	-0.0023	-0.0015	0.003	80.7	31
0.0015	-0.003	-0.0008	0.0015	80.5	31
0.0015	-0.003	-0.0015	0.0007	80.5	31
0.0015	-0.0015	-0.003	0.0007	80.6	31
0.0007	-0.0008	-0.003	0.0007	80.5	31
0.0007	-0.0015	-0.0015	-0.0008	80.8	31
0.0022	-0.0008	0.0007	-0.0008	80.3	31
0.003	0.0015	0	-0.0008	80.9	31
0.0007	-0.0008	-0.0008	0	80.5	31
-0.0008	0.0007	0.0007	0.0015	80.8	31
-0.0023	0.0015	0.0015	0.0007	80.4	31
-0.0015	0.0022	0.0015	0	80.6	31
-0.0015	0.0045	0.0015	0.0007	80.7	31
-0.0015	0.0045	0.0007	0	80.5	31
-0.0008	0.0067	0.0007	0.0007	80.7	31
-0.0008	0.0075	-0.0008	0.0007	80.5	31
-0.0008	0.0075	0.0007	-0.0008	80.6	31
0	0.0067	0.0015	0.0007	80.6	31
-0.0008	0.0052	0.0007	0.0015	80.6	31
0.0007	0.0052	0.0007	0.0022	80.6	31
0.0015	0.0082	0.0007	0.0007	80.8	31
0.0007	0.0082	0.0015	0.0015	80.6	31
0	0.0045	0.0015	0.0045	80.6	31
-0.0015	0.0045	0.0015	0.0052	80.8	31
0	0.003	0.003	0.0052	80.6	31
-0.0008	0.003	0.0007	0.0037	80.8	31
-0.0015	0.0007	-0.0023	0.0045	80.5	31
0	-0.0015	-0.0038	0.003	80.9	31
0.0052	-0.0015	-0.003	0.0015	80.5	31
0.0067	-0.0015	-0.0008	0.003	80.9	31
0.006	0	0.0007	0.0007	80.5	31
0.0067	-0.0015	0.0007	0.0007	80.7	31
0.0052	-0.003	0.0015	-0.0015	80.7	31
0.006	-0.0046	0.0052	-0.0015	80.7	31
0.0052	-0.0046	0.0052	-0.0015	80.8	31
0.0037	-0.0075	0.003	-0.0015	80.8	31
0.003	-0.0083	0.0015	0.0007	80.7	31
-0.0008	-0.0075	0.0007	0.0007	80.8	31
-0.003	-0.0068	0.0007	0.0007	80.8	31
-0.0008	-0.0038	-0.0015	0.003	80.6	31
0	-0.0046	-0.0015	0.0052	80.9	31
-0.0008	-0.0023	-0.0023	0.0045	80.5	31
-0.0038	-0.0023	-0.0015	0.0052	80.8	31
-0.0053	-0.0023	-0.0015	0.0052	80.9	31
-0.006	-0.0015	-0.0023	0.0045	80.6	31
-0.0083	-0.0015	0.0007	0.0052	81	31
-0.0083	0	0	0.0045	80.6	31
-0.0105	0.0007	0.0007	0.0067	81	31
-0.0128	0	0.0022	0.0067	80.7	31
-0.0105	0.003	0.0007	0.0045	80.9	31
-0.0068	0.0045	0.0015	0.0052	80.8	31
-0.0023	0.0037	-0.0008	0.003	80.8	31
-0.0015	0.0015	-0.0053	0.0022	80.6	31
-0.0008	0.003	-0.003	0.0015	81	31
0.003	0.0052	-0.003	0.0007	80.5	31
0.0037	0.006	-0.0008	-0.0008	81	31
0.0075	0.0052	0.0015	0.0007	80.6	31
0.006	0.0052	0.0022	0.003	81	31
0.006	0.0052	0.0015	0.0007	80.7	31
0.0075	0.0045	0.003	-0.0015	80.9	31
0.0067	0.0015	0.0022	-0.003	81	31
0.0075	0	0.0007	-0.003	80.7	31
0.0052	-0.0008	-0.0008	-0.0008	81	31
0.0037	-0.0046	-0.0015	-0.0015	80.8	31
0	-0.006	-0.0008	0.0007	80.8	31
-0.0015	-0.0068	-0.0008	0.0015	80.8	31
-0.0008	-0.0068	-0.0008	0.0022	80.8	31
-0.0023	-0.0053	0.0022	0.0052	80.6	31
-0.003	-0.006	0.0015	0.0067	81	31
-0.003	-0.0038	0.0007	0.006	80.7	31
-0.0046	-0.003	0	0.0045	80.9	31
-0.006	-0.003	-0.003	0.0045	80.9	31
-0.003	-0.0038	-0.0038	0.003	80.7	31
-0.0015	-0.0038	-0.0053	0.003	81.1	31
-0.0008	-0.003	-0.0053	0.003	80.6	31
-0.0008	-0.0038	-0.0053	0.0037	81.1	31
-0.0015	-0.0038	-0.0053	0.0045	80.8	31
-0.0015	-0.0068	-0.0038	0.0015	81.1	31
-0.0008	-0.0068	-0.0038	0.0007	80.9	31
0.0007	-0.0075	-0.0046	0.0007	80.8	31
-0.0015	-0.006	-0.0038	0.0015	80.9	31
-0.0015	-0.0046	-0.0023	0.0015	80.8	31
0	-0.003	0.0007	0	80.8	31
-0.0015	-0.0015	0.003	-0.0008	80.8	31
-0.0015	-0.0008	0.0052	-0.0015	81	31
-0.0015	0.0015	0.0082	-0.0015	80.8	31
-0.0046	0.0037	0.0082	-0.003	81.1	31
-0.0083	0.0045	0.0075	-0.0038	80.6	31
-0.0083	0.0052	0.0067	-0.0038	81	31
-0.0068	0.0052	0.003	-0.0053	80.8	31
-0.0008	0.0045	0.0007	-0.0053	81	31
0.0045	0.0052	-0.0008	-0.006	80.9	31
0.009	0.0045	0	-0.0068	80.9	31
0.009	0.0045	0.0015	-0.0068	81	31
0.0082	0.0045	0.0037	-0.0053	80.7	31
0.0022	0.0045	0.0052	-0.0053	81	31
-0.0008	0.003	0.006	-0.0015	80.9	31
0.0007	0.003	0.0052	0.0007	80.8	31
0.003	0.0045	0.0015	0.0022	81	31
0.0067	0.003	-0.003	0.0045	81.1	31
0.0045	-0.0008	-0.0053	0.0015	80.8	31
0.0015	-0.0015	-0.0091	0.0015	81	31
0.003	-0.0046	-0.0105	0.0015	80.8	31
0.0045	-0.0053	-0.0135	-0.0008	80.9	31
0.003	-0.0053	-0.0143	-0.0008	81	31
0.0015	-0.0068	-0.0128	0	80.8	31
0.0007	-0.006	-0.0143	0.0015	81.1	31
0.0015	-0.0053	-0.0105	0.0022	80.7	31
0.0067	-0.0046	-0.0046	0.003	81.1	31
0.012	-0.003	0.0007	0.0067	80.8	31
0.0127	-0.0008	0.0082	0.009	81.2	31
0.009	0.0007	0.0142	0.0105	80.8	31
0.009	0.0007	0.0187	0.0105	80.9	31
0.0082	-0.0008	0.018	0.0097	80.9	31
0.0082	-0.003	0.0157	0.009	80.8	31
0.0045	-0.0015	0.0127	0.0067	80.6	31
-0.0015	0	0.0097	0.006	81.1	31
-0.003	0.0007	0.0067	0.0045	80.6	31
-0.0038	0.0015	0.0067	0.0045	81	31
-0.0053	0.0007	0.0067	0.0022	80.7	31
-0.003	0.0007	0.009	0.0045	80.8	31
-0.0008	0.0007	0.0067	0.0045	81	31
0.0045	0	0.0045	0.0022	80.7	31
0.0067	-0.0008	0.006	0.0015	81	31
0.0067	-0.0015	0.0052	0.0015	80.6	31
0.0052	-0.0015	0.0052	-0.0008	81	31
0.0015	-0.0015	0.0045	-0.0038	80.7	31
-0.0015	-0.003	-0.0008	-0.0053	80.8	31
-0.0105	-0.0038	-0.0023	-0.0068	80.8	31
-0.0225	-0.0015	-0.0053	-0.0068	80.9	31
-0.0278	-0.003	-0.0068	-0.0053	80.7	31
-0.0308	-0.003	-0.0091	-0.0046	80.8	31
-0.0293	-0.003	-0.012	-0.0053	80.8	31
-0.0203	-0.003	-0.0135	-0.0068	80.7	31
-0.0128	-0.0015	-0.0143	-0.0046	80.9	31
-0.0083	-0.0008	-0.0158	-0.003	80.5	31
0.0015	0.0007	-0.0188	-0.0038	81	31
0.0075	0.0007	-0.0181	-0.0046	80.5	31
0.006	0	-0.0128	-0.0053	80.9	31
0.0052	0.0007	-0.0075	-0.003	80.5	31
0.0255	0.003	-0.0023	-0.0023	81	31
0.0615	0.0045	0.0015	-0.0038	80.5	31
0.0697	0.0045	0.0022	-0.0046	80.8	31
0.0645	0.0022	0.0045	-0.0046	80.7	31
0.0532	0.0007	0.0075	-0.0008	80.6	31
0.033	0.0007	0.006	0.0022	80.6	31
0.012	-0.0023	0.006	0.0052	80.5	31
-0.0173	-0.003	0.0045	0.0075	80.7	31
-0.0346	-0.003	0.0045	0.009	80.5	31
-0.0495	-0.0046	0.0052	0.0082	80.8	31
-0.078	-0.0046	0.0052	0.0045	80.4	31
-0.1043	-0.0068	0.003	0.003	80.7	31
-0.114	-0.0053	0.0015	0.0067	80.3	31
-0.0915	0.0007	0.0015	0.0105	80.7	31
-0.0503	0.0037	0.0007	0.0082	80.5	31
-0.0285	0.0045	0.0007	0.0052	80.5	31
0	0.0075	0.0007	0.0045	80.5	31
0.0255	0.0067	-0.0023	0.0052	80.5	31
0.024	0.0052	-0.0023	0.0067	80.5	31
0.012	0.003	-0.0015	0.0052	80.5	31
-0.0083	0.0015	-0.003	0.0067	80.4	31
-0.0188	-0.0008	-0.003	0.0067	80.4	31
-0.027	-0.0023	-0.0046	0.0037	80.4	31
-0.015	-0.003	-0.0083	0.003	80.3	31
0.0075	-0.003	-0.0083	0.003	80.5	31
0.012	-0.0023	-0.0075	0.0015	80.3	31
0.0255	-0.0038	-0.0091	0.0015	80.5	31
0.0427	-0.0023	-0.0068	0.0007	80.5	31
0.0472	-0.003	-0.0046	-0.0008	80.4	31
0.0495	-0.0046	0.0015	0	80.4	31
0.0502	-0.0046	0.0052	-0.0015	80.2	31
0.0427	-0.0053	0.0067	-0.003	80.5	31
0.0442	-0.0046	0.0097	-0.0015	80.1	31
0.0495	-0.0053	0.0105	0.0015	80.5	31
0.0405	-0.0046	0.0082	0.0022	80	31
0.0292	-0.0053	0.0052	0.0015	80.3	31
0.0277	-0.0053	0.0045	0.0022	80.3	31
0.0157	-0.0046	0.0015	0.0052	80.2	31
-0.0023	-0.0046	0.0015	0.0052	80.1	31
-0.0143	-0.0023	0.0015	0.0052	80.5	31
-0.0218	-0.0023	0.0015	0.0075	79.9	31
-0.0263	-0.0015	0.0015	0.006	80.4	31
-0.0353	-0.0015	0.0015	0.0045	80.1	31
-0.039	0.0007	0.0015	0.0045	80.3	31
-0.0338	0.0007	-0.0023	0.003	80.2	31
-0.0195	0.0007	-0.0068	0.0015	80.1	31
-0.0068	0	-0.0091	-0.0015	80.4	31
0.0015	0.0015	-0.0105	-0.003	79.9	31
0.018	0.0045	-0.012	-0.003	80.4	31
0.0277	0.0052	-0.012	-0.0023	80.1	31
0.0405	0.003	-0.0083	-0.0015	80.2	31
0.06	0.0052	-0.003	0	80.2	31
0.0615	0.0067	-0.0008	0.0015	80	31
0.0465	0.0045	0.0037	0.0022	80.2	31
0.0172	0.0037	0.0082	0.0037	80.3	31
-0.0091	0.0007	0.0075	0.0015	80.2	31
-0.0248	-0.0008	0.006	0.0022	80.2	31
-0.0346	0	0.0067	0.0037	80.4	31
-0.039	-0.0008	0.0067	0.0007	80.1	31
-0.0533	-0.003	0.0067	-0.0008	80.5	31
-0.0503	-0.0038	0.0067	0.0007	80.2	31
-0.0293	-0.0023	0.0052	0.0007	80.5	31
-0.006	-0.003	0.0045	0.0007	80.2	31
0.027	-0.0008	0.0037	0.0007	80.5	31
0.0412	-0.0008	0.003	0.0007	80.4	31
0.0405	-0.0008	0.0015	0.0015	80.2	31
0.0367	0	-0.0015	0.0022	80.5	31
0.0277	0	-0.0008	0.0022	80.5	31
0.0202	0.0007	0.0007	0.0022	80.6	31
0.0082	0.003	0.0007	0.0007	80.3	31
-0.0098	0.0045	-0.0008	-0.0008	80.4	31
-0.0465	0.0045	-0.0015	-0.0008	80.2	31
-0.078	0.0015	0.0007	-0.003	80.7	31
-0.0803	-0.0038	0.0015	-0.0046	80.2	31
-0.0653	-0.0038	0.0007	-0.003	80.6	31
-0.0465	-0.0046	-0.0008	-0.0015	80.5	31
-0.0346	-0.006	-0.0008	0	80.5	31
-0.0346	-0.0038	0	0.0007	80.6	31
-0.0278	-0.0038	-0.0008	0.0015	80.3	31
-0.0023	-0.0038	0.0007	0.003	80.8	31
0.0217	-0.0015	-0.0008	0.003	80.2	31
0.0382	-0.0015	-0.0038	0.0022	80.9	31
0.0465	-0.0015	-0.003	0.0037	80.5	31
0.0405	-0.003	-0.0023	0.0052	80.6	31
0.0277	-0.0015	-0.0015	0.0045	80.7	31
0.0165	-0.0023	-0.0015	0.0045	80.7	31
0.009	-0.0023	-0.0015	0.0052	80.6	31
0.0015	-0.0015	-0.0023	0.0052	80.6	31
-0.0008	-0.0015	-0.0023	0.0067	80.8	31
0.0045	0.0007	-0.0015	0.0067	80.5	31
0.0135	0.0022	-0.0008	0.006	80.9	31
0.024	-0.0008	-0.0023	0.0045	80.5	31
0.0502	-0.0015	-0.003	0.0007	81	31
0.084	-0.0008	-0.0015	-0.0008	80.6	31
0.0892	0.0007	-0.003	0.0007	81	31
0.069	0.0015	-0.0015	0.0015	80.6	31
0.0457	-0.0008	-0.0008	0.0007	80.9	31
0.0127	0.0015	0.0007	0.0022	80.9	31
-0.0233	0.0007	0.0007	0.003	80.7	31
-0.0518	0.0015	-0.0015	0.003	81	31
-0.0825	0.0037	-0.0008	0.0037	80.9	31
-0.1155	0.0007	0.0015	0.0015	80.9	31
-0.1283	-0.0015	0.0015	0	81	31
-0.1118	-0.0008	0.0015	-0.0015	81	31
-0.0721	0.0007	0.003	0.0007	80.7	31
-0.0293	0	0.0022	0.0015	81	31
-0.0173	0.0007	0.0015	0.003	80.9	31
-0.0135	0.0015	0.0045	0.0015	81	31
-0.003	0.0007	0.0052	0.0007	81	31
0.012	-0.0008	0.0045	0.0015	80.9	31
0.0217	-0.0015	0.0045	0.0022	81.2	31
0.018	-0.0015	0.0052	0.0022	80.8	31
0.0255	-0.0023	0.003	0.0022	81.3	31
0.0292	-0.003	0.0007	0.0045	80.9	31
0.0292	-0.0053	-0.0015	0.0045	81	31
0.0307	-0.0068	-0.0046	0.0015	81	31
0.0382	-0.0068	-0.0053	0.003	81	31
0.0465	-0.0083	-0.0053	0.0015	81.1	31
0.039	-0.0068	-0.003	-0.0015	81.4	31
0.0292	-0.0046	-0.003	-0.0015	80.9	31
0.0202	-0.0015	-0.0046	0.0007	81.1	31
0.012	-0.0015	-0.0038	0.0015	81.2	31
0.0045	-0.0008	-0.0046	0.0007	81.1	31
-0.0015	0	-0.0015	0	81.2	31
-0.0158	-0.0015	-0.0008	-0.0008	81	31
-0.0256	-0.0015	0	-0.0008	81.3	31
-0.012	0.0007	0.003	0.0007	81	31
0.003	-0.0015	0.0007	0	81.3	31
0.0127	-0.0008	-0.0023	-0.0023	81.4	31
0.015	-0.0008	-0.0046	-0.0038	81.1	31
0.015	-0.0008	-0.0053	-0.0038	81.4	31
0.0105	0	-0.006	-0.0008	81.2	31
0.0052	-0.0023	-0.0053	0	81.2	31
0.009	-0.0046	-0.0053	0.0007	81.3	31
0.0202	-0.003	-0.0053	0.0052	81.1	31
0.0262	-0.0008	-0.003	0.0067	81.2	31
0.0142	0	0.0007	0.0082	81.4	31
0.0135	0.0015	0.0022	0.0082	81	31
0.0352	0.0015	0.0045	0.0052	81.5	31
0.0427	0.0007	0.0037	0.003	81	31
0.0105	0.0015	0.0037	-0.003	81.4	31
-0.027	0.0007	0.0045	-0.0053	81.1	31
-0.0615	-0.0015	0.0052	-0.0038	81.2	31
-0.093	-0.0015	0.009	-0.003	81.3	31
-0.09	-0.0015	0.0075	-0.0023	81.1	31
-0.0825	-0.0015	0.0037	-0.0023	81.4	31
-0.0668	-0.0008	0.0022	-0.003	81.1	31
-0.0495	0.0007	0.0045	-0.0015	81.3	31
-0.024	0.0022	0.0052	-0.0008	81.3	31
0.0015	0.0007	0.0007	0	81.2	31
0.0097	0.003	-0.0015	0.0015	81.1	31
0.0217	0.0052	-0.0008	0.003	81.4	31
0.012	0.0052	0	0.0045	81.2	31
0.0082	0.0067	-0.0015	0.0037	81.3	31
0.006	0.0045	-0.0038	0.003	81.2	31
0.003	0.0037	-0.003	0.003	81.2	31
0.0127	0.0015	-0.003	0.003	81.4	31
0.042	0	-0.0023	0.0015	81	31
0.0607	-0.0008	-0.0008	0.0022	81.4	31
0.0405	-0.0008	0.0007	0.0037	81.1	31
0.033	-0.0015	0.0007	0.0037	81.4	31
0.0232	-0.0008	-0.0015	0.0045	81.1	31
0.018	-0.0008	0.0007	0.0045	81.1	31
0.0127	0	0.0007	0.0037	81.4	31
0.003	-0.0015	-0.0008	0.003	81.2	31
-0.003	-0.003	0	0.0015	81.1	31
-0.0218	-0.0015	0.0007	0.0015	81.2	31
-0.0203	-0.0008	0.0015	0.0022	81.4	31
-0.006	-0.0008	0.0007	0.0037	81	31
0.0075	-0.0008	-0.0008	0.0052	81.4	31
0.0097	0.0007	0.0007	0.003	80.9	31
-0.0098	-0.0008	-0.0015	0.0007	81.3	31
-0.0263	-0.003	-0.0015	0.003	81	31
-0.033	-0.003	-0.003	0.0015	81.2	31
-0.0293	-0.0008	-0.0053	0.003	81	31
-0.024	0	-0.003	0.0045	81	31
-0.0143	0.0007	-0.0015	0.0045	81.3	31
-0.0008	0	-0.0023	0.0045	81	31
-0.0015	0.0007	-0.003	0.0052	81.3	31
-0.003	0.0045	-0.003	0.0082	81.1	31
0.0105	0.0045	0.0007	0.0082	81	31
0.0217	0.003	0.003	0.0082	81	31
0.0262	0.0022	0.003	0.0082	81.2	31
0.0382	0.003	0.0022	0.0082	81	31
0.0382	-0.0008	0.003	0.0067	81.1	31
0.0345	-0.0023	0.0015	0.0052	81	31
0.024	0.0007	0.0007	0.003	80.9	31
0.0052	0.003	0.0007	0	81.2	31
-0.0075	0.0007	-0.0008	-0.003	80.8	31
-0.024	-0.0015	0.0007	-0.0038	81.1	31
-0.0375	-0.003	0.0022	-0.0023	80.6	31
-0.0308	-0.0046	0.0015	-0.0023	81	31
-0.0195	-0.0015	-0.0008	-0.003	80.6	31
-0.0143	-0.0023	-0.0008	-0.0015	81	31
-0.0015	-0.0046	0.0007	-0.0015	80.8	31
-0.0015	-0.0038	-0.0015	-0.0008	80.8	31
-0.0068	-0.003	-0.003	0.0015	80.9	31
0.0015	-0.0008	-0.0008	0.0015	80.7	31
0.0217	-0.0015	0.0015	0.0052	80.4	31
0.027	-0.0015	0.0052	0.0075	80.9	31
0.0202	-0.0008	0.0052	0.0075	80.5	31
0.0232	0.0015	0.0015	0.0105	80.7	31
0.015	0	0.0022	0.0105	80.5	31
0.0105	-0.0015	0.003	0.0105	80.5	31
0.009	-0.0015	0.0045	0.0112	80.5	31
0.0165	-0.0023	0.0052	0.0127	80.2	31
0.033	-0.0008	0.003	0.0112	80.5	31
0.0465	-0.0015	0.0007	0.0105	80.1	31
0.0502	-0.0015	-0.0023	0.0105	80.2	31
0.0307	0.0015	-0.0015	0.009	80.2	31
0.0217	0	0	0.0082	79.9	31
0.0127	-0.0008	0	0.0067	80	31
-0.0143	0.0007	-0.0008	0.0075	80	31
-0.042	0.0007	0	0.0052	80	31
-0.0473	0.003	0.0015	0.0037	79.9	31
-0.0413	0.0015	0.003	0.0037	79.8	31
-0.0405	0.0015	0.0015	0.0022	79.6	31
-0.0443	0.0022	-0.0015	0.0015	80	31
-0.0518	-0.0023	-0.0015	0.0015	79.5	31
-0.054	-0.0015	-0.003	0.003	79.9	31
-0.0503	0.0007	-0.0015	0.0037	79.4	31
-0.0458	-0.0008	-0.0008	0.0037	79.8	31
-0.057	-0.0038	-0.0015	0.0007	79.2	31
-0.0443	-0.0053	-0.0023	-0.0008	79.5	31
-0.0053	-0.0053	-0.006	0.0015	79.2	31
0.018	-0.0053	-0.0075	0.0015	79.2	31
0.0292	-0.0046	-0.0046	-0.0008	79.1	31
0.0232	-0.0046	-0.0053	0	79.1	31
0.024	-0.0046	-0.0046	0	79.1	31
0.0292	-0.0053	-0.0023	-0.0008	78.9	31
0.0345	-0.0046	-0.0038	-0.0008	78.9	31
0.039	-0.0023	-0.003	-0.0015	78.6	31
0.0352	0.0015	-0.0023	0	79	31
0.0345	0.0015	-0.0008	-0.0008	78.5	31
0.0345	0.0007	-0.0008	-0.0015	78.7	31
0.045	0.003	-0.0038	-0.0015	78.3	31
0.0525	0.003	-0.0038	-0.0015	78.5	31
0.0435	0.0015	-0.0015	-0.003	78.2	31
0.027	0.0007	0	-0.006	78.2	31
-0.0038	0.0015	0.0022	-0.0068	78.3	31
-0.0293	0	0.0052	-0.006	77.9	31
-0.0383	-0.0008	0.0052	-0.0046	78.1	31
-0.0503	-0.0015	0.003	0	77.8	31
-0.0495	-0.0015	0.0022	0	77.8	31
-0.0368	-0.0015	0.0015	0.0007	77.7	31
-0.0083	-0.003	0.0022	0	77.6	31
0.0217	-0.0023	-0.0008	-0.0008	77.3	31
0.0292	-0.0046	-0.0015	-0.0015	77.5	31
0.0532	-0.0038	-0.003	0	77.3	31
0.0667	-0.0008	-0.0023	-0.0008	77.1	31
0.0427	-0.0015	-0.003	-0.0023	77.1	31
0.0105	0.0007	-0.003	-0.0008	76.9	31
-0.0225	0.0037	0.0015	0.0007	77.2	31
-0.042	0.0052	0.0022	-0.003	76.6	31
-0.0691	0.003	0.0015	-0.0046	77	31
-0.0945	0.0007	-0.0008	-0.0046	76.3	31
-0.09	0	-0.0008	-0.0038	76.7	31
-0.078	0.0007	0.003	-0.0015	76.3	31
-0.0503	0.0015	0.003	-0.0008	76.4	31
-0.0075	0.0022	0.0007	-0.0008	76.1	31
0.0097	0.0015	-0.0015	-0.0015	76	31
0.0097	0.0007	-0.0015	-0.0008	76	31
0.015	-0.0015	0.0007	-0.0015	76	31
0.0315	-0.0015	-0.0008	-0.0038	75.6	31
0.0382	-0.003	-0.003	-0.0023	75.6	31
0.0322	-0.0053	-0.003	0	75.6	31
0.0307	-0.0038	-0.0046	0.0007	75.1	31
0.0127	-0.0023	-0.0046	0.0007	75.4	31
0.006	-0.0023	-0.0015	0.003	75.1	31
0.0217	-0.003	0.0007	0.0015	75.1	31
0.0427	-0.0023	0.0022	0.0007	75	31
0.054	0	0.0022	0.0045	74.7	31
0.0615	0.003	0.0045	0.006	74.9	31
0.0795	0.0015	0.006	0.0045	74.5	31
0.0825	-0.0008	0.0097	0.0015	74.7	31
0.0585	-0.0015	0.0112	-0.0008	74.4	31
0.0067	-0.0008	0.0112	-0.0015	74.3	31
-0.0645	-0.0008	0.0082	-0.0023	74.2	31
-0.1065	-0.0008	0.0052	-0.0053	74.3	31
-0.1043	0.0007	0.0052	-0.003	73.6	31
-0.0938	-0.0015	0.0015	-0.0008	74.1	31
-0.0735	-0.0015	-0.0015	-0.0008	73.6	31
-0.0503	-0.0015	-0.0046	-0.0008	73.6	31
-0.03	-0.0015	-0.0083	-0.003	73.5	31
-0.012	0	-0.0091	-0.0023	73.3	31
0.0007	0	-0.0083	0	73.4	31
0.0165	0.0015	-0.0046	-0.0015	73.1	31
0.0045	0.0015	-0.003	-0.0015	73.2	31
-0.0038	0.003	-0.003	0	72.8	31
0.0052	0.003	-0.0038	0.0015	72.8	31
0.0202	0.0015	-0.003	0.003	72.6	31
0.0315	0.0007	-0.0015	0.0015	72.4	31
0.024	-0.003	-0.003	0.0022	72.4	31
0.0232	-0.0038	-0.0046	0.0022	72.2	31
0.0112	-0.0046	-0.006	0.0007	72.1	31
0.0007	-0.0053	-0.0038	0.0007	72.1	31
0.0022	-0.0075	-0.003	0.0007	72	31
0.0255	-0.0083	-0.0038	0.0015	71.6	31
0.0382	-0.0083	-0.0008	0.003	71.8	31
0.0345	-0.0091	-0.0008	0.003	71.4	31
0.0532	-0.0075	0.0015	0.0037	71.7	31
0.063	-0.0083	0.0045	0.0037	71.1	31
0.063	-0.0075	0.0075	0.003	71.3	31
0.0577	-0.0068	0.009	0.0015	71	31
0.033	-0.0068	0.006	-0.0015	71	31
0.0007	-0.0038	0.006	-0.0008	70.9	31
-0.039	-0.0008	0.0037	0	70.7	31
-0.0856	0	0.0037	-0.0015	70.5	31
-0.1163	0.0015	0.003	-0.0008	70.3	31
-0.1133	0.003	0.0007	0.0007	70.2	31
-0.0915	0.0052	0.0022	0.0007	70	31
-0.06	0.009	0.0015	0.0007	70.2	31
-0.0315	0.0067	0.0022	-0.0008	69.7	31
-0.0098	0.0045	0.0007	-0.0023	70	31
0.012	0.006	-0.0015	-0.0008	69.5	31
0.0225	0.0067	-0.003	0.0015	69.6	31
0.0262	0.0052	-0.0038	0.003	69.4	31
0.0277	0.0045	-0.0046	0.003	69.1	31
0.0255	0.0037	-0.0046	0.003	69.3	31
0.036	0.003	-0.0046	0.0007	68.9	31
0.0675	0.003	-0.0038	0.0007	69.1	31
0.0892	0.003	-0.0015	0	68.6	31
0.1147	0.0037	-0.0008	0.0015	68.8	31
0.1395	0.0022	-0.0008	0.003	68.8	31
0.1072	0.003	0.0007	0.0015	68.7	31
0.06	-0.0008	0.0022	0.0015	68.6	31
0.015	-0.0015	0.003	-0.0015	68.7	31
-0.0488	0.0015	0.0052	-0.003	68.3	31
-0.114	-0.0008	0.006	-0.003	68.5	31
-0.1403	-0.0008	0.0045	-0.0023	68.4	31
-0.1245	-0.0038	0.0045	0	68.2	31
-0.123	-0.0053	0.0052	0.0022	68.3	31
-0.1013	-0.003	0.0045	0.006	67.9	31
-0.0525	-0.0008	0.003	0.0082	68.2	31
-0.045	-0.0015	0.0015	0.0105	67.8	31
-0.0548	-0.0015	-0.0008	0.0082	68.1	31
-0.0413	0.0007	-0.0008	0.006	67.5	31
-0.0173	0.0015	-0.0008	0.006	67.6	31
0.0135	0.0007	-0.0038	0.0015	67.5	31
0.0345	0.0007	-0.0046	-0.0023	67.3	31
0.045	0.0007	-0.0053	-0.0015	67.2	31
0.048	0.0007	-0.0068	-0.0015	67.1	31
0.051	0	-0.0068	-0.0008	66.9	31
0.054	-0.0008	-0.003	-0.0015	66.9	31
0.048	-0.0008	-0.0015	0.0007	66.7	31
0.0517	0	-0.0015	0.003	66.6	31
0.0592	-0.0015	-0.003	0.0037	66.6	31
0.0577	-0.0038	-0.0046	0.0052	66.3	31
0.048	-0.0023	-0.0046	0.006	66.3	31
0.0315	-0.0038	-0.0015	0.006	66	31
-0.0046	-0.0053	0.0007	0.0045	65.9	31
-0.0218	-0.0046	0.0007	0.0052	65.7	31
-0.0263	-0.006	-0.0008	0.0037	65.6	31
-0.0361	-0.006	0.0015	0.0022	65.6	31
-0.021	-0.0053	0.003	0.003	65.3	31
-0.0181	-0.0046	0.003	0.003	65.2	31
-0.0308	0.0007	0.003	0.0037	65.2	31
-0.03	0.0037	0.0007	0.0045	64.8	31
-0.0285	0.0015	0.0007	0.0045	64.7	31
-0.0623	0.0007	0	0.003	64.8	31
-0.066	0.0007	0.0007	0.0015	64.5	31
-0.0165	-0.0015	0.0022	0.0022	64.8	31
0.0142	-0.0015	0.0007	0.0022	64.1	31
0.0142	-0.0008	0.0007	0.0015	64.5	31
0.0112	0	-0.0008	0.003	64	31
0.012	0.0007	-0.003	0.0015	64.3	31
0.0075	-0.0015	-0.0046	0.0007	64	31
0.015	-0.0015	-0.0046	0.0015	63.8	31
0.0315	-0.0015	-0.0053	0.0007	63.9	31
0.0285	-0.0046	-0.0046	0.0007	63.6	31
0.018	-0.003	-0.0015	0.0007	63.6	31
0.0465	-0.003	0	-0.0008	63.3	31
0.1117	-0.0046	0.0007	0.0007	63.4	31
0.1642	-0.003	0.0007	0.0007	63.2	31
0.18	-0.003	0.0015	-0.0015	63.4	31
0.1282	-0.0046	0.006	-0.0015	62.9	31
0.0465	-0.0046	0.0067	0.0007	63.1	31
0.0015	-0.0046	0.0082	-0.003	62.7	31
-0.0721	-0.006	0.009	-0.0068	62.8	31
-0.183	-0.0068	0.0082	-0.0053	62.7	31
-0.2385	-0.006	0.006	-0.0008	62.5	31
-0.2063	-0.0046	0.0045	0.0007	62.5	31
-0.1305	-0.0015	0.003	0.0015	62.3	31
-0.0638	0	0.0015	0.0015	62.4	31
-0.0181	0.0015	-0.0008	0.0022	61.7	31
-0.024	0.0007	-0.0008	0.003	62	31
-0.0158	0.0015	-0.0015	0.0015	61.7	31
0.0195	0.0007	-0.0015	0.0015	61.7	31
0.021	0	0	0.003	61.5	31
0.0142	0.0015	0.0007	0.003	61.4	31
0.0045	0	0	0.003	61.2	31
0.0195	0.0015	0	0.0045	61.2	31
0.042	0.003	-0.0008	0.0045	61	31
0.0472	0.003	-0.003	0.0052	60.8	31
0.0487	0.006	-0.0023	0.0052	61	31
0.048	0.0075	-0.0038	0.003	60.5	31
0.0382	0.0082	-0.003	0.003	60.8	31
0.0277	0.0075	-0.0008	0.0015	60.2	31
0.0322	0.0082	-0.0015	-0.0008	60.6	31
0.033	0.0067	-0.0015	-0.0023	60	31
0.0315	0.0045	-0.0015	-0.0038	60.4	31
0.0307	0	0	-0.0046	60.1	31
-0.0046	-0.0046	-0.0008	-0.003	60	31
-0.0233	-0.0046	-0.0023	-0.0015	59.9	31
-0.0091	-0.0068	-0.0008	0	59.9	31
-0.0105	-0.0075	0.0007	0	59.5	31
0.0007	-0.0068	0.0007	0.0007	59.7	31
0.012	-0.0068	-0.0008	0.0007	59.4	31
0.0007	-0.0046	-0.0008	0.0007	59.3	31
-0.024	-0.006	-0.003	0.0022	59.4	31
-0.033	-0.0068	-0.0038	0.0015	58.9	31
-0.054	-0.0053	-0.0008	0.003	59.1	31
-0.0698	-0.0053	0.0007	0.0045	58.8	31
-0.0443	-0.0046	-0.0008	0.0067	58.9	31
-0.0046	-0.0015	-0.0015	0.0075	58.7	31
0.039	0.0015	-0.0008	0.0052	58.6	31
0.0405	0.0037	-0.0038	0.003	58.6	31
0.0307	0.0045	-0.0053	0.0022	58	31
0.0292	0.0082	-0.0038	0.0007	58.2	31
0.0427	0.0052	-0.003	-0.0008	58.2	31
0.0517	0.0037	-0.0008	-0.0008	58.1	31
0.0517	0.003	0.0015	-0.0008	58	31
0.063	0.0015	0.0007	0.0007	58	31
0.051	0.0015	0	0.0015	57.6	31
0.0442	0.0015	0.0007	0.0022	57.8	31
0.033	0.0015	0.0015	0.0015	57.3	31
0.0082	-0.0023	0.0022	-0.0015	57.6	31
-0.0173	-0.003	0.0022	-0.0015	56.9	31
-0.0278	-0.0015	0.0022	0.0007	57.4	31
-0.0346	0	0.0022	0.0022	57	31
-0.0608	-0.0008	0.0007	0.0045	56.9	31
-0.06	-0.0015	-0.0015	0.006	56.9	31
-0.0758	-0.0038	-0.0046	0.0037	56.6	31
-0.1133	-0.0053	-0.006	0.0037	56.7	31
-0.1028	-0.006	-0.006	0.006	56.4	31
-0.0525	-0.0046	-0.0023	0.0052	56.4	31
-0.0233	-0.003	0	0.0037	56.3	31
-0.0203	-0.0023	0.0007	0.0022	56.3	31
-0.0083	0.0007	0.0015	0.0015	55.9	31
-0.0068	0.0022	0.0045	0.0015	56	31
-0.0105	0.0037	0.0067	0.003	55.7	31
-0.0143	0.0045	0.0067	0.003	55.6	31
-0.0015	0.0052	0.0082	0.0037	55.6	31
0.0352	0.0052	0.0067	0.0045	55.3	31
0.0495	0.003	0.0045	0.0045	55.6	31
0.0487	0	0.0045	0.003	55	31
0.0517	0.0007	0.0007	0.0015	55.3	31
0.0712	0.0015	-0.0023	0.0007	54.8	31
0.0825	0.0015	-0.0053	0	55.1	31
0.054	0.0007	-0.0046	0.0007	54.9	31
0.027	-0.0008	-0.003	0.0022	54.7	31
0.0022	0.0007	-0.0075	0.0015	54.6	31
-0.0158	0.0015	-0.012	0.0007	54.6	31
-0.0518	0.0015	-0.0068	-0.0015	54.4	31
-0.0998	-0.0015	-0.0015	-0.0038	54.2	31
-0.0825	0	0.0015	-0.0015	54.4	31
-0.0361	0.003	0.009	-0.003	53.8	31
-0.0075	-0.0008	0.012	-0.0046	54.4	31
-0.0068	-0.0038	0.0105	-0.003	53.7	31
-0.0023	-0.003	0.0075	-0.0046	53.9	31
-0.0105	-0.0008	0.0052	-0.0008	53.6	31
-0.0128	0.0007	0.0037	0.0007	53.7	31
0.0217	0.0007	0.003	0.0015	53.6	31
0.036	0.003	0.0015	0.0015	53.2	31
0.0367	0.0015	0.0022	0.0007	53.5	31
0.0322	0.0015	0.0015	0.0015	53.1	31
0.0352	-0.003	-0.003	0.0015	53.1	31
0.057	-0.0053	-0.003	0.0037	52.9	31
0.1087	-0.003	-0.0015	0.0015	52.9	31
0.1552	-0.0053	-0.0053	0.0015	52.6	31
0.1365	-0.0053	-0.003	0.003	52.8	31
0.0892	-0.0053	-0.0015	0.0045	52.7	31
0.0232	-0.0046	-0.0008	0.0045	52.4	31
-0.048	-0.0038	0.0015	0.0052	52.5	31
-0.1381	-0.0046	0.0045	0.0045	52.2	31
-0.2475	-0.003	0.003	0.0015	52.4	31
-0.2595	-0.0008	0.0022	0.0022	51.8	31
-0.1688	0.0007	0.0022	0.0015	52.2	31
-0.0735	-0.0008	-0.0023	0.0022	51.7	31
-0.0181	0.0007	-0.0046	0.0045	51.7	31
0.009	0.0007	-0.0046	0.0037	51.6	31
0.0352	-0.0015	-0.0053	0.0015	51.3	31
0.0825	-0.003	-0.0075	0.0015	51.5	31
0.1282	-0.003	-0.0083	0.0015	51.3	31
0.12	0.0007	-0.0053	0.003	51.2	31
0.0802	0.0015	-0.0046	0.0045	51	31
0.0405	0	-0.006	0.003	51	31
0.03	0	-0.0053	0.003	50.8	31
0.0135	-0.0038	-0.003	0.0015	50.9	31
-0.027	-0.0053	-0.0008	0.0007	50.5	31
0.0285	-0.003	0.0022	0.003	50.7	31
0.1185	-0.0008	0.0037	0.0045	50.4	31
0.114	-0.0008	0.0015	0.006	50.4	31
0.0742	0.0015	0.0015	0.006	50.3	31
-0.0165	0.0007	0.003	0.0045	50.1	31
-0.1275	-0.0008	0.0052	0.0022	50.2	31
-0.1883	0	0.0052	0.0007	49.8	31
-0.237	-0.0008	0.006	0.0007	49.9	31
-0.1748	-0.0008	0.0052	-0.0008	49.7	31
-0.0915	0.0045	0.0022	-0.0008	49.5	31
-0.0278	0.0067	0	0.0007	49.6	31
0.0262	0.0052	-0.0015	0.0037	49.5	31
0.0307	0.0052	-0.003	0.0045	49	31
0.0382	0.0052	-0.0015	0.0045	49.5	31
0.0187	0.0052	0	0.0045	49	31
0.0465	-0.0015	0.0015	-0.0008	49.2	31
0.0772	-0.003	0.0022	0	48.6	31
0.0802	-0.0008	-0.0008	0	48.8	31
0.0765	-0.003	-0.0008	-0.003	48.6	31
0.039	-0.0008	-0.0015	-0.003	48.4	31
0.0135	0.0015	-0.003	-0.003	48.6	31
0.0435	-0.0008	-0.003	-0.0038	48.2	31
0.0915	-0.0053	-0.0023	-0.0046	48.4	31
0.09	-0.0053	-0.003	-0.0046	48.1	31
0.0802	-0.003	-0.0053	-0.003	48	31
0.0247	-0.0046	-0.003	0.0015	48	31
-0.027	-0.003	0	0.003	47.8	31
-0.0953	-0.0023	0.0037	0.003	47.5	31
-0.1883	-0.0038	0.0075	0.0022	47.8	31
-0.1635	-0.0038	0.0067	0.0015	47.2	31
-0.1193	-0.0023	0.0045	0.0022	47.5	31
-0.0518	0.0007	0.003	0.0037	47.2	31
0.0217	0	0.003	0.0015	47.2	31
0.03	0.0022	0.0015	0.0007	47.1	31
0.0427	0.0067	-0.0023	0.0022	46.8	31
0.0585	0.0097	-0.0075	0.0022	47	31
0.0645	0.012	-0.0091	0.0022	46.4	31
0.0607	0.0052	-0.0046	0.0015	46.8	31
0.039	-0.0015	0.0052	-0.0008	46.3	31
0.0082	-0.0053	0.0105	-0.0038	46.5	31
-0.0233	-0.006	0.0022	-0.0046	46.3	31
-0.0233	-0.0068	-0.0068	-0.0053	46.1	31
0.0217	-0.0098	-0.012	-0.0046	46.1	31
0.0652	-0.0091	-0.0128	-0.0015	46	31
0.0742	-0.0091	-0.0083	-0.0008	45.9	31
0.0922	-0.0091	-0.0053	0.0007	45.6	31
0.0937	-0.0083	-0.0015	0.0015	45.8	31
0.03	-0.0075	-0.0008	0.0015	45.5	31
-0.0353	-0.0046	0.0015	0.003	45.6	31
-0.096	-0.0008	0.0082	0.003	45.1	31
-0.1305	-0.0008	0.009	0.0007	45.5	31
-0.1178	0.0007	0.0127	0.0022	44.9	31
-0.0871	0.0007	0.0135	0.0052	45.2	31
-0.039	-0.0015	0.0097	0.0067	44.8	31
0.0142	0.0007	0.009	0.006	44.7	31
0.0577	0.006	0.0105	0.0052	44.7	31
0.078	0.0075	0.0052	0.0045	44.5	31
0.0517	0.0052	0.0015	0.0045	44.6	31
0.0082	0.0037	0.0045	0.0045	44.4	31
-0.021	0.0037	0.0045	0.0037	44.1	31
-0.0315	-0.0015	-0.0015	0.0007	44.3	31
-0.0443	-0.006	-0.003	-0.0023	44.1	31
-0.027	-0.0038	-0.003	-0.0008	44	31
0.0772	-0.0015	-0.0068	0.0052	44.1	31
0.1005	-0.0008	-0.0053	0.0067	43.6	31
0.0187	-0.003	-0.0046	0.009	43.7	31
-0.0525	-0.0038	-0.006	0.0105	43.4	31
-0.0953	-0.0053	-0.0135	0.0097	43.4	31
-0.0743	-0.003	-0.0263	0.0105	43.2	31
-0.0683	0.0045	-0.0353	0.0097	43	31
-0.0293	0.0037	-0.0308	0.0075	43.3	31
0.0345	0.003	-0.0113	0.0052	42.9	31
0.024	0.0022	0.0007	0.0037	42.8	31
0.0255	0.0067	0.009	0.0045	42.7	31
0.036	0.0105	0.0165	0.0037	42.6	31
0.0495	0.0135	0.0195	0.0052	42.3	31
0.0517	0.0195	0.0217	0.0052	42.5	31
0.0352	0.0202	0.0165	0.003	42	31
0.0232	0.0165	0.0165	-0.0023	42.3	31
0.0045	0.0105	0.021	-0.0053	41.8	31
-0.0135	-0.003	0.0255	-0.0091	41.9	31
-0.024	-0.0278	0.0285	-0.0105	41.8	31
-0.0091	-0.033	0.024	-0.0098	41.7	31
0.039	-0.0195	0.012	-0.0068	41.5	31
0.0847	-0.012	0.0007	-0.0023	41.2	31
0.063	-0.0075	-0.0083	0	41.4	31
0.0262	-0.0053	-0.0128	0.0015	41.1	31
-0.0083	-0.003	-0.0128	0.0045	40.9	31
-0.048	-0.0053	-0.012	0.0052	40.9	31
-0.0863	-0.0053	-0.0128	0.0052	40.8	31
-0.1073	-0.0046	-0.0105	0.0052	40.6	31
-0.0443	-0.0015	-0.0091	0.0015	40.8	31
-0.0075	0.0015	-0.0091	-0.0008	40.1	31
-0.0128	-0.0008	-0.0083	0.0015	40.5	31
-0.0023	-0.0008	-0.0053	0.0007	40	31
-0.0195	-0.0008	-0.0046	0.0007	40	31
-0.024	0	-0.0038	0.003	40.1	31
-0.0053	-0.0008	-0.0053	0.0052	39.7	31
0.0045	0.0007	-0.0083	0.0045	39.8	31
0.0127	0.003	-0.0068	0.003	39.3	31
0.018	0.0015	-0.0023	0.0052	39.6	31
0.0142	0.0007	0.0015	0.0045	39.1	31
0.0187	0.0015	0.003	0.0045	39.2	31
0.0517	0.0022	0.0052	0.0007	39.1	31
0.0915	0.0007	0.0037	-0.0015	38.8	31
0.1215	0.0015	0.003	-0.0015	38.7	31
0.1065	0.003	0.0015	-0.0008	38.8	31
0.021	0.0022	-0.0038	0.0007	38.6	31
-0.0818	0.003	-0.0023	0.0015	38.3	31
-0.1275	0.0052	0.003	0.003	38.6	31
-0.1253	0.0045	0.0037	0.0045	38	31
-0.0893	0	0.0052	0.0067	38.2	31
0.003	0.0007	0.0007	0.009	37.7	31
0.0705	0.0037	-0.0015	0.0097	37.9	31
0.0465	0.0037	0.0105	0.0067	37.4	31
-0.0008	0.0007	0.0157	0.0045	37.5	31
-0.0046	-0.0015	0.0067	0.0037	37.4	31
-0.0098	-0.0023	-0.003	0.0015	37.2	31
-0.0038	0.0015	-0.012	0	37.2	31
0.0127	0.0067	-0.0165	-0.0008	36.9	31
-0.012	0.003	-0.0068	-0.0023	36.9	31
-0.0706	-0.003	-0.0008	-0.0008	36.8	31
-0.0878	-0.0046	0.0015	-0.0015	36.5	31
-0.0615	-0.0023	0.0037	-0.0015	36.3	31
-0.0518	0.003	0.0045	-0.0023	36.5	31
-0.0338	0.0045	0.006	-0.0008	36.1	31
-0.0218	0.0082	0.009	-0.0023	36.2	31
0.0082	0.0045	0.012	-0.0053	35.8	31
0.0165	-0.0023	0.0142	-0.0075	35.8	31
0.0135	-0.0083	0.0202	-0.012	35.7	31
0.0247	-0.0233	0.018	-0.012	35.4	31
0.0277	-0.0368	0.0052	-0.0083	35.5	31
0.057	-0.0285	0.0007	-0.0023	35.1	31
0.0562	-0.0053	0.0082	0.0007	35.4	31
0.045	0.0015	0.0112	0.0007	34.8	31
0.009	0.003	-0.0046	0.0022	34.8	31
-0.0218	0.006	-0.0135	0.0052	34.7	31
-0.039	0.0082	-0.024	0.0067	34.7	31
-0.0525	0.0135	-0.033	0.0067	34.5	31
-0.0008	0.015	-0.0278	0.0067	34.7	31
0.0367	0.0142	-0.0218	0.0045	34	31
0.045	0.0165	-0.0195	0.006	34.4	31
0.042	0.018	-0.0181	0.006	33.9	31
0.0397	0.0112	-0.0181	0.003	33.9	31
0.033	-0.0038	-0.0105	0	33.7	31
0.0187	-0.0105	0.0015	-0.0046	33.6	31
0.0255	-0.0038	0.0067	-0.0046	33.7	31
0.0442	-0.0053	0.0097	-0.0046	33.3	31
0.0555	-0.0173	0.0127	-0.0053	33.7	31
0.0495	-0.0233	0.012	-0.0015	33.2	31
0.0382	-0.0165	0.0135	0	33.2	31
-0.0008	-0.0091	0.0045	0.003	33	31
-0.0338	-0.0075	-0.0053	0.0075	33	31
-0.0548	-0.0053	-0.0053	0.0067	32.8	31
-0.0691	-0.0046	-0.012	0.0067	32.8	31
-0.0593	-0.0015	-0.012	0.009	32.4	31
-0.0308	-0.0008	-0.0046	0.0067	32.7	31
-0.0053	0.0007	-0.0008	0.0037	32.3	31
-0.0181	0.0015	0.0045	0.0045	32.3	31
-0.0135	0.0037	0.0082	0.0082	32.2	31
0.0127	0.0082	0.0142	0.0082	31.9	31
0.042	0.009	0.0142	0.0075	32.1	31
0.0465	0.012	0.0112	0.0015	31.6	31
0.0105	0.0022	0.0187	-0.003	32	31
-0.0495	-0.012	0.0217	-0.006	31.6	31
-0.0803	-0.0091	0.018	-0.0068	31.9	31
-0.0383	-0.0008	0.0142	-0.006	31.6	31
-0.0181	0.0015	0.0105	-0.0046	31.3	31
-0.012	0.0075	0.003	-0.0015	31.3	31
0.0435	0.006	-0.0068	-0.0015	31.3	31
0.1027	0.003	-0.012	0.0015	31.1	31
0.0967	0.0007	-0.0256	0.0052	31	31
0.0517	0.0022	-0.0525	0.0067	31.2	31
-0.0015	0.0112	-0.0743	0.009	30.5	31
-0.1088	0.0105	-0.0615	0.0052	30.9	31
-0.2041	0.006	-0.0383	0.006	30.5	31
-0.1455	0.0052	-0.0165	0.0067	30.7	31
-0.0046	0.0067	0.0067	0.0082	30.4	31
0.069	0.0135	0.0105	0.0097	30.2	31
0.1282	0.0202	0.018	0.0105	30.4	31
0.1387	0.0217	0.0277	0.0082	30	31
0.075	0.0187	0.045	-0.006	30.1	31
0.003	-0.003	0.0637	-0.0218	29.7	31
-0.0503	-0.0353	0.0727	-0.0256	29.8	31
-0.0518	-0.0518	0.0817	-0.0218	29.7	31
-0.0338	-0.0525	0.0667	-0.0143	29.5	31
-0.0143	-0.0293	0.03	-0.006	29.3	31
-0.0105	-0.0083	0.0015	0.0007	29.6	31
-0.0068	-0.0015	-0.0083	0.0037	29.1	31
-0.0046	0.0082	-0.0128	0.0052	29.3	31
-0.012	0.0075	-0.0128	0.0052	29.1	31
-0.003	0.0045	-0.0181	0.0052	28.9	31
0.0555	0.003	-0.0225	0.0052	29	31
0.111	0.003	-0.0203	0.0067	28.7	31
0.0427	0.0015	-0.0195	0.009	28.8	31
-0.0338	0.0007	-0.0203	0.0082	28.4	31
-0.0383	0.0015	-0.0173	0.006	28.8	31
-0.0893	0.0015	-0.0098	0.0052	28.3	31
-0.1493	-0.0008	-0.0046	0.0052	28.6	31
-0.081	0	-0.003	0.0052	28.3	31
0.0397	0.0067	-0.0046	0.0082	28.1	31
0.0547	0.0097	-0.0105	0.0067	28	31
0.0435	0.012	-0.027	0.0045	28.2	31
0.0382	0.0112	-0.0293	0.003	27.6	31
0.036	0.012	-0.024	0.0037	27.9	31
0.0427	0.0127	-0.0135	0.0022	27.7	31
0.048	0.009	0.0052	0.0022	27.5	31
0.051	0.0052	0.0105	0.0022	27.6	31
0.0277	0.0022	0.009	0	27.2	31
0.009	0	0.0082	-0.0046	27.4	31
-0.0181	-0.0158	0.0127	-0.0091	27	31
-0.0263	-0.033	0.0112	-0.0068	27.2	31
-0.0225	-0.0308	0.0067	-0.0046	27	31
-0.0181	-0.0233	0.0075	-0.0023	27	31
-0.003	-0.0075	-0.0046	0.003	27	31
-0.003	0.0007	-0.0068	0.006	26.8	31
0.003	-0.0015	-0.0038	0.009	26.7	31
0.0112	0.0015	-0.0046	0.0105	26.5	31
0.0292	0.0037	-0.003	0.0112	26.4	31
0.057	0.0105	-0.0008	0.0135	26.3	31
0.057	0.0142	0.0127	0.0135	26.4	31
0.0082	0.0105	0.0187	0.012	26	31
-0.0278	0.0082	0.0067	0.009	26.3	31
-0.0143	0.0075	-0.003	0.0082	25.7	31
-0.0443	0.0052	-0.0091	0.0082	26.1	31
-0.0975	0.0082	-0.0105	0.009	25.7	31
-0.0825	0.009	-0.0128	0.0037	25.9	31
-0.0638	-0.0098	-0.0195	-0.0023	25.6	31
-0.0615	-0.039	-0.0181	-0.0053	25.5	31
-0.0308	-0.0465	-0.0083	-0.0091	25.5	31
0.0052	-0.0218	0.0007	-0.0083	25.3	31
0.0022	-0.006	0.0105	-0.0083	25.2	31
0.0007	-0.0105	0.0127	-0.0083	25.1	31
0.0217	-0.0053	0.0015	-0.0053	25	31
0.015	0.003	-0.0083	-0.0008	24.7	31
-0.0053	0.0045	-0.0083	0.003	25	31
-0.0158	0.0052	-0.0091	0.0045	24.4	31
-0.015	0.006	-0.0053	0.003	24.7	31
-0.0008	0.0007	-0.0015	0.0052	24.4	31
0.0345	0.0007	0.0007	0.006	24.4	31
0.069	0.0007	0.0067	0.0067	24.4	31
0.072	0.0052	0.012	0.0052	24.1	31
0.0397	0.0052	0.0157	0.003	24.4	31
-0.0038	0.0007	0.0157	0.0022	23.8	31
-0.0225	0.0045	0.0127	0.0022	24.1	31
-0.012	0.009	0.0142	0.0045	23.7	31
0.0345	0.0172	0.0277	0.0075	23.7	31
0.0622	0.0217	0.06	0.0082	23.6	31
0.054	0.0217	0.069	0.0052	23.5	31
0.0307	0.0127	0.0277	-0.0015	23.4	31
0.0082	-0.0053	-0.0091	-0.0083	23.3	31
-0.003	-0.0263	-0.0308	-0.0105	23.3	31
-0.0218	-0.0218	-0.0398	-0.012	23.2	31
-0.0225	-0.0046	-0.03	-0.0113	23.4	31
-0.0293	-0.0188	-0.0233	-0.0083	22.8	31
-0.0308	-0.024	-0.0195	-0.0046	23	31
-0.0248	-0.0158	-0.0165	-0.0023	22.5	31
-0.0158	-0.0091	-0.006	-0.0008	22.9	31
0.0397	-0.0008	-0.003	0.0022	22.5	31
0.1095	-0.0046	-0.012	0.006	22.5	31
0.1177	-0.0046	-0.0143	0.0082	22.5	31
0.0465	-0.006	-0.024	0.0075	22.4	31
-0.0675	-0.006	-0.0248	0.0082	22.5	31
-0.1913	-0.0053	-0.0218	0.0082	22.2	31
-0.1928	-0.0023	-0.0181	0.009	22	31
-0.0728	0.0052	-0.0113	0.0105	22.1	31
0.024	0.0142	-0.0091	0.012	22	31
0.0825	0.0225	-0.003	0.012	21.8	31
0.0697	0.0225	0.0015	0.0067	22	31
0.0352	0.012	0.0082	-0.003	21.6	31
-0.0046	0.0022	0.0195	-0.015	21.8	31
-0.0353	-0.012	0.0255	-0.0181	21.7	31
-0.0165	-0.0128	0.0217	-0.0143	21.4	31
-0.0068	0.003	0.0165	-0.0091	21.6	31
0.0075	0.003	0.0105	-0.0053	21.2	31
0.012	0.003	0.006	-0.0008	21.5	31
0.009	0.003	0.003	0.003	21.1	31
0.0015	0	0.0007	0.0037	21.5	31
-0.0075	0.0015	0.0067	0.0052	21.1	31
-0.006	0.0015	0.0097	0.0045	21.2	31
-0.0091	0.0037	-0.003	0.003	21.1	31
-0.0091	0.0082	-0.0346	0.0037	20.9	31
-0.0128	0.0195	-0.0488	0.0045	20.6	31
-0.0098	0.0225	-0.033	0.0067	21.1	31
-0.0038	0.0225	-0.0135	0.0075	20.6	31
0.0052	0.024	0.0052	0.0067	20.9	31
0.0315	0.0217	0.0195	0.0052	20.6	31
0.0457	0.0165	0.024	0.0015	20.6	31
0.0352	0.009	0.024	-0.0046	20.6	31
0.0165	-0.0008	0.0277	-0.012	20.3	31
-0.0068	-0.0256	0.03	-0.0135	20.6	31
-0.0353	-0.0555	0.0307	-0.0143	20.3	31
-0.0585	-0.0555	0.0375	-0.0113	20.5	31
-0.0511	-0.0225	0.0307	-0.0053	20.2	31
-0.0023	-0.006	0.009	-0.0023	20.2	31
0.0262	-0.0008	0.0045	0.0007	20.2	31
0.0277	0.003	0.0082	-0.0008	20.2	31
0.0255	0.0015	-0.0068	-0.0008	20.1	31
0.0022	0.0037	-0.0173	0	20.1	31
-0.0053	-0.0135	-0.0165	-0.0008	20	31
-0.012	-0.0165	-0.0218	-0.0008	19.8	31
-0.0075	-0.0075	-0.03	0.0045	20	31
0.018	-0.0098	-0.0248	0.0097	19.7	31
0.0202	-0.006	-0.0128	0.009	20	31
0.018	-0.0008	-0.0105	0.0112	19.5	31
0.0225	0.0007	-0.0046	0.012	19.8	31
0.0225	0.0142	-0.0015	0.0135	19.5	31
0.0187	0.0232	0.0052	0.012	19.7	31
0.0135	0.0217	0.012	0.0082	19.5	31
0.009	0.021	0.006	0.003	19.4	31
0.0007	0.0105	0.0135	-0.0008	19.3	31
-0.0128	0	0.0307	0	19.3	31
-0.0181	-0.0083	0.0247	0.003	19.2	31
0.0075	0	0.0015	0.0045	19.2	31
0.0105	0.0045	-0.0113	0	19.3	31
-0.0315	-0.0165	-0.024	-0.0015	18.9	31
-0.0473	-0.0428	-0.0225	-0.0015	19.2	31
-0.0413	-0.0563	-0.0143	-0.0008	18.8	31
-0.024	-0.0285	-0.0233	0.006	19.2	31
-0.0075	0.0052	-0.0203	0.0075	18.6	31
0.012	0.0067	-0.0083	0.0045	18.8	31
0.0915	0.009	-0.0008	0.0045	18.7	31
0.1515	0.009	-0.0046	0.003	18.5	31
0.0802	0.0067	-0.0128	0.0045	18.6	31
-0.0218	0.0097	-0.0218	0.0037	18.3	31
-0.0885	0.0082	-0.0346	0.0075	18.6	31
-0.1628	0.012	-0.0428	0.012	18.4	31
-0.168	0.0127	-0.0428	0.0127	18.4	31
-0.057	0.0187	-0.0293	0.0135	18.2	31
0.033	0.0247	0.0045	0.0105	18.2	31
0.0307	0.024	0.027	0.0082	18	31
0.057	0.0165	0.0457	0.003	18.2	31
0.0547	0.015	0.0592	-0.0023	18	31
0.0405	0.0157	0.0615	-0.0091	17.8	31
0.03	0.0045	0.0652	-0.0165	17.9	31
-0.0053	-0.0128	0.0457	-0.0165	17.7	31
-0.012	-0.0256	0.0262	-0.0158	18	31
-0.0218	-0.0203	0.0277	-0.012	17.5	31
-0.0091	-0.0308	0.0345	-0.0105	17.9	31
-0.0046	-0.0405	0.0307	-0.006	17.3	31
0.003	-0.0143	0.0082	0	17.8	31
0	0.0015	-0.003	0.0022	17.3	31
-0.021	-0.0015	-0.0015	0.003	17.4	31
-0.0135	-0.0015	-0.0046	0.003	17.3	31
-0.0046	-0.0008	-0.0075	0.0045	17.1	31
-0.003	0.0037	-0.0143	0.0067	17.1	31
0.033	0.0142	-0.0218	0.0075	17.3	31
0.0765	0.0217	-0.0233	0.0082	16.8	31
0.0232	0.0232	-0.027	0.0105	17	31
-0.0128	0.03	-0.0323	0.0142	16.7	31
0.0255	0.0412	-0.0383	0.0142	16.7	31
0.0052	0.0435	-0.0315	0.0082	16.7	31
-0.0315	0.024	-0.0143	-0.0008	16.6	31
-0.0023	-0.0188	0.0082	-0.0075	16.6	31
0.003	-0.0503	0.0195	-0.0113	16.4	31
-0.006	-0.0593	0.0127	-0.012	16.4	31
0.0067	-0.0465	0.0255	-0.0068	16.4	31
-0.0053	-0.0203	0.0277	-0.0053	16.2	31
-0.0091	-0.0098	0.0075	-0.0023	16.3	31
-0.0053	-0.0015	0	0	16.2	31
-0.0083	-0.0015	-0.0023	0.0015	16.2	31
-0.0113	-0.0015	-0.0038	0.0037	16.2	31
-0.0165	0.0007	-0.0053	0.0037	16	31
-0.0188	-0.0008	-0.003	0.0037	15.8	31
-0.0158	0.0037	-0.0075	0.003	16.1	31
-0.0105	0.003	-0.0181	0.003	15.5	31
-0.0181	0.006	-0.027	0.0045	16	31
-0.0181	0.0082	-0.0443	0.0067	15.3	31
-0.0008	0.0067	-0.054	0.0082	15.8	31
0.033	0.0067	-0.048	0.0112	15.5	31
0.072	0.0127	-0.0285	0.012	15.6	31
0.069	0.018	0.0105	0.0052	15.3	31
0.0217	0.0127	0.0442	-0.0038	15.2	31
