File Name: 11Amar.log
Channel 1: 'Recto femoral', 27583 values, engineering units: mV, no filters.
Channel 2: 'Biceps Femoral', 27583 values, engineering units: mV, no filters.
Channel 3: 'Vasto Medial', 27583 values, engineering units: mV, no filters.
Channel 4: 'Semitendinoso', 27583 values, engineering units: mV, no filters.
Channel 5: 'Flexo', 27583 values, engineering units: deg, no filters.
Digitals combined (event=16, d=8, c=4, b=2, a=1): 27583 values, .

0.0007	-0.0038	0.0015	-0.015	44	31
0	-0.0053	-0.0113	-0.0488	42.3	31
-0.0008	-0.0015	-0.012	-0.0405	42.1	31
0.0007	-0.0015	-0.0113	-0.0046	41.9	31
0.0007	-0.0038	-0.0128	0.036	41.8	31
0.0007	-0.0046	-0.0128	0.0555	41.6	31
0.0007	-0.0015	-0.012	0.0292	41.4	31
0	0.0045	-0.012	0.006	40.9	31
0.0007	0.0082	-0.0105	0.0195	40.7	31
0	0.0067	-0.012	0.0367	40.8	31
-0.0015	0.003	-0.0105	0.0165	40	31
-0.0023	0.0015	-0.0105	-0.0165	40	31
-0.0015	-0.0008	-0.012	-0.0135	40	31
-0.0008	-0.0015	-0.0105	0.003	39.6	31
0.0007	-0.0008	-0.0098	0	39.1	31
0	-0.0008	-0.0091	0.006	39.4	31
0	-0.0008	-0.0098	0.009	38.9	31
0.0007	0.0007	-0.0068	0.003	38.5	31
0.0007	-0.0015	-0.0046	-0.003	38.5	31
0.0007	-0.003	-0.003	-0.0046	38.2	31
-0.0008	-0.003	-0.0015	0.0142	38.1	31
0.0007	-0.0015	-0.0008	0.033	38.2	31
-0.0008	0.0007	0	0.0142	37.6	31
-0.0008	-0.0008	0.0007	-0.0413	37.4	31
-0.0008	-0.0015	0.003	-0.0413	37.3	31
0.0007	-0.0023	0.0045	-0.0203	36.8	31
0.0015	-0.0023	0.0067	-0.0323	36.9	31
0.0007	-0.0008	0.0075	-0.0308	36.4	31
0	-0.0015	0.0082	-0.027	36.2	31
-0.0015	-0.0038	0.0075	0.0082	36.2	31
-0.0015	-0.0046	0.006	0.0105	35.8	31
-0.0015	-0.0008	0.0082	0.0142	35.6	31
-0.0015	0.0015	0.0075	0.063	35.5	31
-0.0008	0.0007	0.0075	0.048	35	31
-0.0008	0.0007	0.009	-0.0008	35	31
-0.0015	-0.0008	0.0105	-0.0038	34.8	31
-0.0023	-0.0015	0.0105	-0.0015	34.6	31
-0.0008	-0.0015	0.009	0.009	34.2	31
0	-0.0023	0.0127	0.0255	34.3	31
-0.0008	-0.0015	0.0112	0.0187	33.9	31
-0.0023	-0.0008	0.0105	-0.0195	33.7	31
-0.0023	0.0007	0.0112	-0.0578	33.5	31
-0.0008	0.0007	0.0105	-0.0285	33.2	31
-0.0015	0.0007	0.0097	-0.0195	33.2	31
0.0007	-0.0008	0.0097	-0.0338	32.7	31
0	-0.0015	0.009	-0.0458	32.4	31
-0.0023	-0.003	0.0075	-0.0608	32.4	31
-0.0015	-0.0023	0.006	-0.0285	31.9	31
-0.0008	-0.0008	0.0045	0.0045	32.2	31
-0.0008	0.0007	0.0045	0.075	31.6	31
-0.0008	0.0037	0.0045	0.135	31.5	31
0	0.0015	0.0045	0.0765	31.3	31
0.0007	-0.0008	0.0037	0.0022	30.9	31
0	-0.0015	0.006	-0.0233	30.6	31
-0.0008	-0.003	0.0082	-0.0308	30.5	31
-0.0008	-0.0008	0.0075	-0.0015	30.4	31
-0.0008	-0.0008	0.0067	-0.012	30	31
-0.0008	-0.0015	0.0052	-0.0465	30.1	31
0	-0.0015	0.0045	-0.0645	29.5	31
-0.0008	-0.0015	0.0037	-0.063	29.1	31
0	-0.0008	0.0037	-0.0008	29.3	31
0.0007	0.0015	0.003	0.0307	28.7	31
0.0007	0.0022	0.003	0.0697	28.8	31
-0.0008	0.0015	0.0045	0.0825	28.4	31
0.0007	0.0007	0.0007	0.0382	28.1	31
0	0.0007	-0.0015	0.0067	27.9	31
0.0007	-0.0046	-0.0015	-0.012	27.5	31
0.0022	-0.0075	-0.0008	-0.0128	27.4	31
0.0015	-0.0091	-0.0008	-0.006	27.1	31
0.0007	-0.0068	-0.0008	-0.0173	27	31
0.0022	-0.003	0.0015	-0.0346	26.6	31
0.003	-0.0046	0	-0.0368	26.5	31
0.003	-0.0038	0.0007	-0.0323	26.4	31
0.003	-0.0008	0.0015	0.0082	25.7	31
0.0007	0.0007	-0.0008	0.0577	26.1	31
-0.0008	0.0007	-0.003	0.0427	25.3	31
-0.003	0.0015	-0.0023	-0.0188	25.4	31
-0.0038	0.0007	-0.0008	-0.0203	25.1	31
-0.0008	-0.003	0.0007	-0.024	24.7	31
0.003	-0.0015	-0.0008	-0.0458	24.7	31
0.0015	-0.0015	-0.003	-0.0473	24.4	31
-0.0008	-0.003	-0.0053	-0.0691	24.2	31
-0.0008	-0.0046	-0.006	-0.054	23.9	31
-0.0046	-0.0075	-0.0083	-0.0405	23.8	31
-0.0023	-0.0053	-0.0091	-0.0165	23.5	31
-0.0015	-0.003	-0.0068	0.0547	23.4	31
-0.0008	0	-0.0038	0.0877	23.2	31
-0.0008	-0.0008	-0.0038	0.0337	22.8	31
-0.0023	0.0007	-0.0008	-0.0091	22.9	31
-0.0008	0.0015	0.0015	0.006	22.4	31
-0.0008	0.0007	0.0015	0.0405	22.5	31
0	0.003	0.003	0.0532	22.1	31
0	0.0007	0.0007	0.0127	21.8	31
-0.0008	0	-0.0008	-0.0091	22	31
0	0	-0.0046	-0.0165	21.3	31
0	-0.0008	-0.0091	-0.0158	21.4	31
-0.0008	0	-0.0105	-0.0128	21.1	31
0.0007	-0.0008	-0.0128	-0.0015	20.8	31
-0.0008	-0.0015	-0.0128	0.0202	20.7	31
-0.0015	-0.0023	-0.0135	0.0255	20.6	31
0.0007	-0.0008	-0.0113	0.0367	20.4	31
0.0037	0.0022	-0.0083	0.0532	20	31
0.0007	0.0015	-0.0083	0.0217	20.1	31
-0.0008	0.0007	-0.003	-0.0721	19.5	31
-0.0008	0.0015	0.0007	-0.0818	19.6	31
0.0015	-0.0015	0.0037	-0.0128	19.5	31
0.0067	-0.0015	0.0022	-0.0068	19	31
0.0082	-0.0015	0.003	-0.0143	19.3	31
0.0045	-0.0015	0.0022	-0.0195	18.8	31
0	-0.0015	-0.0008	-0.0308	18.7	31
-0.0038	-0.0046	-0.0008	-0.0405	18.5	31
-0.0053	-0.0046	-0.0008	-0.045	18.2	31
-0.0046	-0.0023	0.0022	-0.0113	18.1	31
-0.0038	-0.0008	0.0045	-0.006	18	31
-0.0015	0.0007	0.0037	-0.0083	17.6	31
-0.0008	0.0007	0.0067	0.0172	17.5	31
-0.0015	-0.0008	0.006	0.024	17.3	31
-0.0008	-0.003	0.0045	-0.003	17.2	31
0.0015	-0.0046	0.0045	-0.0256	16.8	31
0.0045	-0.0046	0.003	-0.0143	17	31
0.0082	-0.0008	0.003	0.015	16.5	31
0.012	0.0045	0.0015	0.0457	16.7	31
0.0097	0.0007	0.0015	0.048	16.1	31
0.0045	-0.0053	0.0007	0.0517	16	31
-0.0008	-0.0023	0	0.0255	15.9	31
-0.0038	-0.0023	0.0007	-0.0315	15.4	31
-0.006	-0.0015	0.0015	-0.0518	15.4	31
-0.0083	-0.0023	0.0015	-0.0293	15.2	31
-0.0068	-0.0046	0.003	-0.0113	14.8	31
-0.003	-0.0068	0.0052	-0.0233	14.8	31
-0.0008	-0.0135	0.003	0.0052	14.4	31
-0.003	-0.0091	0.003	0.0285	14.4	31
-0.003	-0.0015	0.0022	0.0382	14.2	31
-0.0023	0.0015	0.0022	0.0615	14	31
-0.0008	0.0067	0.0015	0.0532	13.9	31
-0.0008	0.0097	0.0007	0.0225	13.5	31
-0.0008	0.009	0	0.0142	13.7	31
0	0.009	-0.0053	0.0142	13.2	31
0.003	0.0097	-0.0083	-0.0113	13.2	31
0.0052	0.0007	-0.0083	-0.0143	13	31
0.0022	-0.0091	-0.0083	-0.012	12.5	31
-0.0008	-0.0053	-0.0105	-0.0128	12.8	31
-0.0015	-0.0015	-0.0083	-0.0181	12.2	31
-0.0008	-0.0083	-0.003	-0.0181	12.5	31
0.0015	-0.0128	-0.0008	0.006	12.3	31
0.0007	-0.0143	0.0015	0.0285	12.1	31
-0.0008	-0.0113	0	0.0352	12	31
-0.0015	-0.012	0.0007	0.0202	11.7	31
-0.0015	-0.0105	0.0022	0.0217	11.4	31
0.0007	-0.006	-0.0015	0.024	11.4	31
0.0007	-0.0068	-0.0046	-0.003	11.4	31
0.0007	-0.0038	-0.0091	-0.0143	11.1	31
-0.0008	-0.003	-0.0128	-0.0105	11	31
-0.0038	-0.003	-0.0091	-0.0046	11	31
-0.0046	0.0037	-0.0053	0.03	10.7	31
-0.0053	0.0015	-0.0015	0.0285	11.1	31
-0.0038	-0.003	0.003	-0.015	10.5	31
-0.0015	-0.0023	0.006	-0.033	10.7	31
-0.0008	0.0097	0.0082	-0.0323	10.5	31
-0.0008	0.0232	0.0052	0	10.2	31
0.0007	0.0135	0.0022	0.0112	10.6	31
0.0022	0.003	0.003	-0.0158	10.2	31
-0.0008	0.0037	0.0037	-0.0165	10.1	31
0.003	0.0007	-0.0008	-0.03	10.2	31
0.0067	0.0105	-0.0038	-0.0525	10	31
0.0045	0.027	-0.0068	-0.0203	10.1	31
0.003	0.0217	-0.0105	0.0405	9.9	31
0.0007	0.0105	-0.012	0.0592	10.2	31
0	0.0142	-0.0143	0.0382	9.7	31
0.0007	0.0127	-0.0135	0.0052	10.2	31
-0.0008	-0.0008	-0.012	-0.006	9.6	31
0.0015	-0.006	-0.0091	0.0232	9.8	31
0.0007	-0.0098	-0.0105	0.0315	10	31
0	-0.0098	-0.0091	0	9.6	31
0	-0.0158	-0.003	-0.0285	9.9	31
-0.0015	-0.033	0.0022	-0.0495	9.4	31
-0.003	-0.042	0.0045	-0.0563	9.5	31
-0.0015	-0.0346	0.0052	-0.0503	9.6	31
0.0015	-0.0218	0.0075	-0.0195	9.6	31
-0.0023	-0.0195	0.0097	0.0105	9.6	31
-0.0053	-0.0165	0.0052	0.0015	9.6	31
-0.003	-0.0188	0.003	-0.0181	9.9	31
-0.0008	-0.0143	0.003	-0.0413	9.4	31
0	-0.003	-0.003	-0.039	9.6	31
0.0045	0.0217	-0.0046	0.0067	9.5	31
0.0067	0.0525	-0.003	0.0217	9.4	31
0.0045	0.0502	-0.003	0.0052	9.6	31
0.003	0.0397	-0.0038	0.0232	9	31
0.0015	0.0202	-0.0091	0.0532	9.5	31
0.0015	-0.0188	-0.0128	0.0412	9.2	31
0.0007	-0.024	-0.0091	-0.003	9.3	31
0	-0.0158	-0.0053	-0.024	9.4	31
0.0007	-0.0188	-0.0046	-0.0308	9.3	31
-0.0023	-0.0218	-0.0068	-0.0405	9.4	31
-0.0008	-0.0256	-0.0113	-0.0383	9.3	31
0	-0.0128	-0.0143	-0.0308	9.5	31
-0.0038	-0.0008	-0.0091	-0.0128	9.1	31
-0.0053	-0.0046	-0.0046	0.0262	9.3	31
-0.0075	-0.0075	-0.006	0.0397	9.4	31
-0.0068	-0.0068	-0.0046	0.009	9	31
-0.0046	0	-0.0053	-0.0068	9.4	31
-0.0015	0.024	-0.0053	-0.0308	9.1	31
0.0015	0.0465	-0.0023	-0.0398	9.4	31
0.003	0.0562	0.0022	-0.0443	9.4	31
0.003	0.0607	0.003	-0.0353	9.3	31
0.0007	0.0352	0	0.003	9.4	31
0.0007	0.0105	-0.0015	0.0532	9.4	31
0.0022	-0.0015	-0.003	0.0847	9.4	31
0.0015	-0.0143	-0.0046	0.0502	9.8	31
-0.0023	-0.0256	-0.006	-0.003	9.6	31
-0.0053	-0.045	-0.0091	-0.057	9.5	31
-0.0046	-0.054	-0.0098	-0.0623	9.6	31
-0.0023	-0.0518	-0.0105	-0.0346	9.8	31
0.0007	-0.0405	-0.0098	-0.0165	9.4	31
0.0007	-0.0203	-0.006	0.012	9.8	31
-0.0008	-0.0203	-0.0046	0.0105	9.7	31
0.0007	-0.0405	-0.003	0.0127	9.8	31
0.003	-0.0495	-0.0023	0.051	9.9	31
0.006	-0.0375	-0.0008	0.0532	9.7	31
0.0067	-0.0083	0.003	0.0165	9.9	31
0.0037	0.0187	0.006	0.006	10.5	31
0.0022	0.0292	0.0105	0.0082	10.1	31
0.0022	0.0292	0.012	0.0165	10.5	31
-0.003	0.039	0.0082	0.0157	10.2	31
-0.0053	0.0652	0.0075	0.0097	10.5	31
-0.0046	0.069	0.0045	0.0067	10.6	31
-0.0015	0.0502	0.0015	-0.015	10.6	31
-0.0008	0.0412	0.0015	-0.033	10.7	31
-0.0023	0.024	0.0015	-0.045	10.8	31
-0.0015	-0.0091	0.0037	-0.0323	11.1	31
0.0007	-0.0353	0.0045	-0.0248	10.9	31
-0.0008	-0.0413	0.0067	-0.0233	11.3	31
-0.0008	-0.0308	0.0075	-0.015	11.2	31
0.003	-0.0218	0.0075	-0.0053	11.3	31
0.003	-0.0083	0.0105	0.036	11.9	31
-0.0015	0.0255	0.0105	0.0465	11.4	31
0.0007	0.033	0.012	0.0127	12.1	31
0.003	0.0285	0.015	-0.003	11.7	31
0.0022	0.0247	0.018	0.009	11.9	31
0.0007	0.0105	0.0195	0.048	12.2	31
-0.0008	0.0187	0.0217	0.0375	12.1	31
-0.0008	0.0157	0.0247	-0.003	12.5	31
0.0022	0.006	0.0255	-0.0023	12.6	31
0.0015	-0.0068	0.0202	-0.0046	12.6	31
-0.003	-0.0278	0.0142	-0.003	12.6	31
-0.0068	-0.0353	0.012	0.0007	13.1	31
-0.0053	-0.039	0.0112	-0.003	13.1	31
-0.006	-0.0353	0.012	-0.0046	13.1	31
-0.0068	-0.0323	0.0135	-0.0105	13.4	31
-0.0038	-0.0308	0.0142	-0.0278	13.1	31
-0.003	-0.0263	0.0135	-0.0465	13.7	31
-0.0008	-0.0165	0.0157	-0.0233	13.5	31
0.0067	-0.0091	0.0165	0.0232	13.7	31
0.0127	0.0045	0.015	0.0217	14	31
0.0112	0.0172	0.015	0.0022	13.8	31
0.009	0.006	0.0172	0.0015	14.4	31
0.0022	-0.0143	0.0217	0.0007	14.2	31
-0.0053	-0.0263	0.0217	0.0037	14.3	31
-0.0068	-0.0113	0.0217	-0.003	14.3	31
-0.006	0.012	0.0217	-0.003	14.4	31
-0.0053	0.0007	0.0195	-0.0046	14.8	31
-0.0053	-0.0105	0.018	-0.0053	14.3	31
-0.0053	0.0067	0.018	0.0007	14.8	31
-0.0046	0.036	0.0195	-0.0075	14.5	31
-0.0008	0.0382	0.018	-0.0173	14.7	31
0.0045	-0.0008	0.0127	-0.0038	14.8	31
0.0052	-0.0308	0.0127	0.0142	14.6	31
0.0015	-0.027	0.0187	-0.0023	15.1	31
0.003	-0.0218	0.0232	-0.024	14.9	31
0.009	-0.0188	0.0217	-0.003	15.4	31
0.0127	-0.0046	0.0195	0.0412	15.2	31
0.0105	0.0075	0.0142	0.0465	15	31
0.0067	0.0187	0.0105	0.0517	15.2	31
0.0075	0.0337	0.0105	0.0442	15.4	31
0.003	0.0427	0.0127	0.0247	15.5	31
-0.0008	0.0255	0.015	0.0127	15.6	31
-0.0023	0.0202	0.0172	-0.0188	15.7	31
-0.0075	0.0345	0.0075	-0.012	15.6	31
-0.0083	0.0345	-0.0128	-0.0158	15.8	31
-0.0046	0.0217	-0.0346	-0.0203	16	31
-0.0046	0.009	-0.0555	-0.0143	15.9	31
-0.0075	-0.0008	-0.0706	-0.0158	16.3	31
-0.0128	-0.03	-0.0848	-0.0091	16.2	31
-0.0113	-0.039	-0.093	-0.0105	16.3	31
-0.0075	-0.0233	-0.0915	-0.0038	16.3	31
-0.0068	-0.024	-0.0856	-0.0053	16.5	31
-0.0046	-0.0338	-0.0765	-0.0038	16.7	31
-0.0008	-0.0346	-0.0691	-0.0008	16.7	31
0.0045	-0.0181	-0.057	0.0015	16.8	31
-0.0008	-0.0075	-0.048	0.0015	16.9	31
-0.0075	-0.0143	-0.042	-0.0038	17	31
-0.0053	-0.0218	-0.0413	-0.0068	17.2	31
-0.006	-0.0315	-0.0436	-0.0105	17.1	31
-0.0053	-0.0315	-0.0465	-0.0181	17.6	31
-0.0038	-0.0225	-0.0458	-0.0248	17.3	31
-0.0038	-0.0128	-0.039	-0.0091	17.8	31
-0.0015	-0.0053	-0.0338	0.006	17.7	31
0.0007	-0.0173	-0.0263	0.0015	17.6	31
0.0015	-0.021	-0.0203	0.0022	18	31
0.0022	-0.0008	-0.0113	0.0307	17.8	31
0.0052	0.0337	-0.0008	0.0412	18	31
0.0082	0.0555	0.0075	-0.006	18.4	31
0.0067	0.0495	0.0157	-0.0383	18.1	31
0.0045	0.0307	0.0225	-0.0346	18.6	31
-0.0008	0.0307	0.0255	-0.0195	18.3	31
-0.003	0.0345	0.0255	0.0067	18.4	31
0.003	0.018	0.027	0.0142	18.7	31
0.0045	0.0195	0.0277	0.0172	18.7	31
0.0045	0.0105	0.0277	-0.0128	18.4	31
0.0045	-0.0128	0.0292	-0.0346	18.9	31
-0.0008	-0.0113	0.0307	-0.012	18.9	31
-0.0023	-0.0091	0.033	-0.0083	18.6	31
0.0015	0.0007	0.0307	0.0045	18.9	31
0.0045	0.0045	0.027	0.0217	18.8	31
0.0015	0.0007	0.0232	0.0375	18.8	31
-0.0053	-0.0046	0.0225	0.024	19	31
-0.0075	-0.012	0.0232	-0.0046	18.7	31
-0.0083	-0.0015	0.027	-0.0098	19.1	31
-0.0053	0.0082	0.0247	-0.0143	18.6	31
0	0.0097	0.0232	-0.0128	18.6	31
0.0007	-0.0083	0.0232	-0.0098	18.9	31
0.003	-0.0128	0.018	-0.0053	18.4	31
0.0112	0.0082	0.0127	-0.006	18.7	31
0.0202	0.0157	0.0165	-0.0128	18.7	31
0.0202	0.0015	0.0322	-0.0158	18.6	31
0.009	-0.0323	0.0442	-0.0105	18.3	31
0.003	-0.027	0.0465	-0.0075	18.4	31
-0.0008	-0.0023	0.045	-0.012	18.3	31
-0.0023	-0.0015	0.0337	-0.0173	17.8	31
0.003	-0.0046	0.0225	-0.027	18.3	31
0.0007	-0.0128	0.009	-0.024	17.9	31
-0.0023	-0.0128	-0.0098	-0.0128	18	31
-0.006	-0.0083	-0.0308	0	18	31
-0.0083	-0.0046	-0.0346	0.015	17.7	31
-0.0083	-0.012	-0.0308	0.0157	18.2	31
-0.0015	-0.0383	-0.0346	0.0052	17.8	31
0.0075	-0.033	-0.0278	0.006	17.7	31
0.0067	0	-0.0165	0.0142	17.9	31
0.0045	0.0082	-0.0091	0.0127	17.8	31
-0.003	0.006	-0.0083	0.0217	17.9	31
-0.0083	0.0075	-0.0113	0.0142	17.7	31
-0.0105	-0.0053	-0.012	-0.0038	18.1	31
-0.0105	-0.0128	-0.0113	-0.0023	17.7	31
-0.0053	-0.0053	-0.0091	-0.0046	18	31
-0.0023	0.0022	-0.0068	-0.0008	17.9	31
0.0015	0.0015	-0.0053	-0.0008	17.7	31
0.0037	0.0015	-0.0053	-0.0053	18.1	31
0.0015	0.0045	0	-0.0075	17.7	31
-0.0008	0.0067	0.0052	0.003	18	31
-0.003	0.0075	0.0067	0.0112	17.6	31
-0.006	0.006	0.009	0.0075	17.7	31
-0.006	0.009	0.0097	0.006	17.9	31
-0.0046	0.012	0.0097	-0.0053	17.9	31
-0.003	0.0135	0.009	-0.0256	17.8	31
0.0007	0.0142	0.0075	-0.03	17.6	31
0.003	0.0045	0.009	0.0007	17.8	31
0.0052	0.0067	0.0105	0.0217	17.7	31
0.0082	0.0217	0.009	0.012	17.6	31
0.0097	0.0157	0.0015	0.0067	17.6	31
0.0157	-0.0015	-0.0046	-0.0015	17.5	31
0.018	-0.0225	-0.003	-0.0053	18	31
0.0112	-0.0218	0.0007	-0.0015	17.2	31
0.003	-0.003	0.0007	-0.0008	17.5	31
0.0007	-0.0165	-0.0008	0.0022	17.5	31
-0.003	-0.0278	0.0007	0.0112	17.1	31
-0.0075	-0.0218	0	0.021	17.4	31
-0.0068	-0.0105	-0.003	0.0082	17.1	31
-0.0046	-0.0046	-0.0046	-0.0188	17	31
0.0007	-0.003	-0.0046	-0.0323	17	31
0.0015	0.006	-0.0015	-0.0053	17.1	31
-0.0046	0.006	-0.0015	0.033	17	31
-0.0053	0.0045	-0.0023	0.021	16.8	31
-0.0038	0.0007	-0.0008	-0.0113	16.9	31
0.0007	0.0022	0.0007	-0.0188	16.6	31
0.003	0.0082	-0.0008	-0.0181	16.9	31
-0.0008	0.0052	-0.003	-0.0113	16.6	31
0	0	-0.0046	-0.0015	16.6	31
0	-0.0015	-0.0038	-0.0105	16.5	31
-0.0008	-0.0008	-0.0046	-0.0173	16.4	31
0.0022	0.0015	-0.0015	0.003	16.5	31
0.0022	0.0067	-0.0015	-0.003	16.3	31
-0.0008	0.003	-0.0023	-0.0225	16	31
-0.0091	-0.0008	0.0015	0.012	16.3	31
-0.0113	-0.0008	0.0037	0.0607	16	31
-0.0083	-0.0015	0.0022	0.0652	16	31
-0.0046	0.0015	0.0015	0.0142	15.7	31
-0.0023	0.003	0.0037	-0.0023	15.7	31
-0.003	0.0037	0.0052	-0.0008	15.8	31
-0.003	0.0015	0.0037	-0.0248	15.7	31
-0.003	0.0007	0.0067	-0.0353	15.8	31
-0.0015	-0.0008	0.0097	-0.0278	15.5	31
-0.0015	-0.0038	0.0105	0.012	15.8	31
-0.0008	-0.003	0.009	0.012	15.7	31
-0.0008	-0.0008	0.0075	-0.0105	15.7	31
-0.0015	-0.0008	0.0075	-0.0105	15.7	31
-0.0023	-0.0023	0.0067	-0.0188	15.4	31
-0.0023	-0.003	0.003	-0.0203	15.8	31
-0.0008	-0.0015	0.0015	-0.0203	15.5	31
0.0007	-0.0015	0.0007	-0.0203	15.4	31
0.003	-0.0015	0	-0.0263	15.5	31
0.0067	0.0015	-0.0008	-0.033	15.4	31
0.006	-0.0008	-0.0008	-0.0233	15.5	31
0.0022	-0.0023	-0.0015	0.009	15.3	31
0.0007	-0.0015	-0.0008	0.0202	15.5	31
0	0.0007	0	-0.0046	15.3	31
0	0.003	0.0015	-0.006	15.2	31
-0.0008	0.0015	0.0015	0.003	15.2	31
0.0015	0.0015	0.0007	0.0067	15.1	31
0.0045	0.0007	-0.0008	0.0052	15.4	31
0.0037	-0.0053	-0.0023	-0.0023	14.9	31
0.0037	-0.0091	-0.0046	-0.003	15.3	31
0.0007	-0.0068	-0.0068	-0.0083	15	31
-0.0023	-0.0015	-0.0083	-0.0091	14.9	31
-0.0023	-0.0015	-0.0128	-0.0068	14.8	31
0.0007	-0.0023	-0.0165	-0.0053	14.6	31
0.003	-0.0023	-0.0203	-0.0046	14.8	31
0.003	-0.0015	-0.0203	-0.0053	14.8	31
0.0015	-0.003	-0.0165	-0.006	14.8	31
0.0015	-0.0046	-0.0143	-0.0038	14.7	31
-0.0008	-0.0068	-0.0105	0	14.6	31
-0.0015	-0.0068	-0.0053	0	14.6	31
-0.0008	-0.0053	-0.0046	0.0015	14.3	31
-0.0038	-0.0015	-0.0023	0.003	14.6	31
-0.003	-0.003	-0.0015	0.0045	14.1	31
-0.0015	-0.003	-0.0008	0.0052	14.3	31
-0.0008	-0.0046	0.0007	0.0082	14.3	31
0	-0.0053	0.0052	0.009	14	31
0	-0.003	0.0105	0.0067	14.4	31
0.0015	-0.0046	0.012	0.0067	13.7	31
0.003	0	0.0075	0.0067	14.1	31
0.0007	0.0037	0.0045	0.0082	13.7	31
-0.0008	0.0037	0.0007	0.0075	13.7	31
0.0007	0.0067	-0.0038	0.0097	13.9	31
0.0037	0.006	-0.0068	0.0112	13.7	31
0.0045	0.0052	-0.0075	0.012	13.5	31
0.003	-0.0053	-0.006	0.012	13.4	31
0	-0.015	-0.0038	0.012	13.5	31
-0.0023	-0.0075	-0.0015	0.0142	13.2	31
0.0007	-0.0023	0.0022	0.0157	13.1	31
0.0007	-0.0046	0.0097	0.0165	13.1	31
-0.0008	-0.0008	0.0142	0.0142	13	31
-0.0008	0.0037	0.0142	0.0142	13.4	31
0.0015	0.0052	0.0157	0.0142	12.7	31
0.0022	0.0037	0.0142	0.012	12.8	31
-0.0015	0.0007	0.0165	0.0082	12.9	31
-0.0053	-0.0008	0.0142	0.0022	12.6	31
-0.0068	-0.0015	0.012	0	12.7	31
-0.003	-0.003	0.012	0.0007	12.7	31
-0.003	-0.0046	0.009	0.0037	12.4	31
-0.003	-0.003	0.009	0.012	12.2	31
-0.0008	0.0007	0.0067	0.027	12.4	31
-0.0008	0.0015	0.006	0.0352	12.5	31
0.0007	-0.0008	0.006	0.0307	12	31
-0.0015	-0.0008	0.0037	0.027	12.4	31
-0.0023	0	0.0052	0.0217	12	31
-0.003	-0.0008	0.0052	0.0045	12.1	31
-0.0038	-0.0008	0.0082	-0.012	12.1	31
-0.0038	-0.0008	0.009	-0.0203	11.7	31
-0.0038	-0.0008	0.0082	-0.015	12.1	31
-0.003	-0.0015	0.006	0.0082	11.8	31
-0.0015	-0.0008	0.0037	0.0337	11.5	31
-0.0008	-0.0008	0.0045	0.0367	11.8	31
-0.0015	-0.0008	-0.0008	0.0052	11.6	31
0	-0.0015	-0.003	-0.0165	11.5	31
-0.0008	-0.003	-0.0015	-0.021	11.5	31
-0.0008	-0.0023	-0.0008	-0.0218	11.4	31
0.0007	0	0.0007	-0.0218	11.5	31
0.0015	-0.0008	0.003	-0.027	11.7	31
0.0015	-0.0023	0.009	-0.0293	11.1	31
0.0007	-0.0046	0.0097	-0.0285	11.2	31
0.0015	-0.0023	0.0097	-0.0293	11.2	31
0.0007	-0.0015	0.0127	-0.0285	10.9	31
0.0022	-0.003	0.012	-0.0278	11.4	31
0.003	-0.0008	0.0105	-0.0256	11.1	31
0.0015	0.0007	0.009	-0.024	10.8	31
0.0007	0	0.003	-0.0233	11.1	31
0.0007	-0.0008	-0.0053	-0.021	10.8	31
0.0015	0.0007	-0.0143	-0.021	11.1	31
0.0022	0.0015	-0.0165	-0.0203	10.8	31
0.0007	0	-0.0165	-0.0181	10.7	31
-0.0015	0.0007	-0.0173	-0.0143	10.7	31
0	-0.0008	-0.0158	-0.0105	10.8	31
0	-0.0015	-0.0143	-0.0091	10.6	31
-0.0008	-0.0015	-0.0165	-0.0053	10.5	31
-0.0015	-0.0015	-0.0165	-0.0046	10.7	31
-0.0015	-0.0015	-0.0165	-0.0015	10.5	31
-0.0008	-0.0008	-0.0188	0	10.6	31
-0.003	0	-0.0188	0.0015	10.6	31
-0.0038	-0.0015	-0.0165	0.003	10.1	31
-0.0023	-0.0008	-0.0165	0.0045	10.5	31
0.0015	-0.0008	-0.0158	0.0045	10.2	31
0.0022	-0.0015	-0.015	0.0045	10.2	31
0.0015	-0.0015	-0.0143	0.006	10.4	31
0.0045	-0.0046	-0.0143	0.0052	10.1	31
0.0022	-0.0046	-0.012	0.003	10.3	31
0.0015	-0.0015	-0.0105	0.0037	10.3	31
0	-0.0015	-0.0091	0.0052	10.2	31
-0.0008	-0.0008	-0.0068	0.0052	10.1	31
0.0015	-0.0015	-0.006	0.0052	10	31
0.0022	-0.0015	-0.0038	0.0052	10.1	31
-0.0008	0	-0.0046	0.0045	9.7	31
-0.0038	0.0022	-0.0015	0.0067	10.2	31
-0.0046	0.0007	-0.0015	0.0067	9.6	31
-0.003	0.0007	-0.0008	0.006	9.8	31
-0.003	0.0015	0.003	0.0052	9.9	31
-0.0015	0.0015	0.0045	0.0045	9.6	31
-0.0008	0.0022	0.006	0.0045	9.9	31
-0.0015	0.0007	0.0082	0.0052	9.4	31
-0.0015	-0.0008	0.0082	0.0052	9.9	31
0.0022	0.0007	0.0067	0.0045	9.6	31
0.0082	0.003	0.0037	0.0045	9.4	31
0.0097	0.0045	0.0037	0.0045	9.7	31
0.0037	-0.0008	0.0052	0.0022	9.4	31
-0.0053	-0.0083	0.003	0.0007	9.5	31
-0.0053	-0.0135	0.0015	-0.0015	9.2	31
-0.003	-0.0128	0.0007	-0.0008	9.4	31
-0.0015	-0.006	-0.0008	-0.0008	9.2	31
0.0007	-0.0053	-0.0015	-0.0008	9.3	31
0.0007	-0.0046	0	-0.0008	9.3	31
0.0015	-0.0015	0.0082	0.0015	8.9	31
0.0015	0	0.012	0.0022	9.1	31
0.0015	0.0007	0.0157	0.0015	9	31
0.0037	-0.0008	0.018	0.0015	8.9	31
0.0022	0.0007	0.0165	0.0015	9	31
0.0007	-0.0008	0.018	0.0007	8.8	31
-0.0008	-0.0008	0.0157	0.0007	8.9	31
-0.0015	0	0.012	-0.0008	9	31
0	0.0007	0.009	-0.0015	8.7	31
0.0007	-0.0008	0.0045	-0.0023	8.6	31
0	-0.0015	0.0015	-0.0015	8.6	31
-0.0008	0	0.0007	0.0007	8.5	31
-0.0015	0	0.0015	0.0015	8.4	31
-0.003	-0.0015	0.0052	-0.0008	8.8	31
-0.0015	-0.0023	0.009	-0.0015	8.5	31
-0.0015	-0.0046	0.0127	-0.0008	8.7	31
-0.0015	-0.0046	0.0157	0	8.5	31
0.0015	-0.003	0.018	0.0007	8.2	31
0.003	-0.0015	0.0202	-0.0015	8.7	31
0.0045	-0.0015	0.0217	-0.0015	8.2	31
0.0067	-0.0015	0.0232	-0.0015	8.2	31
0.003	-0.003	0.027	-0.0008	8.5	31
0.0015	-0.0046	0.0277	0.0007	8.1	31
0.0015	-0.0015	0.0277	0	8.4	31
-0.0008	-0.0015	0.0262	0	8.2	31
0	-0.0046	0.027	0	8	31
-0.0008	-0.0046	0.0292	-0.0015	8.2	31
0	-0.0015	0.0307	-0.0008	8.2	31
0.0007	0.0007	0.033	0.0007	7.9	31
0.0007	0.0015	0.036	-0.0008	8	31
-0.0008	0.0007	0.039	-0.003	7.9	31
-0.003	0	0.0405	-0.003	7.8	31
-0.003	-0.0015	0.0427	-0.003	7.8	31
-0.0008	-0.003	0.0465	-0.0023	7.7	31
-0.0008	-0.0046	0.0442	-0.0008	7.6	31
-0.0015	-0.0068	0.0457	-0.0008	7.9	31
-0.0015	-0.0046	0.0487	-0.0008	7.6	31
-0.0008	-0.0015	0.0495	-0.0015	7.8	31
0.0015	0	0.051	0.0007	7.6	31
0.0007	0.0007	0.0532	0	7.5	31
-0.0015	-0.0008	0.054	-0.0008	7.6	31
-0.003	0.0007	0.0555	0	7.6	31
-0.003	0.0015	0.0585	-0.0008	7.4	31
-0.0015	0.0007	0.06	0.0007	7.4	31
-0.0015	0.0015	0.0607	0.0007	7.4	31
-0.0008	0	0.063	0.0007	7.1	31
-0.0008	0.0015	0.0652	-0.0008	7.3	31
0.0007	0.0015	0.0652	-0.0015	7.1	31
0.0007	0.0007	0.0652	-0.003	7	31
0.003	0.0015	0.0667	-0.0038	7.4	31
0.003	0.003	0.0675	-0.003	6.9	31
0.0007	0.0052	0.0682	-0.0023	7.3	31
0.0015	0.0052	0.0667	-0.0023	6.7	31
0.0007	0.0015	0.0652	-0.0015	7	31
-0.0008	0.0007	0.0615	-0.0008	7.2	31
-0.0015	-0.0015	0.0577	-0.0015	6.7	31
-0.0023	-0.006	0.0555	0.0015	6.9	31
-0.0015	-0.0068	0.0532	0.0007	6.7	31
-0.0023	-0.0068	0.0502	-0.0008	6.7	31
-0.0008	-0.0068	0.048	0	6.5	31
-0.0008	-0.0046	0.0457	-0.0008	6.8	31
-0.003	-0.0008	0.0412	-0.0008	6.7	31
-0.0015	0.003	0.0367	-0.0008	6.3	31
-0.0023	-0.0008	0.0315	-0.0015	6.6	31
-0.0015	-0.003	0.0285	-0.0015	6.3	31
-0.0008	-0.003	0.024	-0.0015	6.4	31
-0.0015	-0.003	0.021	-0.0015	6.3	31
-0.0015	-0.0023	0.0142	-0.003	6.2	31
0.0007	-0.0023	0.009	-0.0023	6.4	31
0.003	-0.0008	0.003	-0.003	6.1	31
0.0022	0	-0.0053	-0.0015	6.3	31
0.0015	-0.0008	-0.0128	-0.0023	6.2	31
0.003	0	-0.0188	-0.0008	6.1	31
0.0015	-0.0015	-0.0233	0.0007	6	31
0.0007	-0.0023	-0.0278	-0.0008	5.9	31
0	-0.0015	-0.0338	-0.0008	6	31
-0.0015	-0.003	-0.0383	0.0007	5.7	31
-0.0008	-0.0015	-0.042	0.0007	6.2	31
-0.0008	-0.0008	-0.0465	0.0007	5.6	31
-0.0008	-0.0015	-0.0503	-0.0008	5.8	31
-0.003	-0.0008	-0.054	-0.0008	5.8	31
-0.0023	-0.0008	-0.0578	0.0015	5.6	31
0.0007	0.0007	-0.0608	-0.0008	6	31
0.0007	-0.0015	-0.0653	-0.0015	5.3	31
0.0015	-0.0023	-0.0653	-0.0015	5.6	31
0.0015	0.0007	-0.0645	-0.003	5.4	31
0.0007	-0.0015	-0.066	-0.0008	5.5	31
0.0015	-0.0015	-0.0675	-0.0008	5.6	31
0.0015	0.0015	-0.0691	-0.0008	5.5	31
-0.0008	0	-0.0691	-0.0015	5.3	31
0.0015	0.0007	-0.0698	-0.0015	5.3	31
0.0015	0	-0.0713	-0.0008	5.6	31
-0.0008	-0.0015	-0.0728	-0.0015	5.1	31
-0.0015	-0.0015	-0.0728	-0.0015	5.3	31
-0.0015	-0.0023	-0.0743	-0.0038	5.6	31
-0.003	-0.0015	-0.0758	-0.0046	5.1	31
-0.0015	-0.0015	-0.075	-0.003	5.4	31
0	-0.0015	-0.075	-0.003	5	31
-0.0015	-0.0015	-0.0773	-0.003	5.2	31
-0.0023	0.0007	-0.0788	-0.0015	5.3	31
-0.003	-0.0008	-0.0818	-0.0023	4.9	31
-0.0015	-0.003	-0.0818	-0.0038	5.1	31
0	-0.0015	-0.0833	-0.003	4.8	31
0	-0.0008	-0.0848	-0.0023	4.9	31
0	0	-0.0848	-0.0015	5.1	31
0	-0.0008	-0.0848	-0.003	5.1	31
-0.0008	0	-0.084	-0.0023	4.9	31
-0.003	0.0007	-0.0871	-0.0015	5	31
-0.003	0.0007	-0.0893	-0.0008	5.2	31
-0.0015	-0.0015	-0.0893	-0.0015	4.7	31
-0.0023	-0.0008	-0.0915	-0.0015	5.1	31
-0.0015	-0.0008	-0.093	0.0007	4.9	31
-0.0008	-0.003	-0.0923	0.0015	5.1	31
-0.0008	-0.0053	-0.093	0.0007	4.7	31
-0.0008	-0.0038	-0.093	-0.0023	4.6	31
-0.0008	-0.0008	-0.0878	-0.003	5	31
0.0007	0	-0.0863	-0.003	4.7	31
0.0015	0.0015	-0.0833	-0.003	4.9	31
-0.0008	0.0022	-0.0795	-0.003	4.9	31
0	0.0015	-0.078	-0.0046	4.7	31
0.0015	0.0007	-0.075	-0.0008	4.7	31
0.003	-0.0023	-0.0735	0.0007	4.6	31
0.0037	-0.0038	-0.0721	-0.0008	4.6	31
0.003	-0.0046	-0.0698	-0.0008	4.5	31
0.0015	-0.0046	-0.0691	-0.0008	4.8	31
0	-0.0038	-0.0668	0.0007	4.5	31
0.0007	-0.003	-0.063	0.0022	4.7	31
0.0007	-0.0015	-0.0593	0.0015	4.7	31
-0.0015	-0.003	-0.0563	0.0015	4.3	31
-0.0015	-0.0015	-0.0555	-0.0008	4.5	31
-0.0008	-0.0023	-0.054	-0.0015	4.5	31
0.0007	-0.0015	-0.0495	-0.0015	4.3	31
0.0015	0.0007	-0.0458	-0.0015	4.5	31
0.0007	-0.0008	-0.0405	-0.0015	4.1	31
0.0007	0.0007	-0.0383	-0.003	4.6	31
0.0015	0	-0.0353	-0.0015	4.5	31
0	-0.0015	-0.0315	-0.0015	4.2	31
-0.0038	-0.003	-0.0285	-0.0008	4.4	31
-0.0038	-0.0015	-0.024	0.0007	4.5	31
0.0007	-0.0015	-0.0181	-0.0008	4.2	31
0.0007	-0.0008	-0.0135	-0.0008	4.1	31
-0.0015	-0.0008	-0.0091	-0.0015	4.4	31
0.0015	-0.0008	-0.0008	-0.003	4	31
0.003	-0.0008	0.0052	-0.0023	4	31
0.0015	-0.003	0.0105	-0.0008	4.2	31
-0.0008	-0.003	0.0127	0.0015	3.9	31
0	-0.0008	0.018	0	4.2	31
0.0015	0.0007	0.024	0.0007	3.6	31
0	0	0.0315	0.0007	4.2	31
-0.0008	-0.0008	0.039	0	3.9	31
-0.0008	-0.0023	0.0442	0.0007	3.8	31
-0.0008	-0.003	0.0495	0.0015	3.8	31
-0.0015	-0.0023	0.0532	0.0015	3.9	31
0.0007	-0.0046	0.057	-0.0008	3.9	31
0.0015	-0.0023	0.0577	-0.0008	3.7	31
0	-0.0015	0.0577	-0.0015	3.8	31
0.0007	-0.003	0.06	-0.0023	3.8	31
-0.0008	-0.0008	0.0607	-0.0023	3.5	31
-0.0008	-0.0008	0.0615	-0.003	3.7	31
-0.0008	-0.0008	0.0615	-0.0023	3.3	31
-0.0008	-0.0015	0.0607	-0.0023	3.7	31
-0.0023	-0.0015	0.0615	-0.003	3.4	31
-0.0015	0.0007	0.0592	-0.0023	3.4	31
-0.003	0.003	0.0555	-0.0015	3.6	31
-0.0023	0.0007	0.054	-0.0008	3.2	31
-0.0023	0	0.0532	-0.0015	3.6	31
-0.0015	-0.0015	0.0487	-0.0015	3.3	31
0.0015	0.0007	0.0457	-0.0008	3.4	31
0.0007	0.0015	0.0412	0	3.3	31
-0.0008	-0.0015	0.0352	0	3.3	31
-0.0015	-0.0008	0.0315	0.0015	3.1	31
-0.0008	-0.0015	0.0277	0.0015	3.1	31
0	-0.0008	0.021	0.0007	3.5	31
0.0007	-0.0008	0.0165	-0.0008	3.1	31
0.003	-0.0023	0.012	-0.0046	3.3	31
0.0015	0	0.0067	-0.0046	3	31
0.0015	0.0007	0.0045	-0.0023	3	31
0	-0.0008	-0.0015	0	3.2	31
-0.0008	-0.0023	-0.0038	0.0007	2.8	31
0.0015	-0.003	-0.0046	0.0015	3.1	31
0.0015	-0.0046	-0.0053	0.003	2.7	31
0	-0.0046	-0.0083	0.0037	2.7	31
-0.0015	-0.0038	-0.0083	0.0022	2.9	31
0	-0.0023	-0.0068	0.0007	2.7	31
-0.0008	-0.0008	-0.0068	0.0007	2.6	31
-0.0008	-0.0008	-0.0038	0	2.6	31
0.0015	-0.0008	-0.0008	-0.0008	2.7	31
0.0007	0.0015	0.0015	-0.0015	2.6	31
-0.0008	0.0015	0.0067	-0.0023	2.4	31
0.0007	0.0007	0.0127	-0.0023	2.6	31
0.003	0	0.0195	-0.003	2.5	31
0.003	-0.0008	0.0217	-0.0038	2.6	31
0	-0.0015	0.0255	-0.0038	2.3	31
-0.0015	-0.0008	0.027	-0.003	2.5	31
-0.0008	0	0.027	-0.0015	2.5	31
-0.0015	-0.0008	0.0277	-0.0008	2.2	31
-0.0015	-0.003	0.0255	0.0015	2.4	31
-0.0008	-0.0038	0.0217	0.0007	2.2	31
-0.0008	-0.0053	0.0195	0	2.1	31
0.0015	-0.0046	0.0165	-0.0008	2.2	31
0.0007	-0.0038	0.0142	-0.0008	2.1	31
0	-0.0008	0.0105	-0.0008	2	31
-0.0008	-0.0015	0.0052	-0.0023	1.9	31
-0.0015	-0.0015	-0.0008	-0.0038	2.1	31
-0.0008	0.0007	-0.0068	-0.0038	1.8	31
-0.0008	-0.003	-0.0135	-0.0046	2.1	31
-0.0008	-0.0015	-0.0203	-0.003	1.8	31
-0.0008	0	-0.0278	-0.0008	2	31
-0.0008	-0.0008	-0.0368	0.0007	1.9	31
0	0	-0.0443	0.0007	1.6	31
-0.0008	-0.003	-0.0533	0.0022	1.9	31
-0.0008	-0.0053	-0.0615	0.0037	1.7	31
-0.0023	-0.0038	-0.066	0.003	1.5	31
-0.003	-0.0008	-0.0683	0	1.8	31
-0.0015	-0.0008	-0.0706	-0.0015	1.4	31
-0.0008	0	-0.0728	-0.0008	1.4	31
-0.0008	-0.0008	-0.0721	-0.0008	1.6	31
-0.0008	0.0007	-0.0721	-0.0008	1.4	31
0	0.0007	-0.0743	-0.0015	1.2	31
-0.0008	-0.0023	-0.0765	-0.0015	1.4	31
-0.0008	-0.0015	-0.0818	-0.003	1.2	31
0	-0.0015	-0.0885	-0.003	1.1	31
0.0007	-0.0008	-0.0923	-0.0015	1.2	31
0	0.0007	-0.0953	-0.0015	0.9	31
0.0007	0.0007	-0.0975	-0.003	1	31
-0.0008	0.003	-0.0975	-0.0053	1	31
0.0007	0.0015	-0.0945	-0.0046	0.8	31
0.0007	-0.0008	-0.0885	-0.0038	1	31
0	-0.0008	-0.0825	0.0015	0.7	31
0.0015	-0.0023	-0.075	0.0022	0.9	31
0.0007	-0.003	-0.0645	0.0015	1.2	31
0.0007	-0.0015	-0.054	0.0015	0.8	31
0.0007	-0.0023	-0.0443	-0.0008	0.9	31
0.0015	-0.0015	-0.033	0	0.8	31
0.0007	-0.0008	-0.021	-0.0008	0.6	31
-0.0015	-0.0015	-0.0091	0	0.5	31
-0.003	0	0.0015	0.0007	0.5	31
-0.003	0	0.012	0.0007	0.4	31
-0.0038	-0.0015	0.0255	0.0007	0.4	31
-0.0008	-0.0015	0.036	0.0007	0.7	31
-0.0015	-0.0023	0.0427	0.0007	0.2	31
-0.0023	-0.0008	0.0517	0	0.6	31
-0.0008	-0.0008	0.0615	-0.0008	0	31
0	-0.0015	0.0705	-0.0015	0.5	31
0.003	-0.0015	0.0795	-0.0023	0.2	31
0.0015	-0.0023	0.087	-0.003	0	31
0.003	-0.0023	0.0982	-0.003	0.3	31
0.0045	-0.0008	0.1065	-0.003	0.1	31
0.003	-0.0008	0.1125	-0.0023	0.1	31
0.0022	-0.0008	0.1192	-0.0008	0	31
0.0015	0.0007	0.1245	-0.0008	0.3	31
0.0015	-0.0008	0.129	0.0015	0	31
0.0015	-0.0008	0.1357	0.0007	0	31
0.0015	-0.0008	0.141	0.0022	0.2	31
-0.0008	-0.0008	0.1477	0.003	-0.1	31
-0.003	-0.0008	0.153	0.0007	0.2	31
-0.003	-0.0015	0.1582	0.0007	-0.4	31
-0.0015	-0.0023	0.1627	0	0	31
-0.0015	-0.0008	0.1635	0	0	31
0.0007	-0.0015	0.1635	0	-0.4	31
0.0007	-0.0015	0.165	0.0007	-0.1	31
-0.0008	-0.0008	0.1672	0.0007	-0.4	31
0	-0.003	0.1687	0.0007	-0.3	31
-0.0008	-0.003	0.1702	0.0015	-0.1	31
-0.0008	-0.003	0.1702	0	-0.2	31
-0.0023	-0.0038	0.171	-0.0015	-0.4	31
-0.0015	-0.003	0.1687	-0.0023	-0.5	31
0.0007	-0.0023	0.1687	-0.003	-0.2	31
0.0007	-0.0015	0.1725	-0.003	-0.6	31
-0.0008	-0.0008	0.171	-0.003	-0.2	31
-0.0015	-0.0015	0.1687	-0.0023	-0.6	31
-0.0015	-0.0038	0.165	-0.0008	-0.4	31
-0.0008	-0.0053	0.1627	-0.0008	-0.5	31
-0.0008	-0.0038	0.1627	-0.0008	-0.5	31
-0.0008	-0.0046	0.162	0.0007	-0.3	31
-0.0015	-0.0046	0.1582	0.0007	-0.7	31
-0.0015	-0.0038	0.153	0.0007	-0.5	31
0	-0.0023	0.1507	0	-0.7	31
0.0015	-0.0015	0.1462	-0.0015	-0.6	31
0	-0.0008	0.1387	-0.0008	-0.6	31
-0.0015	0.0007	0.132	0	-0.5	31
-0.0008	0	0.1215	-0.0008	-0.5	31
-0.0008	0.0007	0.1102	-0.003	-0.7	31
0.0007	0.0015	0.0975	-0.0015	-0.3	31
0	0.0007	0.084	0	-0.8	31
0	0.0007	0.069	0.0015	-0.5	31
0.0007	-0.0015	0.057	-0.0015	-0.6	31
0	-0.0023	0.0442	-0.0015	-0.7	31
0.0007	-0.003	0.0285	0.0007	-0.6	31
-0.0008	-0.0046	0.012	0.0007	-0.9	31
-0.0015	-0.0015	-0.0068	-0.0008	-0.5	31
-0.0008	0.003	-0.0263	-0.0008	-0.6	31
-0.0023	0.0045	-0.0443	0	-0.8	31
-0.0015	0.0022	-0.0608	0.0007	-0.6	31
0.0007	0.0015	-0.0788	-0.0015	-0.7	31
0.0022	0.0015	-0.0975	-0.0015	-0.6	31
0.0022	0.0007	-0.114	-0.0015	-0.5	31
-0.0008	0	-0.1305	-0.0015	-0.5	31
0.003	-0.0008	-0.1485	-0.0015	-0.8	31
0.0022	-0.0008	-0.1688	-0.0015	-0.4	31
0.0015	0	-0.1883	-0.0008	-0.5	31
0	-0.0008	-0.2078	-0.0015	-0.5	31
-0.0038	-0.0008	-0.2273	-0.0015	-0.5	31
-0.0008	-0.0015	-0.2438	-0.0008	-0.8	31
-0.003	-0.0038	-0.2595	-0.0015	-0.4	31
-0.0015	-0.003	-0.2745	-0.0023	-0.5	31
0.0007	-0.0038	-0.2888	-0.0038	-0.5	31
0	-0.003	-0.306	-0.0038	-0.5	31
0.0007	-0.003	-0.321	-0.0038	-0.5	31
-0.0008	-0.0015	-0.3345	-0.003	-0.4	31
-0.0008	-0.0008	-0.3458	-0.0038	-0.5	31
0.0007	-0.003	-0.3555	-0.0046	-0.5	31
0.0015	-0.0023	-0.3615	-0.0046	-0.4	31
0.0007	-0.0015	-0.363	-0.0023	-0.2	31
0	-0.0015	-0.3615	0.0007	-0.3	31
0.0007	-0.0008	-0.354	-0.0008	-0.5	31
0.0007	-0.0008	-0.3421	-0.0015	-0.2	31
0	0	-0.3263	-0.003	-0.4	31
0	-0.0008	-0.3083	-0.003	-0.1	31
-0.0008	-0.0015	-0.2895	-0.0015	-0.3	31
-0.0015	-0.0008	-0.273	0	0	31
-0.0008	0.0007	-0.2588	0.0007	0	31
0	0.0007	-0.2423	-0.0015	-0.1	31
0.0015	0	-0.225	-0.0015	0.1	31
0.0015	-0.0008	-0.2093	-0.0015	-0.1	31
0.0015	-0.0023	-0.1988	-0.0008	0.1	31
0.0015	-0.0008	-0.1883	-0.0023	0.1	31
0	0	-0.1785	-0.0023	0	31
0.0007	-0.0015	-0.165	-0.0015	0.3	31
0.0007	-0.0015	-0.1508	-0.003	0.1	31
0.0007	-0.003	-0.135	-0.003	0.4	31
0.0015	-0.0015	-0.1178	-0.003	0	31
0	0	-0.1028	-0.003	0.4	31
-0.0008	0.0007	-0.0863	-0.003	0.1	31
-0.0008	0	-0.0698	-0.003	0.5	31
-0.0008	0.0007	-0.0518	-0.0015	0.6	31
0.0007	0.0007	-0.0368	-0.0008	0.4	31
-0.0008	-0.0008	-0.0225	0.0007	0.6	31
-0.0008	0	-0.0068	-0.0008	0.5	31
-0.0008	-0.0015	0.0105	-0.0015	0.6	31
-0.0015	-0.0015	0.0292	-0.0008	0.9	31
0	-0.0015	0.0427	-0.0008	0.8	31
-0.0015	-0.0015	0.0577	0.0007	0.8	31
-0.0008	-0.0015	0.0757	0.0007	0.9	31
0.0007	-0.0023	0.093	-0.0008	1.1	31
0.0007	-0.0023	0.1087	-0.0008	1.1	31
0	-0.0008	0.1207	-0.0008	1.3	31
0.0015	-0.0008	0.1335	-0.0015	0.9	31
0.0007	-0.0008	0.1477	-0.0008	1	31
-0.0008	0.0007	0.159	0.0015	1.4	31
-0.0015	0	0.1702	0.0015	1.1	31
-0.0015	0.0015	0.1785	0.003	1.3	31
-0.0008	-0.0008	0.1852	0.003	1.4	31
-0.0015	-0.0046	0.1912	0.0022	1.4	31
-0.0008	-0.0023	0.1942	0.0007	1.8	31
0.0007	-0.003	0.1972	-0.0008	1.3	31
-0.0008	-0.0023	0.1987	0	1.9	31
0.0007	-0.0008	0.1987	-0.0008	1.7	31
0	-0.0008	0.201	-0.0015	1.9	31
-0.0008	0	0.2047	-0.003	1.9	31
-0.0008	0.0015	0.207	0	2	31
-0.0008	0.0007	0.2085	0.0007	2	31
-0.0008	0.0015	0.2092	-0.0008	2.1	31
0.0007	-0.0008	0.207	0.0007	2.2	31
0	-0.0008	0.2085	-0.0008	2.2	31
0.0007	-0.0008	0.2085	-0.0015	2.4	31
0.0007	-0.0046	0.207	-0.0008	2.6	31
0.0007	-0.0068	0.2047	-0.0008	2.4	31
0.0007	-0.006	0.201	0	2.8	31
0	-0.0038	0.1965	0	2.4	31
0	-0.003	0.1905	0	2.8	31
-0.0008	-0.003	0.183	0	2.7	31
0.0007	-0.0008	0.1732	0.0007	2.9	31
0.0007	-0.0008	0.162	0.0007	3.3	31
-0.0008	0	0.1507	0.0007	3	31
0.0007	0	0.1425	0.0007	3.1	31
-0.0008	-0.0008	0.1342	0.0015	3.2	31
-0.0023	-0.0046	0.1267	-0.0008	3.4	31
-0.0015	-0.0053	0.1192	-0.0015	3.3	31
0.0007	-0.0038	0.1095	-0.0008	3.4	31
0.0015	-0.0038	0.099	-0.0015	3.7	31
0	-0.0046	0.0877	-0.0015	3.6	31
-0.0008	-0.0038	0.078	-0.0023	4	31
0.0007	0.0022	0.0667	-0.0008	3.6	31
0.0015	0.0052	0.057	-0.0015	3.9	31
0.0022	0.0007	0.0495	-0.003	4.1	31
0.003	-0.0046	0.0405	-0.003	3.9	31
0.0007	-0.0015	0.0352	-0.006	4.4	31
0	0.0015	0.0307	-0.0053	4	31
-0.003	-0.0015	0.0262	-0.0046	4.1	31
-0.0023	-0.0053	0.0217	-0.003	4.2	31
-0.0015	-0.0068	0.0187	-0.0008	4.5	31
-0.0008	-0.0053	0.0165	-0.0008	4.5	31
0.0007	-0.003	0.012	0.0007	4.5	31
-0.0008	-0.0023	0.009	0.0007	4.9	31
0.0007	-0.0023	0.0067	0.0007	4.6	31
0.0007	-0.003	0.0037	0.0022	5.1	31
-0.0008	-0.0008	0.003	0.0037	5	31
0.0007	0.0007	0.0007	0.0045	5	31
0.0022	0.0015	0.0007	0.0052	5.3	31
0.0037	0.0007	0.0007	0.003	4.9	31
0.0022	-0.003	-0.0015	0.0007	5.5	31
0.0007	-0.0038	-0.0008	0.0007	5.3	31
0	-0.003	0.003	0.0015	5.5	31
-0.003	-0.0015	0.0045	0.0007	5.6	31
-0.003	-0.0023	0.0067	-0.0008	5.5	31
-0.0023	-0.0008	0.009	-0.0008	5.6	31
-0.0023	0	0.009	-0.0023	5.7	31
0	-0.0023	0.0105	-0.003	5.9	31
-0.0008	-0.0015	0.0105	-0.0023	5.8	31
-0.0008	-0.0015	0.012	0	6.1	31
-0.0015	0.0007	0.0112	0.0015	6.3	31
-0.0023	0.0015	0.009	0.0007	6.2	31
-0.0015	0.0007	0.0067	-0.0008	6.6	31
-0.0008	0.003	0.0022	-0.0008	6.2	31
-0.0015	0.0045	-0.003	-0.0008	6.7	31
-0.0015	0.0015	-0.0105	-0.0015	6.7	31
-0.0008	-0.0015	-0.0158	-0.0015	6.5	31
-0.0008	-0.0008	-0.0203	0.0007	7.2	31
0.0007	0	-0.0256	0.003	6.9	31
0.0015	0.0007	-0.033	0.0015	6.9	31
0.0007	0.003	-0.0361	-0.0015	7.2	31
0	0.0007	-0.0413	-0.0008	7.1	31
-0.0008	-0.0008	-0.045	-0.0008	7.3	31
0.0007	0	-0.045	0.003	7.4	31
0.0015	0.0007	-0.0458	0.0045	7.5	31
0.0037	0.0007	-0.0443	0.0045	7.5	31
0.0037	0	-0.042	0.0067	7.9	31
0.0007	0	-0.042	0.0052	7.5	31
0	-0.003	-0.0398	0.0022	8	31
-0.003	-0.003	-0.0353	0	7.9	31
-0.0023	-0.0038	-0.0323	-0.0015	8	31
0.0007	-0.006	-0.0263	-0.0015	8.4	31
-0.0008	-0.0046	-0.0181	-0.0053	8.3	31
-0.0008	-0.0053	-0.0091	-0.0046	8.5	31
0.0015	-0.0038	-0.0008	-0.0038	8.8	31
0.0045	-0.0023	0.0045	-0.0046	8.6	31
0.0052	-0.0008	0.012	-0.0046	8.9	31
0.003	0.0007	0.0195	-0.0068	9	31
-0.0008	-0.0015	0.0277	-0.006	8.9	31
-0.0015	0.0007	0.03	-0.0053	9.2	31
-0.003	0	0.0315	-0.0068	9.6	31
-0.0046	-0.003	0.0345	-0.0083	9.4	31
-0.0015	-0.0046	0.0367	-0.0083	9.6	31
-0.0008	-0.0053	0.0412	-0.0053	9.8	31
0	-0.0068	0.0405	-0.0046	9.7	31
-0.0015	-0.0083	0.042	-0.0046	10.1	31
-0.0015	-0.0068	0.0427	-0.003	10.2	31
-0.0008	-0.0046	0.0427	-0.0015	10.1	31
0	-0.0015	0.042	-0.0008	10.6	31
0	0.0015	0.0427	0.0015	10.5	31
-0.0008	0.0007	0.0397	-0.0015	10.8	31
-0.0008	-0.0008	0.0345	-0.0038	10.7	31
-0.0008	-0.0008	0.0307	-0.0023	11.1	31
0.0007	-0.0008	0.024	-0.003	11.1	31
-0.0023	-0.0015	0.0202	-0.0008	11.3	31
-0.0008	-0.0046	0.0142	-0.0008	11.4	31
0.0007	-0.0046	0.0082	-0.0008	11.6	31
-0.003	-0.0015	0.0052	0.0015	11.7	31
0	0.0015	0.003	0.0067	11.7	31
0.0015	0.0052	0.003	0.0105	12.1	31
0	0.0067	0.003	0.0127	12.3	31
0.003	0.0067	-0.0015	0.0135	12.2	31
0.0022	0.0045	-0.0053	0.012	12.8	31
0	0.0037	-0.003	0.0135	12.5	31
-0.0008	0.0007	-0.0046	0.0082	13.1	31
-0.0015	-0.0023	-0.0038	0.0067	12.9	31
-0.0008	-0.0015	-0.003	0.0045	13.1	31
0	-0.003	-0.0015	0.0007	13.5	31
0.0015	-0.0008	-0.0015	0.0015	13.6	31
0.0007	0.0007	-0.003	0.003	13.7	31
-0.0008	-0.0015	-0.003	0.003	13.9	31
-0.0008	-0.0015	-0.003	0.0007	14.1	31
-0.0015	-0.0046	-0.003	-0.0008	14.1	31
-0.0008	-0.0046	-0.0023	-0.0023	14.3	31
-0.0008	-0.0015	-0.003	-0.0053	14.8	31
-0.0008	-0.003	-0.0023	-0.0068	14.5	31
-0.0008	-0.003	-0.0015	-0.0091	15.2	31
-0.0015	-0.0038	-0.0046	-0.0098	15	31
-0.0046	-0.0053	-0.0053	-0.0091	15.5	31
-0.0023	-0.0038	-0.006	-0.0091	15.7	31
-0.0008	-0.0023	-0.0083	-0.0091	15.5	31
-0.0023	-0.0008	-0.0098	-0.0075	16.2	31
-0.0015	0.0007	-0.0105	-0.0053	16	31
-0.0008	-0.0008	-0.0128	-0.0053	16.3	31
-0.0023	-0.0008	-0.0188	-0.0046	16.6	31
-0.003	0.0015	-0.0225	-0.003	16.9	31
-0.0008	0.0007	-0.0278	-0.0015	17.1	31
0.0007	0.0007	-0.0346	-0.0008	17.5	31
-0.0008	-0.0015	-0.0413	-0.003	17.8	31
0.0007	-0.003	-0.0495	-0.0015	17.7	31
0.0007	-0.0008	-0.054	0.0007	18.1	31
0.0007	-0.0015	-0.0615	0.0022	18.6	31
0.0007	-0.0008	-0.0698	0.003	18.6	31
0.0015	0.0007	-0.075	0.0015	18.9	31
0.0022	0.0007	-0.0803	0.0022	18.9	31
0.0007	0	-0.0848	0.0015	19.6	31
0.0007	-0.0015	-0.0923	0.0007	19.5	31
0.0007	-0.0015	-0.099	-0.0023	19.8	31
0	-0.0008	-0.1043	-0.0023	20.3	31
-0.0008	-0.0038	-0.1095	-0.0015	20.3	31
-0.0008	-0.0053	-0.114	-0.0053	20.8	31
-0.0008	-0.0068	-0.12	-0.0053	21	31
-0.0008	-0.0046	-0.1245	-0.0068	21.5	31
-0.0008	-0.0046	-0.129	-0.0075	21.5	31
-0.0015	-0.0046	-0.1328	-0.0053	21.8	31
0	-0.003	-0.1373	-0.0023	22.4	31
-0.0008	-0.0015	-0.1403	-0.0023	22.1	31
-0.0015	-0.0008	-0.1485	-0.0008	22.8	31
-0.0015	-0.0008	-0.1538	0.0007	22.9	31
-0.0008	0.0037	-0.156	0.0015	23.2	31
0.0015	0.0037	-0.1575	0.0045	23.6	31
0.0022	0.003	-0.1568	0.0067	23.7	31
0.0015	0.003	-0.1553	0.0052	24.1	31
0.003	0.0007	-0.1508	0.0045	24.2	31
0.0045	0.0007	-0.1433	0.003	24.4	31
0.003	0.0007	-0.1343	0.0045	25	31
0.0015	0.0007	-0.1223	0.0052	25	31
0.0015	0.0007	-0.111	0.0052	25.3	31
0	0	-0.0983	0.0045	25.6	31
0	0.0007	-0.0803	0.0015	25.7	31
0.0015	-0.0015	-0.0638	0.0007	25.8	31
0.0007	-0.0008	-0.048	-0.0008	26.5	31
-0.0008	0	-0.033	-0.0023	26.4	31
-0.0008	-0.003	-0.0218	-0.0046	26.9	31
-0.0008	-0.003	-0.012	-0.0068	27.2	31
-0.0008	-0.0015	-0.003	-0.0053	27.3	31
0	-0.0023	0.0022	-0.0046	27.9	31
0.0007	-0.0023	0.009	-0.0046	28.1	31
0	-0.0038	0.012	-0.0046	28.2	31
0.0007	-0.006	0.0105	-0.006	28.5	31
-0.0008	-0.0046	0.0082	-0.006	28.6	31
0.0007	-0.0038	0.0037	-0.0053	29.2	31
0.0022	-0.003	0.0037	-0.0046	29.1	31
0.0007	-0.0015	0.003	-0.0046	29.5	31
0.0007	-0.0015	0.003	-0.0023	29.7	31
0.0015	0.0007	0.0037	-0.0015	30.1	31
0.0015	0.0015	0.009	0.0015	30.1	31
0.0015	0.0037	0.0135	0.0037	30.5	31
0.0015	0.0052	0.0157	0.006	30.8	31
0.0015	0.0052	0.021	0.0082	30.9	31
0.0015	0.0052	0.027	0.0045	31.3	31
0.003	0.003	0.0337	0.0015	31.4	31
0.0007	-0.0008	0.042	0.0015	31.7	31
-0.0008	0	0.0517	0.0007	31.9	31
-0.0015	0	0.0592	0.0015	32.2	31
-0.0008	-0.0008	0.0667	0.0022	32.7	31
-0.0008	-0.0008	0.075	0.0022	32.4	31
0	-0.003	0.0855	0.0007	32.8	31
0.0007	-0.0015	0.096	-0.0023	33.1	31
-0.0008	-0.0008	0.1065	-0.0046	33.2	31
-0.0015	-0.0015	0.1177	-0.0046	33.3	31
-0.0008	-0.0008	0.1282	-0.003	33.7	31
-0.0008	-0.0023	0.1395	-0.0023	33.9	31
0	-0.0015	0.1515	-0.0015	34.1	31
0.0007	-0.0023	0.159	-0.0015	34.4	31
0.0007	-0.0023	0.165	-0.0046	34.5	31
0	-0.0008	0.1725	-0.0068	34.8	31
-0.0008	-0.0015	0.1785	-0.0068	35.1	31
-0.0015	-0.0008	0.1837	-0.0053	35.1	31
-0.0008	-0.0008	0.189	-0.0046	35.6	31
-0.0008	-0.0008	0.1912	-0.0015	35.6	31
0.0007	-0.0015	0.1927	-0.0015	36.2	31
0	-0.0015	0.1927	-0.0008	36.2	31
-0.0015	-0.0015	0.1927	0.0015	36.4	31
-0.0015	-0.0023	0.1912	0.003	36.8	31
-0.0015	-0.003	0.1845	-0.0008	36.9	31
-0.0008	-0.003	0.1815	-0.003	37.2	31
-0.0015	-0.003	0.177	-0.0046	37.5	31
-0.0015	-0.0038	0.1725	-0.0046	37.7	31
-0.003	-0.003	0.1695	-0.0053	37.8	31
-0.0038	-0.0038	0.1635	-0.0046	38.1	31
-0.0015	-0.003	0.1575	-0.0015	38.4	31
-0.003	-0.003	0.1515	-0.0008	38.5	31
-0.0015	-0.003	0.1462	0.0022	39.2	31
-0.0008	-0.0015	0.1387	0.0037	39.1	31
0.0015	-0.0015	0.1297	0.0045	39.6	31
0.0015	0	0.1215	0.0052	39.7	31
-0.0008	0	0.1125	0.0045	39.9	31
0.0007	0.0007	0.1012	0.0045	40.2	31
0.0007	0.0007	0.09	0.0045	40.3	31
0	-0.0015	0.0787	0.0045	40.7	31
-0.0008	-0.0015	0.0675	0.0015	41.1	31
-0.003	-0.003	0.0532	-0.0008	41.2	31
-0.0015	-0.003	0.0397	-0.0038	41.2	31
-0.0015	-0.003	0.0255	-0.0053	41.8	31
-0.0008	-0.003	0.012	-0.0046	42	31
0	-0.003	-0.0008	-0.0046	42.1	31
-0.0008	-0.0008	-0.0135	-0.0068	42.5	31
-0.0008	-0.0015	-0.0256	-0.0083	42.5	31
-0.0008	-0.0015	-0.0361	-0.0083	43	31
0	-0.0015	-0.048	-0.0068	42.9	31
0	-0.003	-0.0608	-0.0053	43.2	31
0	-0.003	-0.0706	-0.0068	43.6	31
0	-0.0046	-0.0818	-0.0068	43.6	31
0.0007	-0.0068	-0.093	-0.0075	44.2	31
0	-0.006	-0.1013	-0.0091	44.2	31
-0.0008	-0.0053	-0.111	-0.0113	44.3	31
0	-0.0046	-0.1185	-0.0135	44.4	31
0	-0.003	-0.1253	-0.0135	44.7	31
-0.0015	-0.0015	-0.1328	-0.0135	45	31
-0.0008	-0.0008	-0.1388	-0.0135	45	31
-0.0008	0	-0.1441	-0.0128	45.5	31
-0.0015	-0.003	-0.15	-0.0135	45.4	31
-0.0008	-0.0038	-0.153	-0.012	45.8	31
-0.0015	-0.0015	-0.156	-0.0083	45.9	31
-0.0015	0.0007	-0.1575	-0.0046	46.1	31
-0.0008	0.0022	-0.1575	0.003	46.6	31
-0.0008	0.0015	-0.1553	0.0075	46.4	31
-0.0015	-0.0008	-0.1515	0.0067	47	31
-0.0015	0.0015	-0.1485	0.0075	47	31
0	0.003	-0.1426	0.0105	47	31
-0.0015	0.003	-0.1335	0.0157	47.5	31
0	0.0037	-0.1268	0.0195	47.6	31
0	0.003	-0.1215	0.0217	47.8	31
0.0007	0	-0.1148	0.0195	48.1	31
0.0015	-0.0015	-0.1073	0.009	48.5	31
0	-0.0046	-0.1013	0.0052	48.3	31
0.0015	-0.0053	-0.0945	0.0022	48.7	31
0	-0.003	-0.0885	-0.0015	49.1	31
-0.0008	-0.0053	-0.0848	-0.0053	49	31
-0.0015	-0.006	-0.0803	-0.0091	49.5	31
-0.0008	-0.0046	-0.0743	-0.0075	49.3	31
0.0007	-0.0053	-0.0653	-0.0068	49.8	31
-0.0008	-0.0046	-0.0578	-0.0083	49.8	31
-0.0008	-0.0046	-0.054	-0.0105	49.9	31
0	-0.0053	-0.0495	-0.0105	50.4	31
0.0007	-0.006	-0.0443	-0.0083	50.4	31
0.0015	-0.0053	-0.039	-0.0075	50.5	31
0.0007	0.0007	-0.0315	-0.0083	50.8	31
0.0007	0.003	-0.0233	-0.0105	50.7	31
0.0007	0.003	-0.015	-0.012	51	31
0.0007	0.0045	-0.0083	-0.0128	51	31
0.0015	0.006	-0.0015	-0.0068	51.5	31
0.0015	0.0052	0.0052	0.0022	51.4	31
0	0.0037	0.0112	0.0082	51.7	31
0	0.0022	0.0172	0.0127	51.6	31
-0.0008	0.0007	0.024	0.012	51.8	31
0.0007	0	0.0285	0.0045	52.1	31
0.0015	-0.0023	0.0322	-0.003	52	31
0	-0.0053	0.0405	-0.0083	52.5	31
-0.0008	-0.006	0.0457	-0.0098	52.3	31
-0.0015	-0.006	0.0495	-0.0091	52.6	31
-0.0008	-0.0068	0.0532	-0.0091	53	31
-0.0015	-0.0053	0.0555	-0.0091	52.8	31
-0.0008	-0.0046	0.06	-0.0053	52.9	31
-0.0008	-0.0023	0.0607	0.0007	52.9	31
0	-0.0023	0.0645	0.0045	53	31
-0.0008	-0.003	0.0652	0.0105	53	31
-0.0008	-0.0008	0.063	0.0127	53.5	31
0.0015	0.0015	0.0615	0.0142	53.4	31
0.0007	0.0015	0.0577	0.0105	53.2	31
0.0007	-0.0015	0.0555	0.0045	53.5	31
-0.0015	0	0.0502	0.003	53.4	31
-0.0008	0.0015	0.0442	0.0015	53.6	31
0.0015	0	0.0352	-0.0008	53.7	31
0.0007	0.0007	0.0255	0.0007	53.5	31
0.0007	0.0007	0.0217	0.0045	53.8	31
0.0007	0	0.0142	0.0082	53.5	31
0.0007	0.003	0.0075	0.0112	54	31
-0.0008	0.0045	0.0015	0.0157	53.9	31
0.0007	0.0045	-0.0046	0.018	53.7	31
-0.0015	0.0022	-0.0128	0.0127	53.8	31
-0.0008	0.0007	-0.0195	0.0082	53.9	31
0	0	-0.0218	0.0082	53.8	31
0.0007	-0.0008	-0.027	0.0052	53.8	31
0.0015	-0.0015	-0.0293	0.0037	54	31
0.0015	0.0007	-0.0308	0.0037	53.9	31
0.0015	0.0015	-0.0353	0.0015	53.7	31
0.0007	0.003	-0.0368	0	54	31
0	0.0022	-0.039	-0.0015	53.8	31
0.0007	0.0007	-0.0428	-0.0008	54.3	31
-0.0008	0	-0.0428	0.0007	53.9	31
-0.0008	0	-0.0443	0.0097	54	31
-0.0015	0	-0.0458	0.0127	54.1	31
-0.0008	-0.0023	-0.048	0.0052	53.9	31
0.0007	-0.0038	-0.0473	0.0007	54.1	31
0.0007	-0.0068	-0.0465	-0.0075	54.2	31
0.0015	-0.0068	-0.0465	-0.0091	54.3	31
0	-0.0038	-0.0428	-0.0128	54	31
-0.0008	-0.0015	-0.0375	-0.0075	54.2	31
-0.0015	0.0037	-0.033	-0.0008	54.2	31
-0.003	0.0075	-0.0315	-0.0038	54	31
-0.003	0.003	-0.0256	0.0007	54.3	31
-0.0015	0.0015	-0.0218	0.0052	54	31
0.0007	0.0007	-0.0203	0.006	54.4	31
0.0015	-0.003	-0.0143	0.012	54.2	31
0.0015	-0.003	-0.0091	0.0172	54.2	31
0.0015	-0.0015	-0.0053	0.0142	54.3	31
0.0022	-0.003	-0.0046	0.0067	54	31
0.0045	-0.0083	-0.003	-0.003	54.4	31
0.003	-0.0113	-0.003	-0.0068	54	31
0.0022	-0.0105	-0.0015	-0.0091	54.1	31
0.0022	-0.0098	0.0022	-0.0113	54.1	31
0	-0.006	0.0082	-0.0053	54.2	31
-0.0008	-0.0015	0.0135	0.0007	54.1	31
-0.0008	0	0.0127	0.0045	53.8	31
-0.003	-0.0015	0.0135	0.0045	54.3	31
-0.003	-0.0015	0.0157	0.0015	53.9	31
-0.0038	-0.003	0.0157	0.0007	54.1	31
-0.0038	-0.0015	0.018	0.0045	53.9	31
-0.0023	-0.0023	0.018	0.0007	53.7	31
-0.0015	0	0.0195	-0.0015	54	31
-0.0015	0.0052	0.024	-0.0023	53.5	31
-0.0015	0.0037	0.0255	-0.0083	53.7	31
-0.003	-0.003	0.027	-0.0105	53.8	31
-0.0023	-0.006	0.0255	-0.0105	53.6	31
-0.0008	-0.003	0.0247	-0.012	53.5	31
-0.0008	-0.0023	0.0232	-0.0203	53.3	31
0.0015	-0.0008	0.0217	-0.0105	53.5	31
0.0015	0.0015	0.0202	-0.0015	53.2	31
0.0015	0.0045	0.018	-0.0038	53.4	31
0.003	0.006	0.0165	0.0045	53.1	31
0.0037	0.006	0.0195	0.0045	53.3	31
0.0015	0.0052	0.021	0.0045	53	31
0.0015	0.0052	0.021	0.0045	52.7	31
0.0007	0.0045	0.0217	0.0052	53	31
0	0.003	0.0202	0.0045	52.6	31
0	0.0015	0.0165	0.0007	52.8	31
0.0007	0.0007	0.0142	-0.0015	52.7	31
0.0015	-0.0015	0.012	-0.0053	52.6	31
0.0007	-0.003	0.0082	-0.003	52.7	31
0	-0.0046	0.006	-0.0023	52.2	31
-0.0008	-0.0038	0.003	-0.003	52.2	31
0	-0.0046	-0.0008	-0.006	52.2	31
-0.0015	-0.0053	-0.003	-0.0053	52.1	31
-0.0015	-0.0046	-0.0038	-0.0053	52	31
-0.0008	-0.003	-0.0046	-0.0083	52.1	31
-0.0015	-0.0038	-0.0053	-0.0068	51.9	31
-0.0015	-0.003	-0.0053	-0.0053	51.6	31
-0.0008	-0.0008	-0.0046	-0.0046	52	31
-0.0015	-0.003	-0.003	-0.003	51.3	31
-0.003	-0.0015	-0.0008	-0.0038	51.5	31
-0.0015	-0.003	0	-0.006	51.3	31
-0.0008	-0.0046	0.0015	-0.0075	51.1	31
-0.003	-0.003	0.0015	-0.0098	51.2	31
-0.003	-0.0015	0.0015	-0.0105	50.7	31
-0.003	-0.003	0.0022	-0.0091	50.8	31
-0.0046	-0.0038	0.0037	-0.0075	50.7	31
-0.0038	-0.0015	0.0045	-0.0046	50.4	31
-0.0015	-0.0015	0.0015	-0.003	50.4	31
-0.0008	-0.0015	-0.0015	-0.0023	50.3	31
0.0007	-0.0015	-0.0046	-0.0015	50.1	31
0.0037	-0.0015	-0.0046	0.0007	49.8	31
0.0052	-0.0015	-0.003	0.0007	50	31
0.0045	-0.0015	0.0015	0.0007	49.6	31
0.0067	-0.0015	0.003	-0.0008	49.7	31
0.0052	-0.0008	0.0037	-0.003	49.5	31
0.0045	-0.0008	0.0067	-0.003	49.1	31
0.0045	0	0.0105	-0.0008	49.2	31
0.003	0.0007	0.0142	0.0037	49.1	31
0.0037	0.0007	0.0142	0.0052	48.9	31
0.003	0	0.0127	0.0045	49	31
0.003	0	0.0127	0.0015	48.6	31
0.0022	0.0007	0.0127	-0.0008	48.7	31
0.0022	-0.0008	0.0105	-0.0023	48.4	31
0.0022	-0.003	0.0097	-0.003	48.3	31
0.0015	-0.0015	0.009	-0.0015	48.1	31
0.0007	-0.0008	0.0105	-0.0008	47.8	31
-0.0008	-0.0015	0.012	0.0045	47.7	31
-0.0008	-0.0015	0.0127	0.009	47.8	31
-0.0008	-0.0023	0.015	0.012	47.6	31
-0.0008	-0.003	0.015	0.0127	47.3	31
-0.0015	-0.0015	0.0157	0.0127	47.3	31
-0.0023	0	0.0187	0.0097	47.1	31
-0.0015	0.0015	0.018	0.0082	46.8	31
-0.003	0.0007	0.0165	0.006	47	31
-0.0046	-0.0008	0.015	0.0007	46.4	31
-0.003	0	0.0135	-0.0046	46.5	31
-0.0015	0	0.012	-0.0068	46.2	31
-0.003	-0.0015	0.0127	-0.006	45.9	31
-0.0023	-0.0015	0.0112	-0.0068	46	31
-0.0023	-0.0008	0.0067	-0.0068	45.8	31
-0.0023	-0.003	0.003	-0.0091	45.8	31
-0.0015	-0.003	-0.0008	-0.0091	45.6	31
-0.0015	-0.0023	-0.0053	-0.0053	45.5	31
-0.003	-0.003	-0.0105	-0.0113	45.2	31
-0.003	-0.0046	-0.0128	-0.0165	45	31
-0.003	-0.003	-0.0143	-0.012	45	31
-0.0023	-0.003	-0.015	-0.0075	44.6	31
-0.003	-0.0046	-0.0158	-0.0083	44.8	31
-0.003	-0.003	-0.0181	-0.0068	44.2	31
-0.0015	-0.0023	-0.0195	-0.0075	44.4	31
-0.003	-0.0023	-0.0218	-0.0083	44.2	31
-0.0015	-0.0015	-0.0203	-0.0083	43.8	31
0.0007	-0.003	-0.0188	-0.0091	44	31
0.0007	-0.0023	-0.0195	-0.006	43.4	31
0.0007	-0.0008	-0.0195	-0.0023	43.5	31
0	-0.0023	-0.0195	0.0045	43.4	31
0.0007	-0.0023	-0.0188	0.0045	43.2	31
0.0007	-0.003	-0.0225	0.0007	42.9	31
0.0007	-0.003	-0.0248	0	42.9	31
0.0007	-0.0023	-0.0256	-0.0015	42.7	31
0	-0.003	-0.027	-0.0008	42.3	31
0.0015	-0.003	-0.0278	-0.0046	42.6	31
0.0007	-0.003	-0.0293	-0.0046	42	31
-0.0008	0	-0.0278	-0.0068	41.9	31
0	0.0015	-0.027	-0.0091	41.9	31
0.0007	0.0007	-0.0233	-0.003	41.4	31
0.0007	-0.0008	-0.0218	-0.003	41.5	31
0.0007	-0.0008	-0.0203	-0.0008	41	31
0	0.0022	-0.0195	0.0007	41.2	31
0.0007	0.0022	-0.0181	0.0052	41	31
0.0015	0.0015	-0.015	0.009	40.6	31
0.0007	0.0007	-0.0158	0.0067	40.5	31
0.0015	-0.0008	-0.012	0.0067	40.5	31
0.0007	0.0007	-0.0105	0.0052	40	31
0.0007	0.0007	-0.0105	0.0045	39.9	31
-0.0008	-0.0015	-0.0091	0.0007	40	31
0.0007	-0.0015	-0.006	0.0007	39.6	31
0	-0.003	-0.006	0.003	39.4	31
-0.0015	-0.0053	-0.0068	0.0082	39.5	31
0.0007	-0.006	-0.003	0.012	39	31
-0.0015	-0.0046	-0.0015	0.0127	39.1	31
-0.0008	-0.0038	0.0015	0.0127	38.6	31
0.0007	-0.0046	0.0037	0.0082	38.7	31
-0.0008	-0.0023	0.0067	0.0082	38.5	31
-0.0008	0.0037	0.009	0.0067	38.2	31
-0.0015	0.0082	0.0067	-0.0053	38.2	31
-0.0008	0.0067	0.0097	-0.0083	38	31
-0.0015	0.0052	0.0112	-0.0046	37.8	31
-0.0008	0.0075	0.012	0	37.6	31
0.0007	0.0045	0.0127	0.0045	37.7	31
0.0015	-0.0008	0.0105	0.0067	37.3	31
0.0015	-0.0015	0.0082	0.0075	37.1	31
0	-0.0015	0.0067	-0.003	37.3	31
-0.0008	-0.0015	0.0067	-0.0293	36.5	31
-0.0008	-0.0023	0.0075	-0.0218	36.8	31
0.0015	-0.0046	0.009	0.0007	36.6	31
0	-0.0075	0.0105	-0.006	36.3	31
-0.0015	-0.0053	0.0097	-0.0038	36.2	31
0.0007	-0.003	0.012	-0.0023	36	31
-0.0015	-0.0053	0.0142	-0.0038	36	31
-0.0015	-0.006	0.0142	-0.0015	35.7	31
-0.0023	-0.0053	0.0142	-0.0046	35.4	31
-0.0015	-0.0038	0.0157	0.0007	35.3	31
-0.0015	-0.0046	0.0142	0.0015	35.1	31
-0.0023	-0.0046	0.0142	0.003	35	31
-0.0008	-0.0038	0.0142	0.0045	34.6	31
-0.0015	-0.003	0.0112	0.003	34.7	31
0	-0.0008	0.0097	0.003	34.3	31
0.0015	0.0052	0.0082	0.0045	34.3	31
0.0007	0.0082	0.0082	0.0037	34.1	31
0.0007	0.003	0.0075	0.003	33.8	31
0	0.0007	0.0067	0.0015	33.7	31
0.0015	0	0.0075	-0.0008	33.3	31
-0.0008	-0.0015	0.0082	-0.0023	33.4	31
-0.0023	-0.0015	0.0075	0.0015	33.1	31
-0.0015	-0.0015	0.0075	0.0075	32.8	31
-0.0008	-0.0015	0.0082	0.0022	33	31
0	-0.0015	0.009	-0.0038	32.3	31
0.0007	-0.0023	0.0097	-0.0105	32.4	31
-0.0008	-0.0008	0.0097	-0.0091	32	31
0	-0.0008	0.0082	0.0157	31.9	31
0.0007	-0.0015	0.0052	0.0262	31.8	31
0	0.0007	0.0052	0.0105	31.5	31
0.0007	0.0015	0.006	-0.0015	31.3	31
0.0007	-0.0008	0.0052	-0.0128	31	31
0.0007	-0.0023	0.0045	-0.0098	31	31
0.0022	-0.0023	0.0022	0.0007	30.6	31
0.0007	-0.0015	0.0015	-0.0128	30.7	31
0.0015	-0.0008	0.0022	-0.0203	30.5	31
0.0022	-0.0023	0.0015	-0.0098	30.1	31
0.0015	-0.0023	0.0007	-0.0046	30.3	31
0.0022	-0.0038	0.0015	-0.0158	29.9	31
0.0007	-0.0038	0.003	-0.0195	29.9	31
0.0015	-0.003	0.0022	-0.0165	29.4	31
0.0007	-0.003	0.003	-0.0113	29.5	31
-0.0008	-0.0008	0.0022	0.0082	29.3	31
0	0.0007	0.0022	0.0232	29.1	31
-0.0008	-0.0008	0.0045	0.0142	28.7	31
-0.0008	-0.0015	0.0037	0.0052	28.7	31
0	-0.0015	0.0022	0.009	28.7	31
0.0007	-0.0008	0.0007	-0.0008	28.2	31
0	0.0007	-0.0008	-0.0046	28.2	31
0.0007	-0.0008	-0.0015	0.0037	28.2	31
0.0007	-0.0008	-0.0015	-0.006	27.9	31
0	-0.0008	-0.0015	-0.0165	27.9	31
0.0007	-0.0015	-0.003	0.0172	27.3	31
-0.0008	-0.0008	-0.0046	0.027	27.6	31
-0.0015	-0.0008	-0.0015	-0.0046	27	31
-0.0023	-0.003	-0.0008	0.003	27.1	31
-0.003	-0.0023	-0.0008	0.003	27	31
-0.0015	-0.003	0.0022	0.012	26.7	31
-0.0015	-0.0015	0.0015	0.0112	26.4	31
0	-0.0015	0.0015	-0.0143	26.2	31
0.0007	-0.0023	0.0015	-0.0195	26.3	31
-0.0008	-0.003	0.003	-0.0128	25.9	31
0	-0.003	0.0015	-0.0091	25.7	31
-0.0008	-0.003	0.0007	-0.0091	25.7	31
0	-0.0053	0	0.0015	25.2	31
0.0007	-0.0038	-0.0008	0.0045	25.5	31
-0.0008	-0.0038	-0.0015	-0.0053	24.9	31
0.0007	-0.0038	-0.0023	-0.0158	24.7	31
0.0007	-0.0038	-0.003	-0.0218	24.6	31
0	-0.003	-0.003	-0.0218	24.2	31
-0.0008	-0.0008	-0.0038	-0.0203	24.4	31
-0.0015	0.0015	-0.0023	-0.012	23.7	31
-0.0008	0.006	-0.0008	0.0172	23.8	31
0	0.0052	-0.0008	0.0367	23.7	31
0.0015	0.0007	-0.0008	0.0052	23.4	31
0.0007	-0.0008	0.0015	-0.0105	23.2	31
0.0007	-0.0015	0.0015	-0.0015	22.8	31
0.0007	-0.0008	0.0015	-0.003	22.9	31
0.0007	-0.0008	0.0015	0.0082	22.5	31
0.0007	0.0007	0.0022	0.0195	22.5	31
-0.0008	0.0022	0.0007	0.0112	22.2	31
-0.0008	-0.0015	0	-0.0083	21.8	31
-0.0008	-0.003	-0.0023	-0.0068	22.1	31
-0.0008	0.0007	-0.0046	0.0127	21.4	31
-0.0008	0.0007	-0.0046	0.0187	21.7	31
-0.0023	-0.0015	-0.006	0.0045	21.2	31
-0.003	-0.0015	-0.0046	0.0097	21	31
-0.003	-0.0015	-0.003	0.018	21.1	31
-0.0008	0	-0.0015	0.0075	20.6	31
0.0007	-0.0008	0.0007	0.0135	20.3	31
0.0007	-0.0015	0.0007	0.0135	20	31
-0.0008	-0.0015	0.0007	0.006	20	31
-0.0008	-0.0008	0.003	0.006	19.7	31
-0.0015	-0.0008	0.0045	0	19.3	31
-0.0023	-0.0008	0.0022	-0.0075	19.3	31
-0.0015	-0.0015	0.0007	-0.0143	18.7	31
-0.0015	-0.0008	-0.0046	-0.0165	18.9	31
-0.0015	-0.0008	-0.006	-0.012	18.3	31
0.0007	-0.0008	-0.006	-0.0285	18.2	31
0.0015	0.0015	-0.0068	-0.0353	18	31
0.0015	0.003	-0.003	-0.0046	17.6	31
0.003	0.0015	-0.0046	0.0172	17.7	31
0.0037	-0.0015	-0.0046	0.006	17.1	31
0.0052	-0.0038	-0.003	-0.0046	16.9	31
0.003	-0.003	-0.0038	-0.0008	17	31
0.0015	-0.003	-0.0046	-0.0053	16.6	31
0	-0.003	-0.0046	-0.003	16.2	31
-0.0015	-0.003	-0.003	-0.0083	16.1	31
-0.0008	-0.0015	0	-0.0165	15.8	31
-0.0008	-0.0015	0.0007	-0.0256	15.3	31
0.0015	-0.0008	0.003	-0.0181	15.7	31
-0.0015	0.0007	0.0045	0.0082	14.9	31
-0.003	-0.0008	0.0052	0.0165	15	31
-0.0023	-0.003	0.0045	0.0255	14.8	31
-0.003	-0.0038	0.003	0.0217	14.4	31
-0.003	-0.003	0.0015	0.009	14.3	31
-0.0015	-0.0023	0.0007	0.003	14.2	31
-0.0015	-0.0008	0	0.015	13.8	31
0.0007	0.0015	-0.0008	0.0202	13.8	31
0.003	0.0015	-0.0015	-0.012	13.2	31
0.0015	0.0007	-0.0008	-0.0008	13.3	31
0.0007	-0.0015	0.0007	0.003	13	31
-0.0008	-0.0015	0.003	-0.0315	12.7	31
-0.003	-0.0023	0.0037	-0.0218	12.7	31
-0.0053	-0.003	0.003	-0.0091	12.5	31
-0.0038	-0.0038	0	-0.0068	12.3	31
-0.0015	-0.003	0.0007	-0.0068	12	31
-0.0015	-0.0023	0.0015	-0.0008	12.1	31
-0.0008	-0.003	0.0015	0.0135	11.8	31
0	-0.0015	0.0007	0.0097	11.6	31
0.0007	-0.0015	0	0.0007	11.6	31
0.0007	-0.0015	-0.0008	-0.0015	11.3	31
-0.0008	-0.0015	-0.0015	-0.003	11.3	31
0.0007	-0.0015	0	-0.003	10.8	31
0.0037	0.0007	0.0007	-0.0015	10.9	31
0.0052	0.0007	-0.0008	-0.0015	10.7	31
0.006	0.0007	-0.0015	-0.0008	10.5	31
0.006	0.0022	-0.0015	-0.0015	10.4	31
0.0015	0.003	-0.0008	-0.0015	10.2	31
-0.0008	0.0015	-0.0008	-0.0008	10.2	31
-0.0023	-0.0008	-0.0015	-0.0008	9.9	31
-0.0046	-0.0008	-0.0038	-0.0023	10	31
-0.0053	-0.0008	-0.0068	-0.006	10	31
-0.0053	-0.0015	-0.0091	-0.0046	9.6	31
-0.003	-0.0015	-0.012	0	9.6	31
-0.0008	-0.0023	-0.0128	0.0022	9.3	31
0.0007	-0.003	-0.0128	-0.0008	9.5	31
0.0007	-0.0038	-0.0113	-0.0046	9.1	31
0.0007	-0.0068	-0.0105	-0.0091	9	31
0.0015	-0.006	-0.0083	-0.0105	9.2	31
0.0015	-0.006	-0.0053	-0.0091	8.7	31
0.0045	-0.0046	-0.006	-0.0008	9.2	31
0.0037	-0.0015	-0.0053	0.0067	8.7	31
0	0	-0.0038	0.0015	8.7	31
0.0015	0.0015	-0.003	0.0007	8.5	31
-0.0008	0.0007	-0.0023	0.0015	8.5	31
-0.0023	-0.0008	-0.0015	0.0015	8.5	31
-0.0008	-0.0008	-0.0038	-0.0008	8.1	31
0.0015	0	-0.0038	-0.0008	8.4	31
0.0052	0.0015	-0.003	0.0052	8	31
0.0082	0.0045	-0.003	0.0052	8.1	31
0.0082	0.0045	0.0007	0.003	8.1	31
0.0045	0.0007	0.0015	-0.003	7.7	31
-0.0015	-0.0038	0.0015	-0.0068	8	31
-0.0053	-0.0053	0.003	-0.0098	7.6	31
-0.0068	-0.006	0.003	-0.012	8	31
-0.006	-0.0068	0.0067	-0.0068	7.6	31
-0.0038	-0.0046	0.0075	-0.0015	7.6	31
-0.003	-0.0046	0.006	0.0007	7.6	31
-0.0015	-0.0015	0.0082	0.0015	7.6	31
-0.0008	-0.0015	0.0075	-0.0015	7.6	31
-0.0008	-0.0023	0.009	-0.0015	7.4	31
-0.0008	-0.0008	0.0067	-0.0015	7.6	31
0.0015	-0.0023	0.006	-0.0038	7.3	31
0.0015	-0.0015	0.0075	-0.0015	7.4	31
0.0007	0.0007	0.0067	-0.0053	7.5	31
0.0022	0.0015	0.003	-0.006	7.1	31
0.0007	0.0015	-0.003	-0.0068	7.6	31
0.0007	0.0007	-0.0038	-0.0165	7	31
0.0007	0.0015	-0.003	-0.0293	7.2	31
-0.0008	0	-0.0046	-0.0203	7.2	31
-0.0015	-0.0015	-0.003	0.009	7.1	31
-0.003	-0.006	-0.003	0.0195	7.5	31
-0.003	-0.0113	-0.0015	0.0232	7.2	31
-0.003	-0.012	-0.0015	0.0232	7.1	31
-0.003	-0.0128	0	0.024	7.1	31
-0.0015	-0.0128	0.0007	0.024	7.2	31
0	-0.015	-0.0008	0.0045	7	31
0.0007	-0.0158	-0.0008	-0.0053	7.1	31
0.0022	-0.0128	-0.0008	-0.006	7.4	31
0.003	-0.0091	-0.0015	-0.0046	6.9	31
0.003	-0.0008	-0.0015	-0.0023	7.5	31
0.003	0.0075	-0.0015	-0.003	7.2	31
0.0007	0.0127	-0.0038	-0.0008	7.2	31
0	0.024	-0.0038	-0.0053	7.4	31
0.0015	0.0277	-0.0053	-0.027	7.2	31
0.0052	0.0292	-0.0083	-0.0465	7.5	31
0.0037	0.033	-0.0098	-0.0278	7.3	31
0.0007	0.0315	-0.0105	0.009	7.2	31
0.0015	0.024	-0.0105	0.0202	7.6	31
0.0037	0.0067	-0.0098	0.0105	7.3	31
0.0015	-0.0008	-0.0105	-0.0038	7.5	31
0	-0.003	-0.0105	-0.0218	7.6	31
-0.0008	-0.0105	-0.0105	-0.0158	7.6	31
-0.0046	-0.0143	-0.0098	0.0105	7.3	31
-0.0046	-0.0165	-0.0046	0.0315	7.7	31
-0.003	-0.0143	-0.0008	0.0165	7.6	31
-0.0023	-0.0105	-0.0008	-0.0105	7.6	31
-0.0008	-0.0038	0.0007	-0.012	7.9	31
0.0007	-0.0015	-0.0008	-0.0188	7.8	31
0.0007	-0.0128	-0.0015	-0.0023	7.9	31
-0.0023	-0.015	-0.0008	0.0397	8	31
-0.003	-0.0158	-0.0015	0.0645	7.7	31
-0.0015	-0.024	-0.0053	0.0382	8.2	31
-0.0015	-0.033	-0.0053	0.0187	7.9	31
-0.003	-0.039	-0.0053	-0.006	8.2	31
-0.003	-0.0413	-0.0083	-0.0458	8.1	31
-0.0038	-0.0436	-0.0113	-0.0278	8.4	31
-0.003	-0.0361	-0.0143	-0.0083	8.3	31
0	-0.0218	-0.0128	-0.0091	8.5	31
-0.0008	-0.0128	-0.012	-0.0015	8.6	31
0	-0.0105	-0.012	0.003	8.5	31
0.0007	0	-0.0091	-0.0158	8.5	31
0.0015	0.033	-0.0046	-0.0248	8.7	31
0.0037	0.0765	0.0015	-0.0083	8.6	31
0.0052	0.0967	0.0075	0.0112	9	31
0.0052	0.0765	0.015	0.0135	8.7	31
0.0007	0.036	0.0142	0.0022	9	31
-0.0046	0.0135	0.0105	0.0007	9	31
-0.0046	0.0067	0.0082	0.0045	9	31
-0.0046	-0.0135	0.0052	0.0045	9.2	31
-0.0015	-0.0195	0.0067	-0.0068	9	31
-0.0008	-0.0188	0.0082	-0.0068	9.2	31
0.0007	-0.0218	0.0067	-0.0083	9.2	31
0.003	-0.0008	0.0067	-0.0023	9.4	31
0.0007	0.0292	0.0082	0.0082	9.4	31
-0.0023	0.0405	0.0097	0.0037	9.3	31
-0.0015	0.0157	0.0082	-0.0008	9.6	31
0.0007	0.006	0.0067	-0.012	9.4	31
0.0037	0.0187	0.006	-0.0218	9.8	31
0.003	-0.0008	0.0037	-0.0293	9.4	31
-0.0015	-0.0203	0.0045	-0.0218	9.8	31
-0.003	-0.0218	0.0052	-0.027	9.8	31
-0.0023	-0.03	0.006	-0.0353	9.6	31
-0.0023	-0.039	0.006	-0.0075	10.2	31
-0.0008	-0.0308	0.0037	0.024	9.9	31
-0.0015	-0.0083	0.0045	0.0307	10.3	31
-0.0008	0.0157	0.0067	0.0217	10.3	31
0.0015	0.0247	0.0067	0.0345	10.4	31
0.0015	0.0255	0.0052	0.066	10.4	31
0.0007	0.0157	0.0045	0.06	10.4	31
-0.0015	0.0007	0.003	0.0322	10.8	31
-0.0038	-0.0068	0.0052	0.009	10.5	31
-0.003	-0.0135	0.0052	-0.0256	10.8	31
-0.0015	-0.0278	0.0052	-0.0218	10.8	31
0.0007	-0.0398	0.0037	-0.0098	10.8	31
0.0007	-0.0361	0.0045	-0.0278	11.2	31
0.003	-0.0195	0.0075	-0.0233	10.9	31
0.0022	0.0045	0.0067	-0.0203	11.4	31
-0.0008	0.0165	0.0112	-0.0443	11.3	31
-0.003	0.0135	0.0142	-0.0788	11.4	31
-0.0046	0.0127	0.0142	-0.0908	11.7	31
-0.0015	0.0067	0.0142	-0.0278	11.7	31
0.0015	-0.0068	0.0127	0.0457	11.9	31
0.003	-0.0135	0.0127	0.087	12.1	31
0.003	-0.0083	0.0097	0.108	12	31
0.003	-0.0046	0.0082	0.0727	12.1	31
0	-0.0105	0.009	0.054	12.1	31
-0.0023	-0.012	0.0142	0.012	12.2	31
-0.0015	-0.0128	0.0142	-0.0533	12	31
-0.0008	-0.0203	0.0165	-0.0428	12.6	31
-0.003	-0.0233	0.0202	-0.0181	12.1	31
-0.0015	-0.0256	0.0202	0.009	12.4	31
0	-0.0225	0.021	0.0405	12.6	31
0	-0.0143	0.0232	0.027	12.5	31
0.0022	-0.0158	0.0255	-0.0181	12.7	31
0	-0.0128	0.0255	-0.0323	12.7	31
-0.0008	0.006	0.021	-0.0346	12.4	31
0	0.0187	0.0157	-0.0308	12.8	31
-0.0008	-0.0046	0.009	-0.0233	12.6	31
0	-0.057	0.0045	-0.012	12.7	31
0.003	-0.0825	0.003	0.0067	12.8	31
0.006	-0.0743	0.0045	0.009	12.9	31
0.003	-0.0495	0.0082	-0.0023	12.6	31
-0.0008	-0.0068	0.0082	-0.0046	13.1	31
-0.0023	0.0442	0.0052	0.0045	13.2	31
-0.0008	0.057	0.0007	0.0007	12.9	31
0.0052	0.051	-0.0083	0.0045	13.1	31
0.009	0.1005	-0.0091	0.0127	12.8	31
0.0067	0.153	-0.0068	0.0202	12.9	31
0	0.1785	-0.0105	0.0157	13.1	31
-0.0038	0.165	-0.0173	0	13	31
-0.0053	0.0862	-0.0293	-0.0098	13.4	31
-0.0053	0.0217	-0.0368	-0.0128	13	31
-0.0023	-0.003	-0.0383	-0.012	13.4	31
-0.003	-0.0285	-0.042	-0.012	13.4	31
0.0015	-0.0346	-0.0405	-0.0083	13.2	31
0.003	-0.0315	-0.0383	-0.0105	13.2	31
-0.0023	-0.0383	-0.0383	-0.0098	13.3	31
-0.0053	-0.0465	-0.0405	-0.0091	13.4	31
-0.0053	-0.0503	-0.042	-0.0075	13.1	31
-0.0038	-0.0375	-0.042	-0.0046	13.3	31
-0.0053	-0.0375	-0.042	-0.0038	13.4	31
-0.003	-0.0443	-0.039	0.0007	13.2	31
-0.003	-0.039	-0.0315	0.0015	13.5	31
-0.0008	-0.0368	-0.024	0.0052	13.1	31
0.0015	-0.0315	-0.0203	0.0075	13.6	31
0	-0.024	-0.0143	0.0075	13.5	31
0.0007	-0.012	-0.0113	0.0082	13.5	31
0	0.0112	-0.0068	0.0105	13.7	31
0.0007	0.0307	-0.003	0.009	13.4	31
0.0007	0.0382	-0.0083	0.0045	13.7	31
0.003	0.0262	-0.0105	0.003	13.7	31
0.0022	-0.0008	-0.0098	-0.0008	13.7	31
-0.0015	-0.0128	-0.0098	-0.0046	13.9	31
-0.0023	-0.0098	-0.0075	-0.0068	14	31
-0.003	-0.0098	-0.0075	-0.0046	14.3	31
0.0007	-0.0158	-0.0091	-0.0046	14	31
0.0067	-0.0218	-0.0075	-0.003	14.4	31
0.0067	-0.0165	-0.0023	-0.0053	14.3	31
0.003	-0.0068	0.0022	-0.0091	14.6	31
0	-0.0195	0.003	-0.0068	14.5	31
-0.0008	-0.027	0.0007	-0.0053	14.5	31
-0.0008	-0.0181	-0.0023	-0.0008	14.8	31
0	-0.0105	0.0007	0.0045	14.5	31
-0.0015	0.0015	0.0015	0.0112	15	31
-0.0015	0.0022	0	0.0127	14.7	31
0.0075	-0.003	0.0007	0.0127	14.8	31
0.0135	-0.0083	0.0007	0.012	15.2	31
0.0142	-0.0105	0.003	0.0015	15.3	31
0.0052	-0.0038	0.0082	-0.003	15	31
-0.0091	-0.0091	0.0135	-0.006	15.1	31
-0.0128	-0.0091	0.0127	-0.0091	15.7	31
-0.015	0.0052	0.0105	-0.0083	15.2	31
-0.012	0.0187	0.0082	-0.0128	15.7	31
-0.0083	0.0172	0.0082	-0.0181	15.7	31
-0.0068	0.009	0.012	-0.0158	15.7	31
-0.0008	0.0142	0.0127	-0.0015	16.2	31
0.012	0.0157	0.0157	0.0067	16	31
0.0277	0.015	0.0142	0.012	16.5	31
0.0322	0.0067	0.0157	0.0142	16.2	31
0.0202	-0.0105	0.0232	0.0097	16.7	31
0.006	-0.0105	0.0315	-0.0015	16.8	31
-0.0068	-0.0128	0.0352	-0.006	16.9	31
-0.0143	-0.0203	0.0337	0.0037	16.9	31
-0.0128	-0.015	0.027	0.0052	17	31
-0.0098	-0.0053	0.0187	0.0067	17.2	31
-0.0075	-0.0023	0.012	0.0082	16.9	31
-0.0053	0.0007	0.0045	0.0067	17.5	31
-0.003	0.0015	-0.0015	0.0067	17.2	31
-0.0008	0.003	0.0007	0.0045	17.2	31
-0.0023	0.003	0.0037	0.0007	17.5	31
-0.0053	0.0015	0.0075	-0.0008	17.2	31
-0.0046	0.0045	0.018	0.0015	17.5	31
-0.0038	0.0052	0.024	0.0007	17.3	31
-0.003	0.0007	0.027	-0.0008	17.4	31
-0.003	0	0.0277	0.0007	17.6	31
0.0007	0.006	0.0255	0.0007	17.5	31
0.003	0.003	0.027	-0.0046	17.5	31
0.003	0.0022	0.03	-0.0053	17.3	31
0.0067	0.0045	0.0307	-0.0046	17.2	31
0.003	-0.003	0.0322	-0.0046	17.1	31
-0.0053	-0.0098	0.0315	-0.0075	16.9	31
-0.0046	-0.0091	0.0307	-0.0075	16.9	31
-0.0068	0	0.0247	0.0217	16.6	31
-0.0083	0.009	0.012	0.0307	16.6	31
-0.0046	0.015	0.0007	0.0105	16.3	31
-0.0008	0.0142	-0.0113	-0.0015	16.6	31
0.0037	0.0165	-0.0233	-0.0008	16	31
0.009	0.0195	-0.0285	0.0015	16.2	31
0.0105	0.0142	-0.0308	-0.0075	16.2	31
0.009	0.0007	-0.033	-0.0165	15.9	31
0.0052	-0.0263	-0.0256	-0.0075	16.1	31
0.0022	-0.0278	-0.0098	0.0127	15.9	31
-0.003	-0.024	-0.0068	-0.0015	15.8	31
-0.006	-0.033	-0.0038	-0.024	16	31
-0.0008	-0.0128	-0.0053	-0.0315	15.7	31
0.0022	0.0007	-0.0075	-0.0181	15.9	31
0.0007	-0.0098	-0.0053	-0.0083	15.9	31
-0.0015	-0.0091	-0.0046	-0.0105	16	31
-0.003	0.0007	-0.0053	0.006	15.6	31
-0.0015	0.0127	-0.0143	0.0067	15.8	31
0.003	0.0052	-0.0165	-0.003	15.6	31
0.009	-0.012	-0.0233	-0.0105	15.7	31
0.0075	-0.015	-0.0256	0.0112	16	31
-0.003	-0.0008	-0.0218	0.0082	15.5	31
-0.0091	0.0067	-0.0263	-0.0195	15.7	31
-0.0083	0.0067	-0.033	-0.0128	15.7	31
-0.003	0.0082	-0.0361	-0.0105	15.4	31
-0.0008	0.0045	-0.0315	-0.0105	15.7	31
0	0.003	-0.03	-0.0181	15.2	31
0.0007	-0.0015	-0.0256	-0.0181	15.4	31
-0.0015	-0.0023	-0.0188	-0.0128	15.4	31
-0.0015	-0.0023	-0.015	-0.0083	15.3	31
-0.0023	-0.003	-0.012	-0.0053	15.1	31
-0.003	-0.0015	-0.012	-0.003	15.3	31
-0.003	-0.0015	-0.0098	0.0045	15.1	31
-0.0015	0.003	-0.0068	0.0022	14.9	31
-0.0008	0.0022	-0.0053	0.0015	15.2	31
-0.0008	0.003	-0.0023	-0.0015	14.8	31
0.0015	0.0045	0.0037	-0.0098	14.7	31
0.0015	0.0052	0.0067	-0.0225	14.9	31
0.0007	0.006	0.009	-0.0293	14.5	31
-0.0015	0.0022	0.0127	-0.0233	15	31
-0.0038	0.0007	0.0142	-0.0128	14.5	31
-0.003	0.0007	0.0157	-0.0105	14.8	31
-0.0008	-0.0008	0.0165	-0.0181	15	31
0	0.0007	0.0195	-0.012	14.6	31
-0.0023	-0.0008	0.0225	0.0045	14.6	31
-0.003	-0.0053	0.0255	0.0067	14.7	31
-0.0023	-0.0068	0.027	0.0067	14.7	31
-0.0046	-0.0038	0.0277	0.0172	14.6	31
-0.0046	-0.0008	0.0292	0.0247	14.5	31
-0.0008	-0.0046	0.0292	0.0082	14.7	31
0.0007	-0.0053	0.0307	-0.0068	14.3	31
-0.0008	-0.003	0.0307	-0.0038	14.7	31
0.0007	-0.0023	0.0307	-0.0053	14.4	31
0.0015	-0.0015	0.03	-0.0068	14.4	31
0.0045	-0.003	0.0307	-0.006	14.4	31
0.0052	-0.0008	0.0307	-0.006	14.1	31
0.0052	0.0007	0.0277	-0.0015	14.5	31
0.0067	-0.0008	0.0232	-0.003	14.1	31
0.006	-0.003	0.018	-0.0015	14.3	31
0.0045	-0.0038	0.0127	-0.003	14.3	31
0.0045	-0.003	0.0105	-0.003	14.3	31
0.003	-0.0015	0.009	-0.0015	14.1	31
0.0007	-0.0015	0.0045	-0.003	14.1	31
-0.0008	-0.003	-0.003	-0.0053	14.4	31
-0.0015	-0.0038	-0.0091	-0.0053	14.1	31
-0.0008	-0.0046	-0.0165	0	14.4	31
0.0007	-0.003	-0.0225	-0.0008	14.2	31
0.0015	-0.0015	-0.0263	0.0015	14	31
0.0015	0	-0.0346	0.003	14.3	31
0.0015	0.0015	-0.039	0.0022	13.8	31
0.003	0.0007	-0.042	0.0045	14.2	31
0.0022	0.0007	-0.0405	0.0037	14	31
0.0015	0.0007	-0.0398	0.0067	13.9	31
0.0015	0	-0.0428	0.0082	14.1	31
0.0015	0.0007	-0.0428	0.0097	13.7	31
0.0007	0.0007	-0.0428	0.0097	14	31
0.0007	0.0007	-0.042	0.006	13.9	31
0.0007	-0.0008	-0.0383	0.0045	13.8	31
0.0015	0.0007	-0.033	0.0052	13.8	31
0.0022	0.0015	-0.03	0.006	13.7	31
0.0015	-0.0015	-0.0278	0.0105	13.7	31
0.0015	-0.0015	-0.0225	0.0135	13.4	31
0.003	-0.0015	-0.0181	0.0135	13.7	31
0.003	-0.0038	-0.0158	0.0165	13.4	31
0.0007	-0.0038	-0.0128	0.0202	13.5	31
0.0022	-0.0038	-0.0091	0.0225	13.5	31
0.0015	-0.0023	-0.0068	0.0255	13.1	31
0.0007	-0.0008	-0.0038	0.0285	13.5	31
0.0015	-0.0008	0.0015	0.03	13.1	31
0.0015	-0.0008	0.0052	0.0307	13	31
0.0015	-0.0008	0.009	0.0307	13.2	31
0.0007	-0.0008	0.0127	0.0277	13.2	31
0.0015	-0.0015	0.0165	0.0247	13	31
0	-0.003	0.018	0.0225	13	31
-0.0008	-0.003	0.018	0.021	13	31
-0.0008	-0.0015	0.0187	0.018	12.5	31
-0.0008	-0.0023	0.018	0.0135	12.8	31
-0.0008	-0.0008	0.0195	0.009	12.7	31
-0.0008	-0.0008	0.0202	0.003	12.5	31
-0.003	-0.0015	0.0195	-0.0008	12.6	31
-0.003	0.0007	0.0202	-0.0068	12.2	31
-0.0015	-0.0008	0.0195	-0.0091	12.6	31
-0.0023	0.0007	0.0187	-0.012	12.6	31
-0.0015	0.0015	0.018	-0.0143	12.1	31
-0.0015	0.0015	0.0172	-0.0158	12.6	31
-0.0015	0.0007	0.0172	-0.0181	12	31
-0.0015	-0.0008	0.0165	-0.0181	12.1	31
-0.0008	0	0.0157	-0.0165	12.1	31
-0.0015	-0.0015	0.0135	-0.0181	12	31
-0.0023	-0.0015	0.0135	-0.0188	12	31
-0.0008	-0.0008	0.0135	-0.0181	11.9	31
-0.0015	0.0015	0.015	-0.0173	12.1	31
-0.003	0.0007	0.0172	-0.0165	11.7	31
-0.0046	0.0007	0.0142	-0.0181	12	31
-0.0068	0.0015	0.0142	-0.0181	11.8	31
-0.0068	0.0007	0.015	-0.0203	11.6	31
-0.0053	-0.0008	0.0142	-0.021	11.8	31
-0.003	-0.0008	0.0127	-0.0195	11.5	31
-0.0008	-0.0015	0.0105	-0.0195	11.7	31
0.0015	-0.0015	0.0097	-0.0158	11.7	31
0	-0.0015	0.006	-0.0143	11.4	31
-0.0008	-0.0015	0.0045	-0.0128	11.5	31
-0.0008	-0.0008	0.0045	-0.0105	11.4	31
-0.0023	-0.0008	0.003	-0.0105	11.4	31
-0.003	-0.0008	0.0015	-0.0083	11.4	31
-0.0015	-0.0008	-0.003	-0.0075	11.2	31
-0.0046	-0.0008	-0.003	-0.006	11	31
-0.0053	-0.0008	-0.0046	-0.0068	11	31
-0.0046	0.0007	-0.0083	-0.0068	11.2	31
-0.0046	0.0007	-0.012	-0.0038	10.8	31
-0.0008	-0.0008	-0.0143	-0.0038	11.2	31
0.0015	-0.0008	-0.0158	-0.003	10.9	31
0.0015	-0.0008	-0.0195	-0.0008	10.9	31
-0.0015	0.0007	-0.0195	0.0007	10.9	31
-0.0008	0.0007	-0.0165	0.0015	10.6	31
0.0015	-0.0015	-0.0181	0.0015	11	31
0.0022	-0.003	-0.0181	0.003	10.5	31
0.0015	-0.0038	-0.0165	0.0037	10.9	31
0.0007	-0.0046	-0.0158	0.0045	10.8	31
-0.003	-0.0053	-0.012	0.0045	10.6	31
-0.0038	-0.0038	-0.0083	0.0052	10.6	31
-0.003	-0.003	-0.0046	0.0067	10.6	31
0	-0.0015	-0.003	0.0052	10.7	31
0.0007	-0.0008	-0.0008	0.0075	10.3	31
0.0022	-0.0008	0.0015	0.006	10.6	31
0.0007	0.0007	0.0037	0.0052	10.5	31
0.0015	-0.0008	0.003	0.006	10.3	31
0.0022	0	0.003	0.0075	10.7	31
-0.0008	0	0.0037	0.0075	10.3	31
-0.0023	0.0015	0.0007	0.0067	10.6	31
-0.0008	0	0.0022	0.0082	10.3	31
0.0007	-0.003	0.0007	0.0082	10.3	31
0.0022	-0.003	-0.0015	0.0075	10.3	31
0.003	-0.0008	-0.0008	0.006	10.1	31
0.003	0.0007	0.0022	0.0052	10.2	31
0.0037	-0.0023	0.0052	0.003	10	31
0.0015	-0.0023	0.0052	0.0022	10.2	31
-0.0008	0	0.009	0.0015	10	31
-0.0008	-0.0015	0.009	0.0007	10.1	31
-0.0023	-0.003	0.009	-0.0008	10.2	31
-0.0053	-0.0053	0.009	-0.0015	9.8	31
-0.0046	-0.0075	0.009	-0.0015	10.2	31
-0.0008	-0.0053	0.0082	-0.0015	9.7	31
0.0007	-0.0015	0.0052	-0.0015	9.9	31
0.0015	0.0007	0.003	-0.0023	9.9	31
0.0007	0.0007	0.0015	-0.003	9.9	31
0.0007	0.0007	0.0052	-0.003	10.1	31
0.0015	0.0007	0.0082	-0.003	9.8	31
0.003	0.0007	0.0075	-0.0038	9.9	31
0.0007	0.0015	0.0052	-0.0046	9.9	31
-0.0015	-0.0008	0.0052	-0.0046	9.6	31
-0.0008	-0.003	0.0045	-0.0068	9.9	31
-0.0015	-0.0053	0.0015	-0.0083	9.8	31
-0.0008	-0.0053	-0.003	-0.006	9.7	31
0.0007	-0.003	-0.0075	-0.0053	9.5	31
0.0007	-0.0023	-0.0128	-0.006	9.8	31
0.0015	-0.0023	-0.0135	-0.0046	9.5	31
0.0045	-0.0008	-0.0143	-0.0053	9.6	31
0.0037	-0.0015	-0.0158	-0.0068	9.6	31
0.0037	-0.003	-0.0105	-0.0053	9.4	31
0.003	-0.0015	-0.0068	-0.006	9.5	31
-0.0008	-0.0008	-0.003	-0.0053	9.5	31
-0.003	0	0	-0.006	9.4	31
-0.0008	0.0007	0.0022	-0.006	9.6	31
0.0007	-0.0015	0.0067	-0.0053	9.2	31
0.003	-0.003	0.0105	-0.0053	9.5	31
0.0045	-0.0023	0.0127	-0.0046	9.3	31
0.0045	-0.0023	0.0142	-0.0053	9.4	31
0.0045	-0.003	0.0165	-0.003	9.3	31
0.0015	-0.0038	0.018	-0.0023	9.4	31
-0.0008	-0.003	0.018	-0.0046	9.2	31
-0.0008	-0.003	0.0172	-0.0023	9	31
-0.0008	-0.0023	0.0172	-0.0015	9.4	31
-0.0015	-0.0008	0.018	-0.0038	9.1	31
-0.0015	0	0.0187	-0.0053	9.2	31
-0.0015	0.0007	0.0202	-0.0046	9.2	31
-0.0015	0.0007	0.0202	-0.0023	8.8	31
-0.0015	0.0007	0.0217	-0.0015	9.3	31
-0.0008	0.0007	0.0217	-0.0015	8.9	31
-0.0008	-0.0015	0.0225	-0.0008	9.3	31
-0.0008	-0.0015	0.024	0.0007	9.2	31
0.003	-0.003	0.0262	0.0007	8.8	31
0.0022	-0.0038	0.0292	0.0015	8.9	31
0.0007	-0.0023	0.0307	0.0007	9	31
0.0007	-0.0023	0.033	0.0015	9	31
0	-0.0023	0.0352	0.0015	8.8	31
-0.0015	-0.003	0.036	0.0015	8.8	31
-0.0015	-0.0046	0.0352	0.0015	9	31
-0.0008	-0.0053	0.0382	0.0007	8.7	31
0	-0.0038	0.042	0.003	9	31
-0.0008	-0.0015	0.042	0.003	8.5	31
-0.0008	-0.0015	0.042	0.0015	8.9	31
-0.0008	0.0007	0.0405	0.0022	8.5	31
-0.0008	0.0007	0.0382	0.0022	8.4	31
0	0.0007	0.039	0.0022	8.7	31
-0.0015	0.0007	0.039	0.0045	8.4	31
-0.0015	0	0.0382	0.0045	8.8	31
-0.0008	0	0.0382	0.003	8.3	31
-0.0015	-0.0008	0.0382	0.0022	8.5	31
-0.0015	0	0.0367	0.0007	8.5	31
-0.0015	0.0007	0.0345	0.0007	8.3	31
-0.003	0.0015	0.033	0.0015	8.2	31
-0.003	0.0015	0.0285	0.0007	8.1	31
-0.0015	0.0007	0.0262	0.0015	8.4	31
0	0.0007	0.0262	0.0022	7.9	31
0.0007	0	0.024	0.0022	8.1	31
0.0007	0	0.0232	0.0022	7.9	31
-0.0008	-0.0008	0.0225	0.003	7.9	31
-0.0015	-0.0015	0.0195	0.0052	8.1	31
-0.0015	-0.0008	0.0157	0.0052	7.6	31
-0.0015	0	0.0127	0.003	8	31
-0.0008	0.0007	0.0105	0.0015	7.6	31
0	0.0022	0.009	0.0007	8.1	31
0	0.0015	0.0067	-0.0008	7.9	31
0	0.0007	0.0045	0.0007	7.6	31
0.0015	-0.0008	0.0007	0.0022	7.6	31
0.0045	-0.0053	-0.0023	0.003	7.6	31
0.0037	-0.0068	-0.0053	0.0052	7.7	31
0.003	-0.0053	-0.0083	0.0045	7.4	31
0.003	-0.0046	-0.0105	0.0045	7.6	31
0.0007	-0.0015	-0.0128	0.0045	7.6	31
0.0007	-0.0008	-0.015	0.003	7.2	31
0.0007	-0.0015	-0.0143	0.0007	7.6	31
-0.0008	-0.0015	-0.0135	-0.0008	7.2	31
0	-0.0008	-0.0143	-0.003	7.3	31
-0.0008	-0.0008	-0.0158	-0.003	7.3	31
-0.0015	-0.0008	-0.0165	-0.003	7.1	31
-0.0015	-0.0015	-0.0195	-0.003	7.2	31
-0.0015	-0.0015	-0.021	-0.0008	7.1	31
-0.0008	-0.0015	-0.0218	-0.0008	6.8	31
-0.0008	-0.0015	-0.0248	0.0007	7	31
-0.0015	0	-0.024	0.0022	7.1	31
-0.0008	0.0007	-0.0256	0.0015	6.9	31
0	0.0007	-0.024	0.0015	7	31
0.0015	0.0007	-0.024	0.0007	7.1	31
0.0015	0.0007	-0.0248	-0.0008	6.7	31
0.0015	0	-0.0256	-0.0008	7.1	31
0.0022	-0.0015	-0.0233	-0.0023	6.7	31
0.0007	-0.0015	-0.021	-0.003	6.7	31
0.0007	-0.0015	-0.0195	-0.0038	6.9	31
0.0007	-0.0008	-0.0165	-0.003	6.7	31
-0.0008	0.003	-0.0165	-0.0023	6.8	31
-0.003	0.0015	-0.0181	-0.003	6.7	31
-0.0015	0.0007	-0.0195	-0.0023	6.5	31
0	0.0015	-0.0181	-0.0015	6.9	31
-0.0015	0.0007	-0.0173	0	6.6	31
-0.003	-0.0015	-0.0173	0	6.6	31
-0.0023	-0.0015	-0.0158	0.0007	6.7	31
-0.0008	-0.0038	-0.0165	0.0015	6.6	31
-0.0015	-0.0046	-0.0165	-0.0008	6.4	31
-0.0015	-0.0038	-0.0165	-0.0008	6.7	31
-0.0008	-0.0038	-0.0181	-0.0015	6.5	31
0.0007	-0.0046	-0.0188	-0.0015	6.4	31
-0.0015	-0.0038	-0.0181	-0.0015	6.6	31
-0.0008	-0.0038	-0.0188	-0.0015	6.5	31
-0.0008	-0.0038	-0.0195	-0.0015	6.5	31
-0.0015	-0.003	-0.0203	-0.003	6.6	31
0.0007	-0.0015	-0.021	-0.0023	6	31
0	0.0015	-0.0233	-0.0038	6.7	31
-0.0008	0.0037	-0.024	-0.0046	6.4	31
0	-0.0008	-0.024	-0.003	6.5	31
0.0015	-0.0015	-0.0256	-0.003	6.3	31
0.0022	-0.0023	-0.027	-0.003	6.3	31
0.0007	-0.003	-0.0278	-0.0038	6.3	31
-0.0015	-0.0023	-0.0293	-0.0038	6.3	31
-0.0008	0	-0.0293	-0.0053	6.4	31
0	0	-0.0278	-0.0046	6.3	31
-0.0008	-0.0015	-0.027	-0.0046	6.3	31
0.0015	-0.0015	-0.0248	-0.003	6.4	31
0.003	-0.003	-0.0225	-0.003	6.2	31
0.003	-0.0046	-0.0218	-0.0015	6.3	31
0.0015	-0.0015	-0.0218	-0.0008	5.9	31
0.0007	0.0007	-0.0195	-0.0015	6.3	31
0.003	0.0007	-0.0181	-0.0023	6.1	31
0	0	-0.0181	-0.0023	6.1	31
0.0007	-0.0008	-0.0181	-0.0015	6.3	31
0.003	-0.0015	-0.0173	0	5.8	31
0.0015	-0.0023	-0.0173	-0.0008	6.2	31
0.0007	-0.0046	-0.015	-0.0008	6	31
-0.0015	-0.0053	-0.0135	-0.0008	6.1	31
-0.0008	-0.0023	-0.015	-0.0008	6.1	31
-0.003	-0.003	-0.0128	-0.0008	6	31
-0.0015	-0.0015	-0.0091	-0.0023	6.2	31
0	-0.0015	-0.0091	-0.003	5.8	31
-0.0015	-0.0023	-0.0068	-0.0038	6.3	31
-0.0008	0	-0.006	-0.0023	5.8	31
-0.0008	-0.0015	-0.0038	-0.003	5.9	31
0	-0.0008	-0.0023	-0.0015	5.9	31
0.0015	-0.0015	-0.0023	-0.0015	5.9	31
0.0022	-0.003	0	-0.0015	6	31
0.0007	-0.0015	0.0007	-0.003	5.6	31
0.0007	-0.0008	0.0045	-0.0015	5.9	31
0.0037	0.0007	0.0082	-0.0015	5.8	31
0.0022	-0.0008	0.009	-0.0023	5.6	31
0.0022	0	0.0105	-0.0015	5.8	31
0.0015	0	0.0112	-0.0008	5.8	31
0.0015	0	0.0127	-0.0008	5.7	31
0.0007	0.0015	0.0142	0.0007	5.5	31
-0.003	-0.0008	0.0142	-0.0008	5.7	31
-0.0046	-0.0008	0.0187	-0.0015	5.6	31
-0.0046	0	0.0195	-0.003	5.5	31
-0.0038	0.0007	0.0202	-0.003	5.7	31
-0.0038	-0.0008	0.0217	-0.0023	5.5	31
-0.003	-0.0015	0.0202	-0.0008	5.6	31
-0.0023	-0.0015	0.0187	-0.0015	5.4	31
-0.0008	-0.0038	0.0172	-0.0008	5.5	31
0.0007	-0.0015	0.0165	0	5.4	31
0.003	-0.0008	0.0142	0	5.3	31
0.0015	-0.0015	0.0142	0.0007	5.5	31
0.0007	-0.0008	0.0127	0.0015	5.3	31
-0.0008	0.0007	0.0105	0.003	5.3	31
-0.0015	0.0007	0.012	0.003	5.1	31
-0.0015	0.0007	0.0105	0.0015	5.3	31
-0.003	0	0.0097	0.0007	5.3	31
-0.003	-0.0008	0.0105	0.0015	5.1	31
-0.003	0	0.009	-0.0008	5.3	31
-0.0046	-0.0008	0.0105	-0.0008	4.8	31
-0.0015	-0.0015	0.0105	-0.0008	5.3	31
0.0015	-0.0008	0.0097	0.0007	4.9	31
0.0015	-0.0008	0.009	0.0007	4.9	31
0.0015	-0.0015	0.0082	-0.0008	5	31
0.0015	-0.003	0.0082	0	4.7	31
0.0015	-0.0008	0.0052	-0.0015	4.8	31
0.0015	0	0	-0.0015	4.8	31
0.0007	0	-0.0038	-0.0015	4.5	31
-0.0015	-0.0008	-0.0068	-0.0015	4.7	31
-0.0023	0	-0.0105	-0.0015	4.6	31
-0.0008	-0.0015	-0.0113	-0.0008	4.6	31
0.0015	-0.0038	-0.0128	-0.0008	4.7	31
0.0007	-0.0023	-0.0173	-0.0015	4.9	31
0.0007	-0.0015	-0.0218	-0.0015	4.4	31
0	-0.0023	-0.027	-0.0015	4.6	31
0.0007	-0.003	-0.03	-0.0008	4.5	31
0.0007	-0.0015	-0.0346	-0.0015	4.1	31
0	-0.0008	-0.0405	-0.0008	4.5	31
0	-0.0008	-0.0465	-0.0008	4.2	31
-0.0008	-0.0015	-0.0503	0.0015	4.2	31
-0.0008	-0.0015	-0.0548	0.0015	4.3	31
-0.0008	-0.003	-0.0593	-0.0023	4	31
0.0007	-0.0015	-0.0645	-0.003	4.2	31
0.0037	-0.0008	-0.0683	-0.0015	3.9	31
0.003	0.0007	-0.0706	-0.0015	4	31
0.0007	0.0015	-0.0743	-0.0015	3.8	31
0.0007	0	-0.078	-0.0023	4.1	31
0.0015	-0.0008	-0.081	-0.0008	3.8	31
0.0015	-0.0023	-0.0856	-0.0008	3.7	31
0.0007	-0.0015	-0.0893	-0.0015	3.8	31
0.0007	-0.0008	-0.0915	-0.0015	3.6	31
0.0015	0.0007	-0.0953	-0.0046	3.7	31
0.0007	0.0022	-0.099	-0.0038	3.7	31
-0.0008	0.0015	-0.0983	-0.003	3.4	31
-0.0008	0.0007	-0.0953	-0.0046	3.7	31
-0.0008	-0.0015	-0.0945	-0.003	3.3	31
-0.003	-0.006	-0.0915	0	3.6	31
-0.003	-0.0083	-0.0885	-0.0008	3.4	31
-0.0015	-0.0068	-0.0871	-0.0008	3.3	31
-0.003	-0.0068	-0.0825	0.0007	3.6	31
-0.003	-0.006	-0.0795	0.0007	3.3	31
0.0007	-0.0046	-0.075	0.0015	3.3	31
0.0015	-0.0038	-0.0691	0	3	31
0.003	-0.0008	-0.066	0.0007	3	31
0.0022	0.0007	-0.0608	0.0007	2.9	31
0.0015	0.0007	-0.0555	-0.0015	2.9	31
0.0007	0.0022	-0.0495	-0.0008	3	31
-0.0008	0.0015	-0.0428	-0.0015	2.7	31
-0.003	-0.0015	-0.0375	-0.003	3	31
-0.003	-0.0015	-0.0323	-0.003	2.6	31
-0.0038	-0.0015	-0.0278	-0.0015	2.8	31
-0.0015	-0.0023	-0.0233	-0.0008	2.6	31
-0.0015	0.0015	-0.0195	-0.0008	2.5	31
-0.0023	0.0045	-0.0128	-0.0015	2.8	31
0	0.003	-0.0053	-0.0015	2.3	31
0	0	0.0052	-0.0008	2.6	31
0.0015	-0.003	0.015	0.0007	2.6	31
0.0022	-0.003	0.024	0	2.3	31
0.0007	-0.003	0.0322	0.0015	2.2	31
0.0015	-0.003	0.0382	0.0007	2.2	31
0.0015	-0.0023	0.0457	-0.0008	2.3	31
0.003	-0.003	0.0517	-0.0008	1.9	31
0.0045	-0.003	0.0555	-0.0015	2.2	31
0.003	-0.0046	0.057	-0.0015	1.9	31
0.0037	-0.0046	0.0585	-0.0008	2	31
0.0022	-0.003	0.06	-0.0015	2.2	31
-0.0008	-0.0046	0.0607	-0.0015	1.7	31
0.0007	-0.003	0.0592	-0.0015	2.2	31
-0.0008	-0.003	0.0615	-0.0015	1.8	31
-0.0023	-0.0015	0.0675	0	1.8	31
-0.0008	0	0.0712	0.0007	1.7	31
0	0.0007	0.0742	0.0007	1.5	31
-0.0008	0.0007	0.0742	-0.0008	1.6	31
-0.0015	-0.0008	0.075	-0.0015	1.8	31
0	0.0007	0.0735	-0.0008	1.7	31
0	0.0015	0.0727	-0.0008	1.4	31
-0.0008	-0.0008	0.0727	-0.0008	1.7	31
0	-0.0008	0.0727	0.0007	1.5	31
-0.0008	-0.0008	0.0757	-0.0008	1.3	31
-0.0008	-0.0015	0.0765	0	1.4	31
-0.0008	-0.003	0.0795	0.0015	1.3	31
-0.0008	-0.0015	0.0855	-0.0008	1.6	31
0.0007	-0.0008	0.0915	-0.0015	1.1	31
0.0015	0.0007	0.0945	-0.0015	1.3	31
-0.0008	0.0007	0.0945	-0.0008	1.2	31
-0.0015	0	0.0907	-0.0008	1	31
-0.0008	0	0.0817	-0.0015	1.3	31
-0.0008	-0.0008	0.0682	-0.0015	1.2	31
-0.0008	0	0.057	-0.0008	1.1	31
-0.0008	0.0015	0.0502	-0.0008	0.9	31
-0.0008	0.003	0.0457	-0.0008	1	31
-0.0008	0.0015	0.045	-0.0008	1.2	31
0.0015	-0.0008	0.0457	0	0.9	31
-0.0008	-0.0015	0.0427	0.0015	1.2	31
-0.0023	-0.0038	0.0435	0.0015	0.8	31
-0.003	-0.0038	0.045	0.0007	1	31
-0.0038	-0.0023	0.0442	-0.0008	0.8	31
-0.0023	-0.0023	0.0465	-0.0015	0.9	31
-0.0015	-0.0008	0.0457	-0.0008	0.9	31
0.0007	-0.0008	0.0457	-0.0015	0.7	31
0.0007	-0.003	0.0457	-0.0008	0.9	31
0.0007	-0.0015	0.0457	-0.0015	0.7	31
0.003	-0.003	0.0457	-0.003	0.8	31
0.0022	-0.0023	0.0442	-0.0046	0.9	31
0.0037	-0.0015	0.0457	-0.0046	0.7	31
0.003	-0.0015	0.0435	-0.003	0.7	31
0.0015	-0.0008	0.0367	-0.0008	0.9	31
0.0015	-0.0015	0.027	0	0.9	31
0.0007	-0.0015	0.0157	-0.0008	0.6	31
-0.0008	-0.0008	-0.0008	0	0.9	31
-0.0008	-0.0015	-0.0181	0.0007	0.6	31
-0.003	-0.0023	-0.0353	0.0007	0.5	31
-0.003	-0.0015	-0.0495	0.0007	0.7	31
-0.0023	-0.0015	-0.0608	0.0015	0.6	31
-0.0015	0.0007	-0.0743	0.0015	0.6	31
0	-0.0015	-0.0856	-0.0008	0.7	31
-0.0008	-0.0015	-0.0938	-0.0015	0.5	31
-0.0008	-0.0008	-0.099	-0.0015	0.9	31
-0.0008	-0.0015	-0.1028	-0.0015	0.7	31
-0.0023	-0.0023	-0.105	-0.0015	0.9	31
-0.003	-0.0023	-0.1088	-0.0015	0.7	31
0	-0.0015	-0.1185	-0.0023	0.5	31
0.0007	-0.0038	-0.1373	-0.0023	0.9	31
-0.0008	-0.003	-0.1665	-0.0015	0.6	31
-0.0015	-0.0008	-0.1928	-0.0023	0.8	31
-0.0015	-0.0008	-0.2085	-0.0038	0.7	31
-0.0015	-0.0015	-0.2243	-0.003	0.7	31
0	-0.0008	-0.2333	-0.0038	0.6	31
-0.0008	-0.0008	-0.2318	-0.003	0.5	31
-0.0015	-0.0008	-0.2378	-0.0023	0.8	31
-0.0008	-0.0008	-0.2393	-0.0008	0.6	31
0.0007	-0.0008	-0.2355	0	0.8	31
0.0007	0.0007	-0.231	-0.0023	0.6	31
0.0015	0	-0.219	-0.0015	0.7	31
-0.0008	0.0007	-0.207	-0.0023	0.8	31
0	0.0007	-0.192	-0.0038	0.7	31
0.0007	0.0007	-0.1756	-0.0015	0.8	31
0.0007	0.0015	-0.1553	-0.0015	0.9	31
0.0015	0.0007	-0.1275	-0.0008	0.8	31
0.0015	-0.0015	-0.1006	-0.0008	0.7	31
0.0015	-0.0023	-0.0691	0.0007	0.8	31
0.0007	-0.003	-0.033	0.0015	1.1	31
0.0015	-0.0038	0	-0.0008	0.8	31
0.0007	-0.0023	0.0352	0.0007	1.3	31
-0.0015	-0.0015	0.0712	0.0007	0.9	31
-0.0015	-0.0015	0.0967	0.0015	1	31
-0.0008	-0.0008	0.1155	0.0015	1.2	31
-0.0008	-0.0015	0.1275	0.0007	0.9	31
0	-0.0008	0.135	0.0007	1.5	31
0.0007	-0.0008	0.1402	-0.0008	1	31
0.0015	-0.0008	0.1455	0.0007	1.4	31
0.0007	-0.0008	0.1515	0.003	1.3	31
0	-0.0015	0.153	0.0015	1.5	31
-0.0008	-0.0008	0.153	0.0007	1.3	31
-0.0008	0.0007	0.1447	0.0007	1.3	31
-0.0008	-0.0008	0.1312	0.0007	1.5	31
-0.0008	-0.0008	0.1102	-0.0008	1.2	31
-0.0008	-0.0008	0.0847	0.0007	1.8	31
-0.0008	-0.0008	0.057	0	1.4	31
-0.0008	-0.003	0.0277	0.0007	1.5	31
0.0007	-0.0015	-0.0015	0.0007	1.7	31
0.0015	-0.0015	-0.0308	0.0007	1.4	31
0.0015	-0.0008	-0.0555	0	1.8	31
0.0015	-0.0008	-0.0773	-0.0015	1.6	31
0.0037	-0.0008	-0.0953	-0.003	1.8	31
0.0015	0.0015	-0.1088	-0.003	1.8	31
0	0	-0.1178	-0.003	1.8	31
0.0007	-0.003	-0.1223	-0.003	1.9	31
0.0007	-0.0046	-0.1193	-0.0046	1.9	31
-0.0008	-0.0068	-0.111	-0.0053	1.9	31
-0.0038	-0.0046	-0.1013	-0.003	2.1	31
-0.0023	-0.003	-0.0856	-0.0015	2.2	31
-0.0008	-0.0015	-0.0653	-0.0015	2.2	31
-0.0015	-0.0008	-0.0443	-0.0023	2.2	31
-0.0015	-0.0023	-0.0181	-0.0015	2.3	31
-0.0023	-0.0008	0.0105	-0.003	2.1	31
-0.0008	0.0007	0.0397	-0.003	2.6	31
0.0007	0	0.0705	-0.003	2.4	31
0.0007	0.0015	0.0975	-0.0038	2.5	31
0	0.0007	0.1207	-0.003	2.7	31
0	-0.0015	0.1455	-0.0015	2.5	31
0.0015	-0.0015	0.1665	-0.0008	2.8	31
0.0007	-0.003	0.186	-0.0008	2.8	31
0.0015	-0.0023	0.2032	-0.0008	2.7	31
0.0007	-0.0015	0.2167	-0.0008	3	31
-0.0008	-0.0038	0.2272	-0.0008	3	31
0.0007	-0.0038	0.2347	0.0007	3.1	31
-0.0008	-0.0023	0.24	0	2.8	31
0.0007	-0.0015	0.2407	0.0007	3.4	31
0.0007	-0.0008	0.2407	0.0007	3	31
-0.0008	0	0.24	0.0007	3.3	31
0.0007	0	0.2355	0.0015	3.4	31
0	0.0007	0.231	0.0015	3.3	31
0	0.0015	0.2257	-0.0015	3.6	31
-0.0023	0	0.2182	-0.0023	3.6	31
-0.0008	0.0007	0.2122	-0.0015	3.8	31
-0.0015	-0.0008	0.2062	-0.0008	3.8	31
-0.0015	-0.0015	0.201	0.0015	3.6	31
-0.0015	-0.0015	0.1972	0.0007	4.1	31
-0.0046	-0.0008	0.1912	0	3.9	31
-0.0046	-0.0008	0.183	-0.0008	4	31
-0.0023	-0.0008	0.1732	0	4	31
-0.0023	-0.0008	0.1642	0.0007	4.3	31
-0.0023	-0.0008	0.1537	0.0007	4.2	31
0	-0.0008	0.1402	-0.0008	4.1	31
0	-0.0015	0.126	0.0007	4.5	31
0	-0.0023	0.1102	0	4.3	31
0	-0.0023	0.0937	-0.0015	4.5	31
0	-0.0008	0.075	0	4.5	31
0.0022	0.0022	0.057	0	4.5	31
0.003	0.0015	0.036	0.0007	5	31
0.003	0.0007	0.0112	-0.0008	4.8	31
0.0015	-0.0046	-0.0098	-0.0023	4.9	31
0.0007	-0.0068	-0.0293	-0.003	4.7	31
-0.0015	-0.0046	-0.048	-0.0046	4.9	31
-0.0008	-0.0053	-0.0645	-0.003	5.1	31
-0.0008	-0.003	-0.0773	-0.0046	5.1	31
-0.0008	-0.0038	-0.0893	-0.0023	5.2	31
0.0007	-0.0053	-0.1006	-0.0015	5.3	31
0.0022	-0.0046	-0.1118	-0.0008	5.6	31
0.003	-0.0038	-0.12	-0.0008	5.8	31
0.0015	0.0007	-0.1275	-0.0008	5.6	31
0	0.0045	-0.1365	-0.0015	5.9	31
-0.0023	0.0022	-0.1418	-0.003	5.7	31
-0.0038	-0.0023	-0.147	-0.0046	6.2	31
-0.0023	-0.0038	-0.1485	-0.006	5.9	31
-0.0023	-0.003	-0.1485	-0.0046	6	31
-0.0015	-0.003	-0.1523	-0.003	6.3	31
0.0015	-0.0015	-0.1523	-0.003	5.9	31
0.0007	-0.0015	-0.1515	-0.003	6.5	31
-0.0008	-0.0008	-0.1515	-0.003	6.2	31
0.0007	0	-0.1493	-0.0015	6.4	31
0.0007	-0.0015	-0.1455	0.0007	6.6	31
0.0015	-0.0008	-0.1388	0.003	6.7	31
0.0015	0.0015	-0.132	0.0045	6.6	31
0.0015	0.0007	-0.1253	0.0022	6.7	31
0	0.0015	-0.12	0.0015	7	31
0	0.0015	-0.114	-0.0008	6.7	31
0.0007	-0.0008	-0.108	-0.0038	7	31
-0.0008	0.0007	-0.1028	-0.0046	7.3	31
-0.003	0.0007	-0.0968	-0.0023	7.2	31
-0.0008	-0.0008	-0.0923	-0.003	7.7	31
0.0007	-0.0008	-0.09	-0.003	7	31
-0.0015	0	-0.0878	-0.0015	7.6	31
-0.0008	-0.0015	-0.0856	0.0007	7.6	31
0.003	0.0007	-0.0863	0.0045	7.6	31
0.0082	0.003	-0.0833	0.006	7.9	31
0.0105	0.0045	-0.0803	0.0067	7.7	31
0.009	0.0037	-0.0788	0.0052	8.1	31
0.0045	-0.0015	-0.0773	0.0045	8.2	31
-0.0015	-0.0053	-0.0788	0.0015	8.2	31
-0.0046	-0.006	-0.0795	-0.0008	8.2	31
-0.0083	-0.0083	-0.0758	-0.0038	8.4	31
-0.0091	-0.0083	-0.0743	-0.0068	8.6	31
-0.0068	-0.006	-0.0691	-0.006	8.4	31
-0.0046	-0.003	-0.0578	-0.003	8.8	31
-0.0015	-0.0015	-0.048	0.0007	8.7	31
-0.0015	0	-0.0405	0.0007	9	31
-0.003	-0.0015	-0.0323	0.0015	9.1	31
-0.0008	-0.0008	-0.0225	0.0037	9	31
0	0.0007	-0.0135	0.0045	9.2	31
0	0.0007	-0.0046	0.003	9.4	31
0.0007	0.0015	0.0052	-0.0008	9.4	31
-0.0015	0.0007	0.0157	-0.0053	9.4	31
-0.0015	-0.0008	0.0247	-0.0068	9.8	31
0.0007	-0.003	0.0337	-0.0023	9.8	31
0	-0.0046	0.0427	-0.0046	9.6	31
-0.0008	-0.0046	0.0517	-0.0053	10.2	31
-0.003	-0.003	0.057	-0.006	9.9	31
-0.0015	-0.003	0.063	-0.006	10.4	31
-0.0008	-0.003	0.0742	-0.0015	10.4	31
0.0015	-0.0008	0.0855	0.0045	10.5	31
0.0045	0.0045	0.0937	0.0075	10.7	31
0.006	0.0052	0.1035	0.0067	10.7	31
0.0067	0.0015	0.1125	0.0037	11	31
0.0037	-0.0015	0.12	-0.0015	11.2	31
0.0022	-0.003	0.1252	-0.0053	11	31
-0.0008	-0.0046	0.129	-0.0046	11.5	31
-0.0015	-0.003	0.1327	-0.0015	11.4	31
-0.0015	-0.0015	0.1365	0.003	11.8	31
-0.003	-0.0015	0.1395	0.0022	11.8	31
-0.003	-0.0015	0.1417	0.003	11.7	31
0	-0.0008	0.1447	0.0067	11.9	31
0.0015	-0.0008	0.1432	0.0052	12.2	31
-0.0015	-0.003	0.138	-0.0015	12.5	31
-0.0008	-0.0023	0.1327	-0.003	12.3	31
-0.0008	0.0007	0.1312	-0.0015	12.9	31
-0.0008	-0.0015	0.1305	-0.0023	13	31
-0.003	-0.0038	0.1252	-0.0015	13	31
-0.0038	-0.0068	0.1215	-0.0053	13.5	31
-0.0023	-0.0068	0.1185	-0.0075	13.2	31
-0.0015	-0.0053	0.1162	-0.0083	13.8	31
-0.0008	-0.0053	0.1132	-0.006	13.6	31
0	-0.0038	0.1125	-0.0008	14	31
0.0015	-0.0015	0.1117	0.0015	14.3	31
0.0007	0.0007	0.111	0.0045	14.4	31
0.0015	-0.0008	0.1087	0.0052	14.7	31
0.0015	-0.0015	0.1087	0.0045	14.9	31
0.0015	0.0007	0.1087	0.0045	15	31
0.0015	-0.0008	0.105	0.0007	15.1	31
0	-0.0008	0.1005	-0.003	15.4	31
-0.0015	-0.0015	0.0967	-0.003	15.7	31
-0.0015	-0.0015	0.0915	-0.0008	15.7	31
-0.0015	-0.0015	0.0877	0.0007	16.3	31
-0.0023	-0.003	0.0817	-0.0023	16.3	31
0.0007	-0.003	0.075	-0.0046	16.9	31
0.0015	-0.0046	0.0675	-0.0046	16.6	31
-0.0008	-0.0015	0.057	-0.003	17	31
-0.0008	0.0007	0.0495	0.0015	17.4	31
-0.0008	0.0022	0.039	0.0045	17.4	31
0.0007	0.0052	0.027	0.0082	17.9	31
0.0022	0.006	0.0135	0.0112	18	31
0.003	0.0075	0.0015	0.009	18.2	31
0.0015	0.006	-0.0113	0.0067	18.4	31
0.0007	0.003	-0.024	0.0052	18.9	31
0.0007	0.0022	-0.039	0.0015	19	31
-0.0008	0	-0.0518	-0.0008	18.9	31
-0.0008	-0.0015	-0.0638	-0.0008	19.5	31
-0.0008	-0.0015	-0.0773	-0.0015	19.3	31
-0.0015	-0.003	-0.09	-0.003	20	31
-0.0015	-0.0046	-0.1013	-0.003	19.8	31
0	-0.003	-0.111	-0.0038	20.2	31
0.0007	-0.0008	-0.1215	-0.0046	20.9	31
0.0007	0.0007	-0.1298	-0.003	20.6	31
0.0015	-0.0008	-0.1396	-0.0046	21.3	31
-0.0008	-0.003	-0.15	-0.0053	21.1	31
-0.0008	-0.0008	-0.156	-0.0068	21.5	31
0.0007	-0.0008	-0.1628	-0.0068	21.8	31
-0.0008	-0.0023	-0.168	-0.0075	22.1	31
-0.0008	-0.0038	-0.1718	-0.0075	22.4	31
-0.0015	-0.0046	-0.1741	-0.0075	22.4	31
-0.0023	-0.003	-0.1778	-0.0083	23	31
-0.0008	-0.0008	-0.1808	-0.0053	23	31
0.0007	-0.0008	-0.1823	-0.0023	23.4	31
-0.0015	0	-0.1823	-0.0023	23.8	31
-0.0023	-0.0015	-0.18	-0.003	23.7	31
-0.0008	-0.0008	-0.1793	-0.0008	24.4	31
0	0.0015	-0.1778	0	24.4	31
0.0007	0	-0.1741	0.0007	24.8	31
-0.0015	-0.003	-0.1763	-0.0008	25	31
0.0007	-0.003	-0.1778	-0.003	25.2	31
0.0015	-0.0015	-0.1756	-0.0023	25.7	31
0.0015	-0.003	-0.1726	-0.0038	25.9	31
0.0037	-0.0015	-0.1658	-0.0038	26.1	31
0.0052	0.0007	-0.159	-0.0015	26.4	31
0.0067	0.0007	-0.1485	-0.0008	26.6	31
0.0045	-0.0008	-0.1365	-0.0023	27	31
0	-0.0015	-0.123	-0.003	27	31
-0.003	-0.0038	-0.1065	-0.003	27.6	31
-0.003	-0.0053	-0.0915	0	27.5	31
-0.0015	-0.0053	-0.0728	0.0015	28.3	31
-0.0008	-0.0046	-0.0548	0.003	28.3	31
-0.0008	-0.0038	-0.0405	0.003	28.5	31
-0.0015	-0.0038	-0.027	0.003	29	31
-0.003	-0.0023	-0.0181	0.0015	29	31
-0.0038	-0.0008	-0.0105	0.006	29.4	31
-0.0023	0.0007	-0.0023	0.0067	29.9	31
-0.0015	0.0007	0.006	0.003	29.7	31
-0.0023	-0.0008	0.015	0.003	30.3	31
-0.0008	-0.0023	0.0202	0.0007	30.4	31
-0.0008	-0.0015	0.021	-0.0015	30.6	31
-0.0015	-0.0008	0.0202	-0.0038	30.9	31
-0.0015	-0.0015	0.0217	-0.0046	31.5	31
-0.0023	-0.0015	0.0202	-0.0053	31.4	31
-0.0023	-0.0015	0.0195	-0.0068	31.9	31
0	-0.0015	0.0195	-0.0053	32.2	31
0.0007	0.0007	0.018	-0.006	32.2	31
0	-0.0008	0.018	-0.0053	32.6	31
0.0007	-0.0008	0.0165	-0.0046	32.8	31
0.0015	-0.0015	0.015	-0.003	32.9	31
0.0007	-0.0023	0.0142	-0.0015	33.4	31
0	-0.0008	0.0142	-0.0015	33.3	31
0.0015	0	0.018	0.0015	33.9	31
-0.0008	0.0015	0.0217	0.0037	33.8	31
-0.0008	0.0015	0.0247	0.0052	34	31
0.0015	0.0015	0.033	0.0067	34.3	31
0.0015	0.0022	0.0435	0.0067	34.4	31
0.0015	0.003	0.0525	0.0067	34.7	31
0.0007	0.003	0.0622	0.003	34.7	31
-0.0008	-0.0015	0.0742	0	35.1	31
-0.0008	-0.0023	0.087	-0.0008	35.1	31
-0.0008	-0.0008	0.0997	-0.0015	35.5	31
0.0007	-0.0008	0.1155	-0.0008	35.7	31
0.0015	-0.0023	0.1327	-0.0015	35.6	31
0.0015	-0.003	0.15	0.0007	36.5	31
0.0015	-0.0023	0.1695	0.003	36	31
0.0015	-0.0015	0.1875	0.0052	36.5	31
0.0007	-0.0015	0.207	0.0067	36.8	31
-0.0008	-0.0008	0.2257	0.0075	36.6	31
0	-0.0023	0.2422	0.0097	37.2	31
0.0007	-0.0023	0.2587	0.0112	37.3	31
-0.0008	0.0007	0.2722	0.0142	37.6	31
0.0007	0.0007	0.2835	0.0105	37.7	31
0.0007	0	0.2902	0.0037	38	31
-0.0008	0.0007	0.2932	0.0015	38.1	31
0.0007	-0.0008	0.2955	-0.0038	38.4	31
0	-0.0023	0.2962	-0.006	38.8	31
0	-0.003	0.2962	-0.0053	38.6	31
-0.0023	-0.003	0.2932	-0.006	39.6	31
-0.0015	-0.0046	0.2872	-0.0083	39.1	31
0.0007	-0.0046	0.2797	-0.0113	39.6	31
-0.0015	-0.003	0.2752	-0.0113	40	31
-0.0015	-0.0015	0.2662	-0.0091	39.8	31
-0.0015	0.0007	0.2557	-0.0046	40.5	31
-0.0015	0.0007	0.2452	-0.0015	40.4	31
-0.0008	0.0007	0.2317	-0.003	40.9	31
-0.0008	0.0007	0.219	-0.0105	40.9	31
0.0007	-0.0008	0.2047	-0.0135	41	31
-0.0015	-0.0023	0.189	-0.0105	41.2	31
-0.0015	-0.003	0.171	-0.0091	41.4	31
-0.0015	-0.0038	0.1522	-0.0091	41.9	31
-0.0023	-0.0053	0.1305	-0.0083	41.8	31
0.0007	-0.0083	0.1065	-0.0053	42.3	31
-0.0008	-0.0143	0.0832	-0.0091	42.4	31
-0.0023	-0.0188	0.0607	-0.012	42.5	31
-0.0023	-0.0188	0.0367	-0.0091	43.1	31
-0.0038	-0.0165	0.0135	-0.0083	42.9	31
-0.0023	-0.0105	-0.0091	-0.0068	43.3	31
-0.003	-0.003	-0.033	-0.006	43.4	31
-0.0015	-0.0015	-0.0578	-0.003	43.8	31
0	0.0075	-0.0803	0.0007	44.3	31
0	0.03	-0.1013	0.0015	43.9	31
0.0007	0.0367	-0.1238	0.0007	44.3	31
-0.0008	0.0232	-0.1448	0.0007	44.6	31
-0.0015	0.0165	-0.1673	-0.0008	44.6	31
-0.0023	0.0082	-0.186	-0.0015	44.8	31
-0.003	0.0007	-0.2063	-0.0046	45.1	31
-0.0015	0.0045	-0.225	-0.0083	45.4	31
-0.0015	-0.0023	-0.237	-0.0091	45.4	31
-0.0008	-0.006	-0.249	-0.0105	45.9	31
-0.0008	-0.0091	-0.2595	-0.0105	45.8	31
0	-0.0158	-0.267	-0.0091	46.3	31
0	-0.0165	-0.2753	-0.0075	46.5	31
0.0007	-0.0135	-0.2768	-0.0075	46.5	31
0.0007	-0.0083	-0.2761	-0.0053	47	31
0	-0.0075	-0.2761	-0.0023	47	31
0.0007	-0.0068	-0.2723	0.0015	47.2	31
0	-0.006	-0.2693	0.0037	47.6	31
0.0015	-0.0046	-0.2655	-0.003	47.6	31
0.0015	-0.0023	-0.261	-0.0083	48	31
0.0015	-0.0046	-0.2535	-0.0113	48	31
0.003	-0.0113	-0.2438	-0.0128	48.2	31
0.0007	-0.0248	-0.237	-0.012	48.1	31
0.0015	-0.0293	-0.228	-0.0091	48.7	31
0	-0.024	-0.2175	-0.0015	48.7	31
0.0007	-0.0233	-0.2063	0.0037	48.9	31
0.0015	-0.021	-0.1935	0.012	49.2	31
-0.0008	-0.0188	-0.18	0.0217	49.3	31
0.0007	-0.0053	-0.1635	0.0232	49.4	31
0.0007	0.042	-0.1463	0.0255	49.8	31
0.0007	0.0907	-0.129	0.0277	49.5	31
0.0015	0.0712	-0.1118	0.018	50.2	31
0.0015	0.0247	-0.0938	0.0037	50	31
0.0022	0.012	-0.0758	0.0015	50.1	31
0.0022	0.0037	-0.0593	0.0015	50.4	31
0.0015	-0.0015	-0.0428	-0.006	50.6	31
0.0022	-0.0008	-0.0263	-0.0113	50.7	31
0.0015	-0.0083	-0.0091	-0.012	50.7	31
0.0015	-0.0181	0.0052	-0.0098	51	31
0.0015	-0.015	0.0225	-0.0068	50.8	31
0.0015	-0.0135	0.0397	-0.006	51.2	31
0.0007	-0.0165	0.0532	-0.0068	51.2	31
0.0015	-0.0143	0.0645	-0.0068	51.3	31
0.0015	-0.0135	0.0742	-0.0046	51.7	31
0	-0.0091	0.0832	-0.003	51.3	31
0.0015	-0.0046	0.09	-0.0038	51.8	31
0.0015	-0.0015	0.0937	-0.0046	51.6	31
0.0015	-0.0008	0.0975	-0.003	51.6	31
0.0022	-0.0046	0.099	-0.003	52.2	31
0.0015	-0.0015	0.099	-0.0015	51.8	31
0.0015	0.0007	0.0975	0.0007	51.9	31
0	0.0022	0.096	0.003	52.1	31
0	0.0007	0.0937	0.0067	52.2	31
0	-0.0008	0.0877	0.0075	52.1	31
0.0007	-0.0015	0.0847	0.0052	52.1	31
0.0007	-0.003	0.081	0.0015	52.5	31
-0.0008	-0.003	0.0742	-0.0046	52.2	31
-0.0008	-0.0046	0.0667	-0.006	52.6	31
-0.0023	-0.0068	0.0585	-0.0046	52.4	31
-0.0046	-0.0091	0.0502	-0.0008	52.4	31
-0.0023	-0.0046	0.0427	0.0037	52.5	31
-0.0015	-0.0008	0.0367	0.006	52.2	31
-0.003	0.006	0.0292	0.0052	52.5	31
-0.0015	0.0045	0.024	0.0045	52.2	31
-0.0008	-0.0046	0.0165	0.006	52.8	31
0.0007	-0.0038	0.009	0.0105	52.6	31
-0.0008	-0.003	0.0022	0.0142	52.6	31
-0.0015	-0.0075	-0.003	0.0165	52.7	31
-0.0015	-0.0083	-0.0083	0.0217	52.7	31
-0.0008	0.0045	-0.0135	0.0217	52.8	31
-0.0008	0.009	-0.0173	0.012	52.4	31
-0.0023	0.0052	-0.0218	0.0052	52.9	31
-0.0008	0.009	-0.027	0.0037	52.7	31
0.0007	0.0082	-0.03	0.0007	52.6	31
0.0007	0.0105	-0.0315	0	52.8	31
0	0.0105	-0.0338	-0.0091	52.5	31
0	0.0037	-0.0361	-0.021	53	31
0	0.0045	-0.0383	-0.0173	52.7	31
-0.0008	0	-0.0398	0.003	53.1	31
0.0007	0	-0.039	0.0015	52.9	31
-0.0008	-0.0015	-0.0398	0.003	52.7	31
-0.0015	-0.0046	-0.039	0.0165	53	31
-0.0008	-0.0038	-0.039	-0.0046	53	31
-0.0015	-0.003	-0.0383	-0.0068	53	31
-0.0023	-0.0015	-0.0361	-0.0008	52.9	31
-0.0008	-0.0046	-0.0346	0	53.2	31
-0.0008	-0.003	-0.033	0.0082	52.7	31
-0.0015	-0.003	-0.0315	0.0037	52.8	31
0	-0.0023	-0.0278	0.0052	53.1	31
0.0007	-0.0023	-0.0256	-0.0053	52.7	31
0.0007	-0.003	-0.024	-0.006	53.1	31
0.0015	-0.0015	-0.021	0.0112	52.9	31
0.0007	-0.0015	-0.0165	0.0127	52.9	31
0.0015	-0.003	-0.0158	0.0082	53.1	31
0.0015	-0.0046	-0.0128	0.0075	53	31
0	-0.003	-0.0075	0.0007	53	31
0	-0.0008	-0.003	-0.003	52.9	31
0.0007	0.0007	-0.0008	-0.0075	52.9	31
0	0.0045	0.0015	-0.0068	53	31
-0.0008	0.0067	0.0045	0.0015	52.9	31
0	0.0097	0.0067	-0.0008	52.9	31
0	0.009	0.0112	-0.0023	52.7	31
-0.0008	0.0052	0.0127	0.0052	52.8	31
-0.0015	0.006	0.0127	0.0052	52.6	31
-0.0008	-0.0008	0.015	0.0142	52.9	31
-0.0008	-0.0053	0.0142	0.0255	52.6	31
-0.0015	-0.0068	0.0142	0.009	52.7	31
-0.0015	-0.0098	0.015	-0.0091	52.6	31
-0.0015	-0.0113	0.0142	-0.0091	52.3	31
-0.0008	-0.0105	0.0142	-0.0083	52.4	31
0.0007	-0.0083	0.0142	-0.0075	52.4	31
0.0007	-0.0075	0.015	0.0007	52.2	31
0.0007	-0.0068	0.0157	0.0045	52.4	31
0.0007	-0.0053	0.0142	-0.0053	52.1	31
0.0007	-0.003	0.0135	-0.0105	52	31
0.0007	0	0.015	-0.006	52.1	31
0.0007	0.003	0.015	-0.0038	52.1	31
-0.0015	0.0052	0.015	-0.0023	51.6	31
-0.0008	0.0067	0.0142	-0.003	52.1	31
0	0.006	0.0127	-0.003	51.8	31
0	0.0052	0.012	-0.0053	51.7	31
0	0.003	0.0082	-0.0091	51.8	31
-0.0008	-0.0008	0.009	-0.0195	51.5	31
0.0007	-0.0015	0.0097	-0.0181	51.5	31
0.0015	-0.0008	0.0082	-0.0143	51.6	31
0.0015	-0.003	0.0082	-0.0195	51.2	31
0.0007	-0.003	0.0075	0.0022	51.6	31
0.0007	-0.003	0.0067	0.0105	51	31
0	-0.0015	0.0052	-0.0075	51.4	31
-0.0015	0.0007	0.0015	0.0105	51.3	31
-0.0008	0.003	0.0007	0.0367	51.1	31
-0.0023	0.003	0.0015	0.03	50.9	31
-0.0008	0.0007	-0.0015	0.027	50.9	31
0.0007	-0.0015	-0.0023	0.024	50.9	31
-0.0015	-0.0053	-0.0008	0.0075	50.7	31
-0.0015	-0.0053	0	-0.0015	50.8	31
0	-0.0046	-0.0015	-0.012	50.6	31
0.0015	-0.0046	-0.0038	-0.0165	50.7	31
0.0007	-0.0068	-0.003	-0.0075	50.8	31
-0.0008	-0.0105	-0.0046	-0.012	50.1	31
-0.0008	-0.0083	-0.0053	-0.012	50.6	31
-0.0008	-0.0083	-0.0046	-0.0091	50	31
-0.0008	-0.0091	-0.0053	-0.012	50.1	31
-0.0008	-0.0068	-0.003	-0.012	50	31
-0.0008	-0.0053	-0.0008	-0.0128	49.9	31
-0.0008	-0.0038	0	-0.0128	49.7	31
0.0007	-0.0023	0.0007	-0.0165	49.6	31
0.0007	-0.0008	0.0015	-0.015	49.6	31
0.0015	0.0022	0.0015	-0.012	49.4	31
0.0015	0.0022	0.0022	-0.006	49.2	31
0.0007	-0.0008	0.0015	-0.0075	49.3	31
0.0007	-0.0015	0.0007	-0.0128	49	31
0.0007	-0.0008	0	-0.0046	49.1	31
0.0015	0.003	0.0015	-0.0083	48.6	31
-0.0008	0.0052	0.0022	-0.0263	48.8	31
0	0.0045	0.003	0.0045	48.6	31
-0.0015	0.0015	0.0052	0.0345	48.3	31
-0.003	0	0.0067	0.0007	48.5	31
0	0.0007	0.0067	-0.006	48	31
-0.0015	0.0007	0.0067	-0.003	48.1	31
-0.0015	-0.0008	0.0075	-0.0091	47.7	31
-0.0008	0.0007	0.0075	-0.0015	47.7	31
-0.0008	0.0007	0.0052	-0.0083	47.5	31
0	-0.0015	0.0067	-0.003	47.2	31
0.0015	-0.003	0.0097	-0.0046	47.2	31
0.0007	-0.0046	0.0082	-0.0046	46.8	31
0.0007	-0.0015	0.0075	-0.003	47	31
0.0007	-0.003	0.006	-0.0023	46.7	31
0.0007	-0.0038	0.0075	-0.0015	46.7	31
0.0007	-0.0023	0.009	-0.0023	46.7	31
0.0007	-0.0008	0.0082	-0.0015	46	31
0.0015	0.0007	0.0082	-0.0038	46.4	31
0.0007	-0.0008	0.0082	0	46	31
-0.0008	0.0007	0.0082	0.0007	45.8	31
0.0007	0.0007	0.009	0.0015	45.5	31
-0.0008	0.0007	0.0075	0.0022	45.4	31
-0.0008	0.0015	0.0075	0.0015	45.4	31
0	0.0007	0.0067	-0.0015	45.2	31
0.0007	0.0007	0.0052	-0.0075	44.9	31
0	-0.0008	0.0037	-0.012	44.7	31
0.0015	-0.0015	0.003	-0.0158	44.8	31
0.0007	-0.0008	0.003	-0.0195	44.5	31
0.0007	-0.0008	0.0015	-0.0143	44.1	31
-0.0008	-0.0008	0	0.0105	44.3	31
-0.0023	-0.0008	0.0007	0.0232	43.6	31
0.0007	-0.0015	-0.0015	0.018	43.8	31
-0.0015	-0.0015	-0.0023	0.0277	43.3	31
-0.0015	-0.0023	-0.0008	0.0165	43.1	31
0.0007	-0.0023	-0.0015	-0.0046	43.3	31
-0.0008	0	-0.0008	0.0052	42.9	31
-0.0008	0.0015	-0.0015	0.0052	42.7	31
-0.0015	0.0015	-0.0015	-0.003	42.7	31
-0.0008	-0.0015	-0.003	-0.0008	42.4	31
-0.0015	-0.0038	-0.003	-0.003	42.3	31
-0.0023	-0.003	-0.0038	-0.0015	42.2	31
-0.0023	-0.003	-0.003	-0.0046	41.8	31
-0.0023	-0.0046	-0.0023	-0.0143	41.4	31
-0.0008	-0.0053	-0.003	-0.0218	41.5	31
-0.0015	-0.0053	-0.0015	-0.012	41	31
-0.0008	-0.0008	-0.0015	0.006	41.2	31
0	0.003	-0.0023	0.0277	40.9	31
0.0015	0.0007	-0.0038	0.042	40.5	31
0.0015	0.0022	-0.0015	0.0142	40.6	31
-0.0015	0.0045	-0.0023	0.0045	40.3	31
-0.0008	0.003	-0.003	0.0112	40	31
-0.003	0.0007	0	-0.006	40	31
-0.0008	0.0015	0.0007	-0.0053	39.5	31
0.0015	0.0015	0.0007	0.0052	39.7	31
0	0	0.0007	-0.0046	39.4	31
0.0007	-0.0008	0.0015	-0.0263	39.1	31
0.0007	-0.0008	0.0007	-0.0128	38.8	31
0.0015	-0.0038	0.0015	0.003	38.8	31
0.0007	-0.0008	0.0045	0.0037	38.3	31
0.0007	0.0007	0.0045	0.0022	38.2	31
0	-0.0053	0.0045	-0.0091	38.3	31
-0.0008	-0.0053	0.0052	-0.0143	37.8	31
0	-0.0053	0.0052	-0.0203	37.8	31
-0.0015	-0.0046	0.0052	-0.0091	37.7	31
-0.0015	-0.0038	0.006	0.0127	37.2	31
-0.0015	-0.0053	0.0037	0.0157	37.4	31
-0.0015	-0.003	0.0015	0.0007	36.8	31
-0.0008	-0.0046	0.0022	-0.0023	36.8	31
0.0015	-0.0023	0.0037	-0.0015	36.4	31
0.0015	-0.0023	0.0015	-0.0046	36.1	31
0	-0.0046	0	0.006	36.3	31
-0.0008	-0.003	0.0015	0.027	35.9	31
-0.0008	-0.0038	0.0007	0.0307	35.7	31
0.0007	-0.0046	-0.0008	0.0135	35.5	31
0	-0.0046	-0.0008	-0.003	35.3	31
0	0.0007	0	-0.027	35	31
0	0.006	-0.0015	-0.015	34.8	31
-0.0008	0.003	-0.0008	-0.0053	34.9	31
-0.0008	-0.0015	-0.0008	-0.0188	34.2	31
0.0007	-0.0008	-0.003	-0.0105	34.3	31
0.0007	-0.0015	-0.0023	-0.0105	33.9	31
0.0007	0.0022	-0.0023	-0.0083	33.9	31
0.0007	0.009	0	-0.0053	33.9	31
-0.0008	0.0082	-0.0008	0.0082	33.1	31
-0.0015	0.0037	-0.0015	0.0225	33.4	31
-0.0008	-0.0008	0.0007	0.009	32.9	31
-0.0015	-0.0046	0.0022	-0.0053	32.6	31
-0.0008	-0.0038	0.003	-0.0053	32.5	31
0.0007	-0.0046	0.0037	0.0052	32.2	31
0.0007	-0.0046	0.003	0.027	32	31
0.0007	-0.0046	0.0022	0.0435	31.6	31
-0.0008	-0.0053	0.0037	0.0427	31.8	31
0.0007	-0.0053	0.0052	0.051	31.3	31
0.0015	-0.003	0.0052	0.039	31.1	31
-0.0008	-0.0015	0.0052	-0.0346	31	31
0	0.0015	0.0045	-0.0728	30.5	31
-0.0015	0.0037	0.003	-0.0338	30.7	31
0	-0.0008	0.0022	-0.0361	30	31
-0.0008	-0.0015	0.0052	-0.0578	30.1	31
-0.0008	0.003	0.0052	-0.0443	29.9	31
0	0.0052	0.0052	-0.0113	29.6	31
-0.0015	0.0022	0.0075	-0.027	29.6	31
-0.0008	-0.003	0.0075	-0.027	29.2	31
-0.0015	-0.0046	0.0052	0.027	29.2	31
-0.0015	-0.0038	0.0045	0.003	28.9	31
-0.0008	-0.0023	0.0052	0.0202	28.7	31
0.0007	-0.0023	0.006	0.0225	28.4	31
0.0007	-0.003	0.0052	-0.0218	28.3	31
0.0007	-0.0046	0.0052	-0.0443	28.2	31
0.0015	-0.0046	0.003	-0.0555	27.6	31
-0.0008	-0.003	0.0015	-0.0308	27.9	31
-0.0008	-0.003	0	0.0015	27.5	31
0.0007	-0.003	-0.003	0.0682	27.2	31
-0.0015	0	-0.0053	0.0742	27.2	31
0.0015	0.0015	-0.0068	0.0307	26.8	31
0.0007	-0.0008	-0.0083	0.0217	26.7	31
-0.0015	-0.0008	-0.0083	0.021	26.4	31
0	0	-0.012	0.0105	26.1	31
0.0015	0.0015	-0.0113	-0.003	26.1	31
0.0015	0.0015	-0.012	-0.0068	25.7	31
0.0007	0	-0.0128	-0.0068	25.5	31
0.0007	-0.0023	-0.0135	-0.0068	25.2	31
0.0007	-0.003	-0.015	-0.0075	25.4	31
0.0007	-0.0015	-0.0135	-0.0091	24.8	31
0.0007	-0.0008	-0.012	-0.0091	24.7	31
0.0007	-0.0008	-0.0091	0.006	24.5	31
0.0007	-0.0015	-0.0113	0.0195	24.1	31
-0.0015	-0.0023	-0.0091	0.0015	24.3	31
-0.0008	-0.0008	-0.006	0.0007	23.8	31
0	-0.003	-0.0083	0.0127	23.6	31
-0.0008	-0.0046	-0.0075	0.006	23.6	31
0	-0.003	-0.0075	-0.0181	22.9	31
0.0007	-0.0008	-0.0083	-0.0458	23.3	31
0	-0.003	-0.0083	-0.06	22.6	31
-0.0008	-0.003	-0.0083	-0.075	22.5	31
-0.0008	-0.003	-0.0091	-0.063	22.4	31
0.0007	-0.0015	-0.0083	-0.033	22.1	31
-0.0008	0.0015	-0.0091	0.027	21.9	31
-0.0008	0.0015	-0.0091	0.0975	22	31
0.0007	-0.0008	-0.0075	0.048	21.6	31
-0.0015	-0.0008	-0.0068	0.0052	21.4	31
-0.0008	-0.0008	-0.0068	0.0082	21.3	31
-0.0008	-0.0015	-0.0046	-0.0098	21.1	31
-0.0008	-0.0008	-0.003	-0.0105	20.6	31
0.0015	-0.0015	-0.0046	-0.015	20.7	31
0.0015	-0.0023	-0.0015	0.012	20.2	31
0.0007	-0.0015	-0.0015	0.0157	20.3	31
0.0007	-0.0008	-0.0023	0.0082	20	31
0.0007	-0.0015	0.0007	0.0225	19.8	31
0	-0.0023	0.003	0.0232	19.8	31
-0.0015	-0.003	0.0045	0.0352	19.3	31
-0.0015	-0.003	0.0022	0.0315	19	31
0	-0.0015	0	0.0097	18.9	31
0.0022	-0.0015	0	0.0007	18.9	31
0.0045	-0.0008	0.0007	-0.015	18.4	31
0.0022	-0.0008	0.003	-0.0143	18.1	31
0.0007	-0.0023	0.0022	0.0007	18.2	31
0.0015	-0.0023	0.0015	-0.0128	17.7	31
0.0007	-0.0023	0.0015	0.0045	17.8	31
-0.0023	-0.0038	0.0045	0.0045	17.1	31
-0.0046	-0.0091	0.006	-0.0308	17.1	31
-0.003	-0.0105	0.0052	-0.0256	16.9	31
-0.0015	-0.0105	0.0045	-0.0023	16.5	31
-0.0015	-0.0105	0.0015	0.003	16.7	31
0	-0.0083	0.0015	-0.0083	15.8	31
0	-0.0091	0.0045	-0.0158	16.2	31
0.0007	-0.0105	0.0052	-0.0015	15.8	31
-0.0015	-0.0113	0.0052	0.0232	15.5	31
-0.0023	-0.0098	0.003	0.015	15.3	31
-0.0015	-0.003	0.0045	0.0045	15	31
-0.0008	0.012	0.0052	-0.0068	15	31
-0.0008	0.024	0.0067	-0.0113	14.4	31
-0.0008	0.0225	0.0067	-0.0053	14.4	31
0.0007	0.0127	0.0045	-0.0083	14	31
0.0015	0.0097	0.0045	0.0007	14	31
0.0015	0.018	0.0052	-0.0046	13.9	31
0.003	0.0322	0.0037	-0.015	13.4	31
0.0022	0.0307	0.0052	-0.0128	13.6	31
-0.0008	0.009	0.0112	-0.0015	12.9	31
-0.0023	0.0037	0.0112	0.0075	13	31
-0.0015	-0.0008	0.0105	-0.0053	12.8	31
-0.0015	-0.0128	0.009	-0.0218	12.5	31
-0.0015	-0.0143	0.0082	-0.0218	12.4	31
-0.0015	-0.0158	0.0067	-0.0105	12.3	31
-0.0015	-0.0128	0.0022	-0.0008	12.1	31
-0.0008	-0.0091	-0.003	0.0045	11.8	31
0.0015	-0.0075	-0.0068	0.012	11.9	31
-0.0008	-0.0068	-0.0083	0.012	11.6	31
0.0007	-0.0038	-0.0135	0.0105	11.4	31
0.0015	-0.003	-0.0143	0.012	11.5	31
0.0015	-0.006	-0.0113	0.0067	10.9	31
0.0015	-0.0053	-0.0128	0.0015	11.2	31
-0.0008	-0.0038	-0.0105	0.0007	11	31
0.0007	-0.0015	-0.0091	0.0052	10.5	31
-0.0008	-0.0008	-0.0053	0.009	10.8	31
-0.003	-0.0008	-0.0008	0.012	10.4	31
-0.003	0.0007	-0.0015	0.0187	10.3	31
-0.003	0.0052	-0.003	0.0217	10.2	31
-0.0015	0.0105	-0.0046	0.009	10.2	31
-0.0008	0.0037	-0.0038	0.003	10.1	31
-0.0008	-0.003	-0.0046	0.0075	10	31
0.0007	-0.0008	-0.006	0.0075	9.9	31
0.0045	-0.0015	-0.0068	0.0105	9.7	31
0.0045	-0.0023	-0.006	0.009	10	31
0.0022	-0.0023	-0.0053	0.0037	9.6	31
0.0007	-0.006	-0.003	-0.003	9.7	31
-0.0008	-0.0091	-0.0023	-0.0068	9.6	31
-0.0008	-0.0098	0.0015	-0.0053	9.5	31
-0.0008	-0.0105	0.003	-0.0068	9.6	31
-0.0008	-0.0068	0.0037	-0.0105	9.4	31
0.0015	0.0007	0.0045	-0.0248	9.4	31
0.003	0.0105	0.003	-0.0203	9.4	31
0.0015	0.0082	0.0015	0.009	9.2	31
-0.0015	-0.0053	-0.0015	0.0135	9.4	31
0.0015	-0.0053	-0.003	-0.0068	9.3	31
0.0022	0.0015	-0.0068	-0.0195	9.2	31
0.0007	-0.0023	-0.012	-0.033	9.4	31
-0.0008	-0.0105	-0.0165	-0.0256	9.3	31
-0.0023	-0.0113	-0.0181	-0.0038	9	31
0	-0.0165	-0.0158	0.0127	9.1	31
0.0015	-0.0181	-0.0113	0.0165	9.2	31
-0.0008	-0.0188	-0.0046	-0.0053	8.9	31
-0.0023	-0.0263	0.0015	-0.0181	9	31
-0.003	-0.027	0.0045	-0.0203	9	31
-0.0015	-0.0248	0.0052	-0.0181	8.7	31
0.0007	-0.0195	0.006	-0.0143	9.1	31
0.0007	-0.0113	0.0045	-0.0158	8.7	31
-0.0008	-0.0015	0.0037	-0.0256	8.8	31
-0.0008	0.0225	0.003	-0.0068	8.6	31
-0.0008	0.0585	0.0022	0.0307	8.5	31
-0.0015	0.0787	0.003	0.0292	8.7	31
-0.0015	0.0607	0.0015	0.0427	8.6	31
-0.003	0.0285	0	0.0457	8.6	31
-0.0046	0.0067	0	0.018	8.4	31
-0.0038	0.0015	0.0015	-0.0075	8.6	31
-0.003	0.0045	0.003	0.0015	8.4	31
-0.0015	0.0052	0.0045	0.0502	8.5	31
0.0007	0.006	0.0075	0.0382	8.5	31
0.0045	0.003	0.012	-0.027	8.2	31
0.003	-0.012	0.0157	-0.039	8.5	31
0.003	-0.0218	0.015	-0.0346	8.2	31
0.0015	-0.0135	0.0105	-0.0383	8.4	31
0.0007	-0.0128	0.003	-0.0285	8.3	31
0.0015	-0.0181	-0.0015	-0.0293	8.2	31
-0.0008	-0.0165	-0.0053	-0.0263	8.5	31
-0.0015	-0.0165	-0.0113	-0.0233	8.2	31
-0.003	-0.0128	-0.0158	-0.0143	8.3	31
-0.003	-0.012	-0.0173	-0.003	8.3	31
-0.0015	-0.0135	-0.0165	-0.0008	8.3	31
0	-0.0053	-0.0165	-0.0046	8.3	31
0.0015	-0.003	-0.0105	-0.0158	8.2	31
0.0015	-0.003	-0.0038	-0.0181	8.5	31
0.0007	0.006	0.0007	0.0105	8	31
-0.0008	0.0015	0.0007	0.0315	8.4	31
0.0022	-0.0008	-0.0015	0.036	8.2	31
0.003	0.0067	-0.0015	0.0262	8.2	31
0.0007	-0.0015	-0.0015	0.0015	8.4	31
0	-0.0091	-0.0023	-0.012	7.9	31
-0.003	-0.0173	-0.0053	-0.0315	8.3	31
-0.0015	-0.0233	-0.0068	-0.042	7.9	31
-0.0008	-0.0181	-0.0068	-0.0495	8.2	31
-0.0015	-0.0091	-0.0053	-0.0368	8.2	31
-0.0015	-0.006	-0.003	0.0135	8.2	31
-0.0008	-0.0165	0.0007	0.027	8.1	31
-0.0008	-0.021	0.003	0.0157	8.2	31
-0.0008	-0.0105	0.0007	0.0375	8.4	31
0.0007	-0.003	-0.0008	0.0337	8	31
0.0022	-0.0046	-0.0015	0.0135	8.4	31
-0.0008	-0.0233	0.0022	0.0255	8.4	31
-0.0015	-0.0398	0.0045	0.0405	8.2	31
-0.0008	-0.033	0.0052	0.0247	8.5	31
-0.0023	-0.0233	0.006	0.0082	8.1	31
-0.0008	0.0052	0.003	0.0217	8.5	31
0	0.063	0.0037	0.018	8.2	31
-0.003	0.1005	0.0045	0.0015	8.5	31
-0.0046	0.0757	0.006	-0.0128	8.5	31
-0.003	0.0322	0.0045	-0.0128	8.3	31
-0.0015	0.0382	0.0015	0.0052	8.5	31
0.0015	0.0442	0.0015	0.0202	8.6	31
0.0052	0.027	-0.0008	0.0052	8.5	31
0.0037	0.0007	-0.0015	-0.0053	8.9	31
0.003	-0.0143	-0.0008	-0.0008	8.9	31
0.0015	0.0067	0.0007	-0.024	9	31
-0.0015	0.0082	0.003	-0.0488	8.8	31
0.0007	-0.0158	0.003	-0.0443	9.2	31
0.0037	-0.0248	0.003	-0.0068	9	31
0	-0.012	0.0045	0.006	9.3	31
-0.0046	-0.0008	0.0045	-0.0068	9.5	31
-0.0068	0.0015	0.0075	0	9.3	31
-0.0053	0.0045	0.0105	-0.0015	9.7	31
-0.0008	0.0007	0.0127	0.0022	9.8	31
0.0022	0.0022	0.0135	0.003	9.6	31
0	-0.0015	0.0127	0	9.8	31
0.0007	-0.024	0.0112	-0.0046	10	31
0.003	-0.0465	0.0082	-0.0083	9.9	31
0.0052	-0.0593	0.0052	-0.0015	10.1	31
0.0045	-0.0668	0.0052	0.0045	10.3	31
-0.0008	-0.063	0.0075	0.0052	10.3	31
-0.0015	-0.0518	0.0105	0.0045	10.4	31
-0.003	-0.0308	0.0142	0.0052	10.5	31
-0.003	-0.015	0.0142	-0.0015	10.4	31
-0.0015	-0.0158	0.018	-0.0195	10.8	31
-0.0015	-0.0046	0.021	-0.0195	10.7	31
0.0015	0.0427	0.0225	0.0135	10.8	31
0.0022	0.0855	0.03	0.018	11	31
0.0015	0.0667	0.0352	-0.0053	11	31
0.0015	0.0345	0.0397	-0.0015	11.4	31
-0.0015	0.0225	0.042	-0.0083	11	31
-0.003	-0.0046	0.0405	-0.0091	11.4	31
-0.0023	-0.0181	0.0397	-0.0083	11.3	31
-0.003	-0.0368	0.0345	-0.0113	11.5	31
-0.0008	-0.0518	0.0277	-0.006	11.5	31
-0.003	-0.0293	0.0255	-0.006	11.7	31
-0.0068	0.0067	0.0232	0.0067	11.7	31
-0.003	0.057	0.0187	0.0157	11.5	31
-0.0023	0.09	0.0157	0.021	11.9	31
-0.0015	0.0952	0.0157	0.0165	11.7	31
-0.0008	0.0682	0.0172	-0.0083	11.7	31
0	0.0157	0.0142	-0.033	12.1	31
-0.0008	-0.006	0.0135	-0.0285	12	31
-0.0015	-0.0068	0.0165	-0.0218	12.3	31
0	-0.012	0.0142	-0.0338	11.9	31
0.0015	-0.0075	0.0127	-0.0218	12	31
0.0007	-0.0046	0.0142	0.0382	12.3	31
0.0022	-0.0091	0.0105	0.0922	11.9	31
0.0037	-0.015	0.0097	0.0652	12.3	31
0.0067	-0.03	0.0105	0.0202	12.3	31
0.0105	-0.0428	0.0045	0.0067	12.3	31
0.0082	-0.048	-0.0023	0.0045	12.1	31
0.0007	-0.0593	-0.0113	0.0015	12.5	31
-0.0075	-0.0721	-0.0218	-0.0038	12.4	31
-0.0128	-0.0503	-0.027	-0.0091	12.2	31
-0.012	-0.0181	-0.0293	-0.0165	12.5	31
-0.0046	-0.0083	-0.0368	-0.027	12.1	31
0	0.021	-0.045	-0.0293	12.6	31
0.0067	0.0607	-0.0511	-0.0181	12.3	31
0.0135	0.0727	-0.0563	-0.0203	12.5	31
0.0067	0.06	-0.057	-0.03	12.5	31
-0.0023	0.0262	-0.0555	-0.0068	12.5	31
-0.0068	-0.0068	-0.0593	0.0532	12.8	31
-0.0023	-0.0165	-0.0653	0.063	12.7	31
0.003	-0.0203	-0.0683	0.0127	12.6	31
0	-0.0105	-0.0706	-0.0083	12.6	31
-0.0053	-0.006	-0.0706	-0.0248	12.5	31
-0.0053	-0.0173	-0.0645	-0.0473	12.7	31
-0.0046	-0.0165	-0.0593	-0.0458	12.5	31
-0.0046	-0.0181	-0.0548	-0.0188	13	31
-0.0046	-0.0181	-0.0495	0.0195	12.6	31
-0.0038	-0.0165	-0.0413	0.0442	13	31
-0.0046	-0.0203	-0.0346	0.0532	12.9	31
-0.0053	-0.0188	-0.0315	0.0495	12.9	31
-0.0008	-0.0128	-0.0278	0.0097	13.3	31
0.003	-0.0015	-0.0203	-0.033	12.8	31
0.003	0.0067	-0.012	-0.0308	13.4	31
-0.0008	0.0015	-0.0068	-0.0113	13.1	31
-0.003	0.0037	0	-0.0181	13.5	31
-0.0015	0.0202	0.0007	-0.0195	13.5	31
-0.0008	0.0315	0.0015	-0.006	13.6	31
0.0022	0.027	0.0037	-0.0105	13.7	31
0.0015	0.009	0.006	-0.0143	13.8	31
0.0045	0.0052	0.0105	-0.0165	13.9	31
0.0097	0.0075	0.0142	-0.0158	13.8	31
0.0097	0.003	0.0217	-0.0128	14.1	31
0.0067	-0.0053	0.0217	-0.0083	14.2	31
0.0082	-0.0143	0.0165	0.006	14.2	31
0.0135	-0.0068	0.0172	0.006	14.6	31
0.0052	-0.012	0.0165	0	14.3	31
-0.0008	-0.0278	0.0165	-0.0053	14.8	31
-0.0038	-0.0195	0.015	-0.0143	14.6	31
-0.0053	-0.012	0.0112	-0.0195	14.8	31
-0.0015	-0.0098	0.009	-0.0135	15.1	31
0.0007	-0.0046	0.0075	0.0112	14.8	31
0.0022	-0.0075	0.0097	0.018	15.2	31
-0.0008	-0.0083	0.0157	0.0007	15.2	31
-0.003	-0.0053	0.0232	0.003	15.3	31
-0.0046	-0.003	0.024	0.0082	15.4	31
-0.0046	-0.0015	0.021	0.009	15.7	31
-0.0008	-0.003	0.0195	0.012	15.7	31
-0.0015	-0.0046	0.018	0.0045	15.6	31
0.0015	-0.0015	0.0172	-0.0083	16	31
0.003	0.0105	0.0165	-0.0128	15.8	31
0.003	0.0112	0.012	-0.0038	16.2	31
0.0007	0.0082	0.009	-0.0165	16.3	31
-0.0023	0.0127	0.0082	-0.0405	16.2	31
-0.0023	0.012	0.0097	-0.0398	16.5	31
-0.0046	0.0037	0.0097	-0.024	16.5	31
-0.0046	0.0037	0.012	-0.0075	16.6	31
-0.0015	0.0037	0.0142	0.012	16.7	31
-0.0015	0.0022	0.0157	0.0457	16.7	31
0	0.0045	0.0157	0.0607	16.8	31
0.0007	0.0022	0.0127	0.039	17.2	31
-0.0008	-0.0023	0.0142	0.0412	16.8	31
0.0015	-0.0038	0.0172	0.039	16.6	31
0.0015	-0.0023	0.0187	0.003	17.1	31
0.0007	-0.003	0.0157	-0.0173	16.9	31
-0.0038	-0.006	0.0142	-0.0278	16.9	31
-0.0046	-0.0046	0.0157	-0.0218	17	31
-0.0046	-0.0008	0.0142	-0.0091	16.7	31
-0.003	0.0007	0.0165	0.003	16.9	31
-0.0023	-0.0008	0.0172	-0.0015	17	31
-0.0015	-0.0015	0.0135	-0.0046	16.6	31
0.003	0.0007	0.012	0.003	16.8	31
0.0082	0.003	0.0127	0.0007	16.2	31
0.0045	0.0015	0.0082	0.0052	16.6	31
-0.0008	0.0007	0.0067	-0.0008	16.5	31
-0.0015	-0.0008	0.0052	0.0007	16.3	31
-0.0023	-0.003	0.0015	0.0015	16	31
-0.003	-0.0046	0.0007	-0.0053	16.1	31
-0.0015	-0.003	-0.0015	-0.0083	15.9	31
0	-0.003	0.0007	-0.0256	15.6	31
0.0022	-0.0038	0.003	-0.0383	15.8	31
0.0015	-0.003	0.0015	-0.012	15.7	31
-0.0008	-0.0038	-0.0015	0.0472	15.6	31
0	-0.003	-0.0008	0.054	15.7	31
0.0015	-0.0015	-0.0008	0.0097	15.3	31
0.0015	-0.0015	-0.0053	-0.0323	15.4	31
0.0045	0.0015	-0.0068	-0.0293	15.3	31
0.0045	0.0052	-0.0105	0.0405	15.2	31
0.003	0.0015	-0.0135	0.0345	15.2	31
0.0007	0.0007	-0.0128	-0.0015	14.9	31
-0.003	-0.0008	-0.0128	0.006	14.9	31
-0.0038	-0.0038	-0.0105	0.003	14.8	31
-0.0046	-0.0046	-0.0098	0.027	14.9	31
-0.0015	-0.003	-0.0105	0.0217	14.6	31
0	-0.0015	-0.0105	0.0015	14.7	31
-0.0015	-0.006	-0.012	-0.0015	14.6	31
-0.0008	-0.0053	-0.0135	-0.0053	14.4	31
-0.0015	-0.0015	-0.0135	-0.0083	14.8	31
-0.0015	-0.0008	-0.0158	-0.0091	14.3	31
-0.0015	0.0015	-0.0143	-0.0091	14.5	31
-0.003	0.0015	-0.0181	-0.0113	14.3	31
-0.003	0.0022	-0.0218	-0.0068	13.9	31
-0.003	0.003	-0.0195	-0.003	14.4	31
0.0007	0.0007	-0.0203	-0.0008	13.8	31
0.0067	0.003	-0.0195	-0.0053	14.2	31
0.0082	0.003	-0.0165	-0.0091	13.7	31
0.0045	0.003	-0.015	-0.012	13.7	31
0.0037	0.0045	-0.0128	-0.0105	13.6	31
0.0015	0.003	-0.0105	-0.0105	13.7	31
0.0015	0.0007	-0.0083	-0.0098	13.5	31
0.0052	0	-0.0083	-0.0068	13.4	31
0.003	-0.0008	-0.0083	-0.0091	13.7	31
-0.0015	-0.0038	-0.0091	-0.0075	13.3	31
-0.003	-0.0135	-0.0105	-0.0091	13.4	31
-0.0015	-0.0165	-0.006	-0.0083	13.3	31
-0.0023	-0.0075	-0.0023	-0.0083	13.1	31
-0.0046	-0.0053	0.0022	-0.0091	13.4	31
-0.003	-0.003	0.0082	-0.0068	13	31
-0.0053	-0.0015	0.0105	-0.0068	13.4	31
-0.0046	-0.0038	0.0127	-0.0053	13.1	31
-0.003	0	0.0142	-0.006	12.9	31
-0.0038	0.0007	0.0157	-0.0068	13.2	31
-0.0046	0	0.0157	-0.0068	13	31
-0.0023	0.0007	0.0157	-0.006	13.1	31
-0.0008	0	0.015	-0.0046	13.1	31
0.0007	0.0015	0.0135	-0.0068	13.3	31
0.0015	0.0022	0.015	-0.0053	13	31
0	0.0007	0.0157	-0.0053	13.1	31
-0.0015	0.0007	0.015	-0.0068	13.4	31
-0.0023	-0.0008	0.015	-0.006	12.9	31
-0.0015	-0.0008	0.0142	-0.0068	13.4	31
0	-0.0008	0.0157	-0.0053	13.3	31
0.0022	-0.0023	0.0172	-0.003	13.2	31
0.0045	-0.003	0.0172	-0.0023	13.5	31
0.0052	-0.0038	0.018	-0.0008	13.1	31
0.0045	-0.003	0.018	-0.0008	13.4	31
0.0022	-0.0008	0.015	-0.0015	13.5	31
0.003	-0.0015	0.012	-0.003	13.4	31
0.0007	-0.0008	0.0082	-0.0053	13.6	31
0.0007	-0.0023	0.0067	-0.003	13.4	31
-0.0008	-0.0008	0.0052	0.0015	13.6	31
-0.0015	0.0015	0.0045	0.006	13.6	31
-0.0023	0.0015	0.0022	0.0075	13.7	31
-0.0008	0.0015	-0.0015	0.0067	13.4	31
0.0022	-0.0008	-0.0046	0.0045	13.8	31
0	-0.0015	-0.0083	-0.003	13.6	31
-0.0008	-0.003	-0.0068	-0.0053	13.4	31
0	-0.0015	-0.0075	-0.003	13.7	31
-0.0008	-0.0015	-0.0091	-0.0113	13.5	31
0.0015	-0.0015	-0.0105	-0.015	13.6	31
0.0015	-0.0015	-0.0105	-0.0053	13.7	31
0.0007	-0.0046	-0.0105	0.0052	13.5	31
-0.003	-0.0046	-0.012	0.0127	13.9	31
-0.0023	-0.0038	-0.012	0.0075	13.4	31
-0.0015	-0.0046	-0.012	0.0007	13.5	31
0	-0.0015	-0.0128	0.0007	13.7	31
0.0045	-0.0008	-0.012	-0.0008	13.5	31
0.0067	-0.0015	-0.0105	0	13.5	31
0.0052	-0.0008	-0.0091	0.0045	13.4	31
0.0007	-0.0008	-0.0083	0.0045	13.4	31
-0.0015	-0.0023	-0.0068	0.0022	13.3	31
0.0007	-0.0015	-0.006	0.003	13.4	31
0.0007	-0.0023	-0.0053	0	13.1	31
0.003	-0.0023	-0.003	-0.0008	13.2	31
0.003	-0.0023	-0.0023	-0.0008	13.4	31
0.0045	-0.0023	-0.003	-0.0008	13	31
0.006	-0.0015	-0.0008	0.0015	13.4	31
0.003	-0.0023	0.0022	0.0015	12.8	31
0.0007	-0.0015	0.003	0.003	13	31
-0.0008	-0.0015	0.003	0.0045	12.9	31
0	-0.0015	0.0037	0.0052	12.8	31
0.0007	-0.0023	0.0015	0.0045	12.6	31
0.0015	-0.0046	0.003	0.0045	12.7	31
0.0007	-0.0038	0.006	0.0052	12.6	31
0.0007	-0.003	0.0045	0.0037	12.5	31
0	-0.0015	0.003	0.0052	12.6	31
-0.0008	-0.0008	0.0015	0.006	12.6	31
-0.0015	-0.0008	0.0007	0.0075	12.1	31
-0.0023	0.0015	0.0007	0.009	12.5	31
-0.0015	0.0015	0	0.0112	12	31
-0.0008	0.0007	-0.0008	0.0112	12.3	31
-0.0015	-0.0008	-0.0023	0.0127	12	31
-0.0046	0.0022	-0.0046	0.0142	12	31
-0.0046	0.0037	-0.0053	0.0142	12.1	31
-0.0038	0.0015	-0.0083	0.0127	11.7	31
-0.003	-0.0008	-0.0083	0.0105	12.1	31
-0.003	-0.0023	-0.0091	0.0082	12	31
-0.0038	-0.0015	-0.0128	0.0045	11.9	31
-0.0023	-0.0015	-0.0143	0.0037	11.7	31
-0.003	-0.0015	-0.0158	0.0015	11.4	31
-0.0008	-0.0015	-0.0128	-0.0008	11.6	31
-0.0008	0.0007	-0.0098	0.003	11.3	31
0.0015	0.0052	-0.0083	0.0105	11.7	31
0.0022	0.0067	-0.0046	0.0195	11.3	31
-0.0015	0.0052	-0.0046	0.0255	11.4	31
0.0007	0.0052	-0.0068	0.0292	11.3	31
0.0052	0.003	-0.0083	0.0292	11.1	31
0.0015	-0.0008	-0.0113	0.0277	11.5	31
0.0022	-0.0038	-0.0113	0.0232	11	31
-0.0015	-0.0068	-0.0068	0.0187	11.3	31
-0.0068	-0.006	-0.003	0.0165	11.2	31
-0.003	-0.0008	-0.0023	0.0127	10.9	31
0.0015	0.0007	0	0.009	10.9	31
-0.003	0.003	0.006	0.0037	10.8	31
-0.0053	0.0037	0.012	0.0015	10.8	31
-0.003	0.003	0.0202	-0.0008	10.8	31
-0.0015	0.003	0.0255	-0.003	10.9	31
0.003	0.003	0.027	-0.0068	10.7	31
0.003	0.0045	0.0315	-0.0113	10.8	31
-0.0008	-0.0023	0.0345	-0.0135	11.1	31
-0.003	-0.0181	0.033	-0.0181	10.6	31
-0.0083	-0.024	0.0322	-0.0195	11.1	31
-0.0083	-0.0143	0.0322	-0.0203	10.7	31
-0.0046	-0.0023	0.0292	-0.0225	10.6	31
-0.0008	-0.003	0.0232	-0.0248	10.7	31
0.0015	-0.0068	0.018	-0.027	10.6	31
-0.003	-0.0038	0.0165	-0.03	10.8	31
-0.0053	-0.0046	0.0165	-0.033	10.8	31
-0.0046	-0.003	0.0142	-0.0323	10.7	31
0	0.0075	0.0157	-0.0338	10.8	31
0.0052	0.0097	0.0165	-0.0323	10.7	31
0.0045	-0.0053	0.0142	-0.033	10.8	31
0	-0.0113	0.0165	-0.0338	10.7	31
0.0007	-0.0046	0.0142	-0.0315	11	31
0.0007	-0.0053	0.0067	-0.0315	10.6	31
0	-0.0023	0	-0.0278	11.2	31
0.0022	0.0007	-0.0046	-0.0263	11	31
0.0015	-0.0008	-0.0083	-0.024	10.8	31
0.0007	0.0015	-0.0105	-0.0218	11.1	31
0.0007	0.0022	-0.0091	-0.0173	11.1	31
0.0007	0.0052	-0.0091	-0.0135	10.9	31
0.0015	0.0037	-0.006	-0.012	11.5	31
-0.0008	0.003	-0.0046	-0.0091	11	31
0	0.0052	-0.0053	-0.0053	11.3	31
0.0015	0.0082	-0.0046	-0.003	11.4	31
0.0045	0.0112	-0.0053	0	11.2	31
0.009	0.0075	-0.0015	0.003	11.2	31
0.0082	0.0052	0.0052	0.003	11.4	31
0.0007	0.0082	0.009	0.0045	11.4	31
-0.0015	0.009	0.0067	0.0045	11.4	31
0.006	0.003	0	0.0052	11.8	31
0.0135	-0.015	-0.006	0.0052	11.4	31
0.012	-0.0233	-0.0075	0.0052	11.7	31
-0.003	-0.012	-0.0083	0.0052	11.7	31
-0.015	-0.0105	-0.0158	0.0015	11.5	31
-0.0195	-0.0158	-0.0256	0.0007	12	31
-0.012	-0.0105	-0.0278	0.0045	11.7	31
-0.003	-0.0075	-0.0248	0.0082	11.8	31
-0.003	-0.003	-0.0188	0.009	11.7	31
-0.0038	0.0007	-0.0113	0.009	11.7	31
-0.0023	0.0007	0	0.0105	11.8	31
0.0007	-0.0008	0.009	0.0127	12	31
-0.0015	0	0.0142	0.0127	11.8	31
-0.0023	0.0022	0.018	0.012	11.7	31
-0.003	0	0.015	0.0105	12	31
-0.003	-0.0015	0.0105	0.0075	12	31
-0.003	-0.0008	0.0082	0.0082	11.7	31
-0.0023	-0.0008	0.0067	0.0075	12	31
0.0007	0.0007	0.0075	0.0067	11.8	31
0.0015	0.0015	0.0097	0.0082	12.2	31
0.003	0.0007	0.009	0.0052	11.9	31
0.0015	0.0007	0.0075	0.006	12	31
0.0015	0.0007	0.006	0.0067	12.1	31
0.0015	0.0007	0.0052	0.0052	11.9	31
0.0015	0	0.0045	0.003	12.2	31
0.0015	0.0007	0.003	0.003	12.1	31
0.0007	-0.0008	0.003	0.0037	12.1	31
0.0007	-0.0015	0.0015	0.0037	12.1	31
0	-0.0015	0.0007	0.0015	12.1	31
0.0015	-0.003	-0.0015	0.0007	12.2	31
0.0015	-0.0023	-0.003	0	12.1	31
0	-0.0023	-0.0038	-0.0015	12.3	31
0.003	-0.0015	-0.0068	0	12	31
0.003	-0.0008	-0.0053	-0.0015	12.2	31
0.003	0	-0.0075	-0.0015	12.2	31
0.0022	0.0007	-0.0105	-0.0015	12	31
0	0	-0.0135	-0.0015	12.2	31
