File Name: 11Apie.log
Channel 1: 'Recto femoral', 19425 values, engineering units: mV, no filters.
Channel 2: 'Biceps Femoral', 19425 values, engineering units: mV, no filters.
Channel 3: 'Vasto Medial', 19425 values, engineering units: mV, no filters.
Channel 4: 'Semitendinoso', 19425 values, engineering units: mV, no filters.
Channel 5: 'Flexo', 19425 values, engineering units: deg, no filters.
Digitals combined (event=16, d=8, c=4, b=2, a=1): 19425 values, .

-0.0008	0.0052	-0.0008	-0.0008	1.4	31
-0.0008	0.024	0	-0.003	1.5	31
-0.0015	-0.0068	0.0015	-0.006	1.3	31
0.0007	-0.0105	0	-0.006	1.7	31
0.0015	0.0105	0	-0.0015	1.4	31
0.0015	0.0277	0.0015	0.0007	1.4	31
0.0007	0.0262	0.0015	-0.0008	1.8	31
0.0015	0.0037	0	0.0105	1.5	31
0.003	-0.0068	0	0.015	1.3	31
0.0015	-0.0158	0.0015	0.0052	1.6	31
0.0015	-0.0091	0.0007	0.0022	1.7	31
0.0007	0.0022	0.0015	0.0015	1.3	31
0.0007	0.0045	0.0022	0.003	1.7	31
-0.0008	0.018	0.0007	-0.0008	1.4	31
0.0007	0.0202	0.0007	-0.003	1.4	31
0.0007	0.006	-0.0008	-0.0046	1.4	31
0.0007	-0.0046	0.0007	-0.0068	1.4	31
0.0007	-0.0098	0	-0.0038	1.4	31
0	-0.0158	-0.0008	-0.0053	1.8	31
0	-0.0128	0.0007	-0.0046	1.5	31
0	-0.012	0.0007	-0.0046	1.3	31
0	-0.0091	0	-0.0008	1.6	31
-0.0008	-0.0068	-0.0015	-0.0008	1.5	31
-0.0008	-0.0128	-0.003	-0.0053	1.7	31
-0.0008	-0.0105	-0.0038	-0.003	1.6	31
-0.0008	-0.0046	-0.003	-0.0046	1.5	31
-0.0008	-0.003	-0.0023	-0.0046	1.5	31
0	-0.006	-0.0015	-0.0046	1.6	31
0.0007	-0.0068	-0.0008	-0.0068	1.4	31
-0.0008	-0.0046	0.0007	-0.0046	1.6	31
-0.0008	-0.0046	0.0007	-0.003	1.6	31
-0.0008	-0.003	-0.0008	-0.0046	1.5	31
-0.0008	-0.0023	-0.0015	-0.0008	1.5	31
-0.0015	-0.003	-0.0008	-0.0023	1.9	31
-0.0015	-0.003	-0.0008	-0.0038	1.4	31
0.0007	-0.0008	0	-0.0023	1.5	31
0.0007	0.006	0	-0.0046	1.5	31
-0.0008	0.0105	0.0007	-0.0023	1.5	31
0.0007	0.0052	0	-0.0023	1.5	31
0	0.0007	-0.0008	-0.003	1.5	31
0.0007	0	-0.0008	-0.0015	1.3	31
0.0015	-0.003	-0.0008	-0.0008	1.6	31
-0.0008	0.0022	0.0015	0.0007	1.4	31
-0.0008	0.0007	0.0007	0.0007	1.8	31
0.0007	-0.0023	-0.0008	-0.0008	1.3	31
-0.0008	-0.0046	0	-0.0015	1.5	31
-0.0015	-0.0091	0	0	1.8	31
0.0007	-0.0083	-0.0015	0.0015	1.5	31
0.0007	-0.0068	-0.003	0.0015	1.5	31
0.0007	0.0022	-0.0008	0.0007	1.8	31
-0.0008	0.003	0	0.0007	1.8	31
-0.0015	-0.0023	0.0015	0.003	1.4	31
-0.0015	-0.0053	0.0015	0.003	1.4	31
-0.0008	-0.0023	0	0.003	1.6	31
0.0007	0.0112	0.0007	0.0045	1.4	31
0.0007	0.0202	0.0007	0.0045	1.6	31
0.0007	0.012	0	0.0015	1.4	31
0	0.0007	0.0015	-0.0015	1.6	31
0.0007	-0.0008	0.0007	-0.003	1.4	31
0.0007	-0.0046	-0.0015	-0.0046	1.4	31
0.0007	-0.0046	0.0007	-0.003	1.6	31
0.0007	-0.0038	0.0015	0.0045	1.4	31
0.0007	-0.003	0.0015	0.0067	1.5	31
0	-0.0023	0.0007	-0.0015	1.8	31
-0.0015	-0.0038	0	0	1.5	31
-0.0015	-0.0038	-0.0008	0.0015	1.5	31
-0.0008	-0.0053	-0.0008	-0.0008	1.3	31
0.0015	-0.0038	0.0007	0.0015	1.5	31
0.003	-0.0046	-0.0008	-0.0008	1.3	31
0.0007	-0.0091	-0.0008	0	1.7	31
-0.0015	-0.0083	0.0007	-0.0008	1.6	31
-0.0015	-0.0083	-0.0008	-0.0023	1.7	31
-0.0008	-0.0105	0	-0.003	1.7	31
-0.0015	-0.0143	-0.0008	-0.0053	1.3	31
0.0007	-0.0165	-0.0008	-0.0046	1.8	31
0.0015	-0.0143	-0.0008	-0.0015	1.4	31
0.0007	-0.0015	-0.0015	0.003	1.6	31
0	0.0127	-0.0008	0.009	1.5	31
-0.0008	0.0082	-0.0008	0.0105	1.6	31
0.0007	0.0157	-0.0008	0.0022	1.7	31
0.0015	0.0315	-0.003	-0.0053	1.7	31
0.0007	0.0165	-0.0015	-0.0091	1.7	31
-0.0008	0.0045	0	-0.0053	1.3	31
-0.0008	0.0195	0.0007	-0.0038	1.7	31
0.0007	0.0202	0.0015	-0.0015	1.7	31
0.0007	0.0067	0.0007	0.0105	1.5	31
-0.0008	-0.0075	0.0007	0.0135	1.8	31
-0.0008	-0.0165	-0.0008	0.0015	1.5	31
0	-0.012	0	-0.0128	1.8	31
0.0007	-0.003	0.0015	-0.0128	1.5	31
-0.0008	-0.0015	0.003	-0.0098	1.5	31
-0.0015	-0.0068	0.003	-0.0113	1.7	31
-0.003	-0.0083	0.003	0.0015	1.5	31
-0.003	-0.0083	0.0022	0.0195	1.8	31
-0.0015	-0.0105	0.0007	0.024	1.5	31
-0.0015	-0.0113	0.0015	0.0157	1.8	31
0.0007	-0.0053	0.0007	0.0082	1.8	31
0.0007	0.0045	0	0.0007	1.8	31
0.0007	0.0105	0.0007	-0.0046	1.6	31
0.0015	0.0037	-0.0015	-0.0046	1.4	31
0.0007	-0.0023	-0.0015	-0.0068	1.8	31
0.0007	0.0007	0.0015	-0.0053	1.5	31
0.0015	-0.003	0	-0.0038	1.7	31
0	-0.0015	-0.0015	-0.0023	1.7	31
0	-0.0023	0	-0.0015	1.6	31
0.0015	-0.003	-0.0008	-0.003	1.8	31
0	-0.0015	-0.0008	-0.003	1.5	31
0.0007	-0.0046	-0.0015	-0.0046	1.6	31
0.0015	-0.0023	-0.0023	-0.0053	1.8	31
0.0015	-0.0023	-0.0008	-0.0091	1.5	31
0.0007	-0.0015	-0.0008	-0.0083	1.7	31
-0.0015	-0.0038	-0.003	-0.0053	1.8	31
-0.0015	-0.0046	-0.0015	-0.006	1.7	31
-0.0015	-0.003	-0.0015	-0.0053	1.6	31
-0.0015	-0.0046	-0.0046	-0.0046	1.8	31
0.0007	-0.003	-0.0046	-0.0038	1.4	31
-0.0008	-0.003	-0.0023	-0.0023	1.7	31
-0.0008	-0.0015	-0.0008	-0.0015	1.8	31
-0.0008	-0.003	-0.0008	-0.0023	1.5	31
0	-0.003	-0.0008	-0.0046	1.8	31
0	0	-0.0008	-0.0046	1.5	31
-0.0008	-0.0023	-0.0015	-0.0046	1.7	31
-0.0008	-0.003	-0.003	-0.003	1.8	31
-0.0015	-0.003	-0.0015	0.0007	1.4	31
-0.0015	0.0007	-0.0008	-0.003	1.8	31
-0.0015	-0.003	0.0007	-0.0075	1.8	31
-0.0008	-0.003	-0.0015	-0.0068	1.8	31
0.0007	0.0075	-0.0015	-0.006	1.6	31
0.0007	0.0045	-0.0008	-0.0008	1.8	31
0.0015	-0.0053	-0.0023	0.003	1.6	31
0.0015	-0.0098	-0.0015	-0.0008	1.5	31
0.0007	-0.0158	-0.0015	-0.003	1.8	31
0	-0.0203	-0.0008	-0.0038	1.5	31
-0.0008	-0.0203	0.0007	-0.006	1.6	31
-0.0008	-0.0173	0.003	-0.0091	1.8	31
0	-0.012	0.003	-0.0015	1.5	31
0.0007	0.0015	0.0015	0.003	1.8	31
0.0015	0.015	0.0015	0.0045	1.5	31
0.0007	0.0082	0.0022	0.0105	1.8	31
0	0.0165	0.003	0.012	1.8	31
0	0.0442	0.003	0.0127	1.6	31
0.0007	0.045	0.003	0.0097	1.8	31
0.0015	0.027	0.0007	0.0067	1.8	31
0.0007	0.0247	-0.0008	0.006	1.7	31
0	0.0195	0.003	0.0082	1.9	31
0.0007	0	0.0022	0.0067	1.8	31
-0.0008	-0.0046	0.0015	-0.0023	1.8	31
0.0007	-0.0008	0	-0.0038	1.8	31
-0.0008	-0.003	0.0007	0.0052	1.7	31
-0.0015	-0.0083	-0.0008	0.0082	1.5	31
-0.0015	-0.015	-0.0008	-0.0015	1.9	31
-0.0008	-0.0195	0.0007	-0.0023	1.6	31
0	-0.0181	0	-0.0015	1.8	31
-0.0015	-0.012	0.0007	-0.0023	1.8	31
-0.0008	-0.0046	-0.0008	-0.0015	1.7	31
-0.0008	-0.0068	-0.0015	-0.0015	1.8	31
-0.0008	-0.0075	-0.0015	-0.0008	1.5	31
-0.0015	0.0022	-0.003	-0.0038	1.5	31
-0.003	-0.0068	-0.0015	-0.0053	1.5	31
-0.0008	-0.0098	-0.0023	-0.0053	1.7	31
-0.0008	-0.0046	-0.0015	-0.0046	1.8	31
0.0007	-0.0053	-0.0015	-0.0046	1.6	31
0.0007	-0.0046	-0.0015	-0.003	2	31
-0.0008	-0.0083	-0.0023	-0.003	1.3	31
-0.0015	-0.0023	-0.003	-0.003	1.9	31
-0.0008	0.0082	-0.0008	-0.003	1.6	31
0.0007	0.0067	0.0007	-0.0046	1.5	31
0	-0.0008	0	-0.003	1.9	31
0	-0.0015	-0.0008	-0.0046	1.6	31
0	-0.006	0	-0.003	1.8	31
0.0015	-0.0075	-0.0008	-0.003	1.5	31
0.0007	-0.0053	0.0007	-0.0083	1.6	31
0.0015	-0.0053	0.0015	-0.006	1.8	31
0.0007	-0.0015	0.0007	0.003	1.6	31
0	-0.003	0.0015	-0.0053	1.8	31
0	-0.0038	0.0015	-0.0143	1.8	31
-0.0008	-0.0046	0.0015	-0.0083	1.7	31
0	-0.006	0.0015	-0.0015	1.5	31
0	-0.0023	0.003	-0.0008	1.7	31
-0.0008	0.003	0.0015	-0.0053	1.6	31
0.0007	0.0052	0.0015	0.0075	1.5	31
0	-0.0023	0	0.012	1.8	31
0.0015	-0.0046	-0.0008	0.0112	1.4	31
0.0015	-0.003	-0.0008	0.0172	1.9	31
0.0015	-0.003	-0.0008	0.0105	1.5	31
0	0	-0.0008	0.0067	1.7	31
0.0007	0.0007	-0.0008	0.0052	2	31
0.0022	0.003	0.003	0.0022	1.6	31
0.0007	0.003	0.0015	0.0007	1.5	31
0	0.0007	0	-0.0015	1.8	31
0.0007	0.0007	0.0007	0	1.5	31
0.0007	0.0007	0.0007	0.003	1.8	31
0.0007	0.0007	0.0022	0.0022	1.8	31
0.0007	-0.0008	0.0015	0	1.8	31
0.0015	-0.0015	0.0022	-0.0008	1.5	31
0.0015	-0.0008	0.0015	-0.0015	2	31
-0.0008	-0.0023	0.0007	-0.0023	1.5	31
0.0007	-0.0038	0.0015	-0.0023	1.8	31
0.0007	-0.003	0.0007	-0.003	1.8	31
-0.0008	-0.0015	0.0007	-0.0015	1.5	31
-0.0015	-0.0023	-0.0008	-0.0023	1.8	31
-0.0015	-0.003	0	-0.003	1.5	31
0	-0.0015	0	-0.0053	1.5	31
-0.0015	-0.003	0	-0.0068	1.8	31
-0.003	-0.003	0	-0.0053	1.4	31
-0.0008	-0.0015	0	-0.0053	1.8	31
-0.0008	-0.0023	0.0007	-0.0046	1.8	31
-0.0015	-0.003	-0.0008	-0.0053	2	31
-0.003	-0.003	-0.0015	-0.0053	1.7	31
-0.0046	-0.0023	-0.0015	-0.0053	1.9	31
-0.0015	-0.0015	-0.0015	-0.0053	1.9	31
0	-0.0015	-0.0015	-0.003	1.7	31
-0.0008	0.0015	-0.0008	-0.0008	1.8	31
0.0007	0.0037	0	0.0007	1.5	31
0	-0.0008	-0.0008	0.0015	1.7	31
0.0007	-0.0046	-0.0015	0.0022	1.9	31
0.0007	-0.003	-0.0015	0.003	1.6	31
0.0007	-0.003	0	0.0007	1.9	31
0.0007	-0.0008	0.0007	0	1.4	31
0.0007	0.0015	-0.0008	0.0007	2	31
0.0007	-0.0008	-0.0008	0.0007	1.6	31
-0.0008	0.0007	0.0015	0.0015	1.8	31
0	0.0022	0.003	0.0022	1.8	31
0.0007	0.0015	0.0022	0.0007	1.7	31
-0.0008	-0.0015	0.003	0	1.8	31
-0.0008	-0.0015	0.0037	-0.0008	1.5	31
0	-0.003	0.0015	-0.006	2	31
-0.0008	-0.0023	-0.0015	-0.0098	1.6	31
-0.0008	-0.0015	-0.0023	-0.0091	1.7	31
-0.0008	-0.0046	-0.0038	-0.0105	1.8	31
-0.003	-0.003	-0.0038	-0.0091	1.5	31
-0.0015	0.0007	-0.0015	0.0007	1.8	31
0	0.0082	-0.0008	0.0127	1.5	31
0	0.0105	-0.0015	0.018	1.7	31
0.0007	0.0015	-0.0015	0.0067	1.6	31
-0.0008	-0.003	-0.0008	-0.0038	1.8	31
-0.0015	-0.0053	0.0007	-0.006	1.9	31
-0.0015	-0.0068	0.0015	-0.0046	1.6	31
-0.0015	-0.0068	-0.0015	0.006	1.7	31
-0.0008	-0.0075	-0.0008	0	1.5	31
0	-0.0053	0.0007	-0.0068	1.7	31
0	-0.003	0.0007	-0.003	1.5	31
-0.0008	-0.0053	0.0007	-0.003	1.5	31
0	-0.006	-0.0008	0.0015	1.8	31
0.0007	-0.0068	0.0007	0.0015	1.5	31
-0.0008	-0.0083	-0.0008	0.0007	1.9	31
0	-0.0083	-0.0008	0.0007	1.3	31
0.0007	-0.0105	-0.0008	0.0015	1.6	31
-0.0008	-0.0165	-0.0008	0.003	1.8	31
0	-0.0143	0.0007	0.0015	1.5	31
0.0007	-0.0105	-0.0008	-0.0015	1.8	31
-0.0008	-0.0008	0.0015	-0.0038	1.3	31
0	0.0172	0.0022	-0.0046	1.8	31
-0.0008	0.0315	0.0015	-0.0053	1.8	31
0.0007	0.0412	0	-0.0046	1.7	31
-0.0008	0.0502	-0.0008	-0.0008	1.7	31
-0.0008	0.0337	-0.0023	-0.003	1.7	31
0.0007	0.0007	-0.0046	-0.0038	1.8	31
0.0007	-0.0038	-0.0038	-0.0015	1.3	31
0	-0.0075	-0.003	-0.003	1.8	31
-0.0008	-0.0105	-0.0023	-0.0015	1.7	31
0.0007	-0.0083	-0.0015	-0.0023	1.8	31
0.0007	-0.0091	-0.0015	-0.0008	1.8	31
0.0015	-0.0105	-0.0008	-0.0023	1.5	31
0.0007	-0.0173	-0.0008	-0.0046	1.8	31
0.0007	-0.012	-0.0008	-0.0046	1.6	31
0.003	-0.0113	0.0007	-0.003	1.8	31
0.0007	-0.0105	-0.0008	-0.0015	1.6	31
-0.0023	-0.0091	0.0007	-0.0015	1.8	31
-0.0015	-0.0075	0	-0.0008	1.5	31
0	0.0022	0	0.0067	1.8	31
0	0.0105	0.0015	0.009	1.6	31
0.0007	0.0112	0.0007	0.0022	1.6	31
0.0007	0.0007	0.0007	-0.0008	1.8	31
0.0007	-0.003	0	-0.0038	1.4	31
0	-0.0053	-0.0008	-0.0015	1.8	31
-0.0015	-0.0053	0	0.0015	1.7	31
-0.0008	-0.0046	0.0015	-0.0008	1.5	31
-0.0008	-0.0068	0.0015	-0.0008	1.7	31
-0.0008	-0.0038	0	0.0015	1.5	31
0	-0.0105	0.0007	0.0045	1.8	31
0.0015	-0.012	0.0007	0.0015	1.6	31
-0.0008	-0.0038	-0.0015	0.0015	1.7	31
0.0015	0.0007	0.0007	0.003	1.7	31
0.0015	0.0022	0.0007	0.003	1.5	31
-0.0008	-0.003	-0.0008	0.0022	1.7	31
0.0007	-0.0046	-0.0015	0	1.6	31
-0.0008	-0.0053	-0.0023	-0.0008	1.6	31
0	-0.003	-0.0046	-0.0008	1.3	31
-0.0008	0	-0.003	-0.0038	1.7	31
0	-0.0023	-0.003	-0.0023	1.6	31
-0.0008	-0.006	-0.0015	-0.0015	1.5	31
-0.0015	-0.0053	-0.0008	-0.0023	1.7	31
0	-0.003	-0.0008	-0.0053	1.5	31
-0.0008	-0.0038	0	-0.0068	2.1	31
0.0015	-0.003	-0.0008	-0.0053	1.5	31
0.0007	-0.0008	-0.0008	-0.0083	1.7	31
0.0007	0.0007	-0.0008	-0.0046	1.8	31
0.0007	0.0045	-0.0015	0.009	1.5	31
-0.0015	0.012	-0.0008	0.0045	1.8	31
-0.0023	0.012	0.0007	-0.006	1.5	31
-0.0015	0.0022	0.0015	-0.0046	1.5	31
0.0007	-0.0008	0.0015	-0.0038	1.8	31
0	0.0015	0.0015	-0.0015	1.7	31
-0.0008	0.0045	0.0007	-0.003	1.5	31
0	0.0015	0.0007	-0.003	1.8	31
-0.0015	-0.0023	0.0007	-0.0015	1.8	31
-0.0023	-0.0008	-0.0008	-0.0015	1.4	31
-0.0015	-0.0015	-0.0008	-0.0008	1.8	31
-0.0008	-0.0023	-0.0008	-0.0023	1.5	31
-0.003	-0.0015	-0.0008	-0.0015	2	31
-0.0023	-0.003	-0.0015	-0.0008	1.6	31
-0.0015	-0.0046	-0.0015	-0.0015	1.7	31
-0.003	-0.003	-0.0015	-0.0008	1.8	31
-0.0015	-0.0046	-0.0008	0.0007	1.5	31
-0.0008	-0.0038	0.0007	0.0015	1.8	31
0	-0.003	-0.0008	-0.0008	1.8	31
0.0007	-0.003	0	-0.0008	1.8	31
0.0015	-0.0015	-0.0008	-0.0008	1.7	31
0.0015	-0.0015	0.0007	-0.0015	1.7	31
0.0015	0	0.0007	-0.0023	1.8	31
0.0007	0	0.0007	-0.0023	1.5	31
0	0.0007	0.0022	-0.0023	1.9	31
0	0.0037	0.0007	-0.0015	1.7	31
0.0007	0.0007	0	-0.0008	2.1	31
0.0022	0	-0.0023	-0.0008	1.8	31
0.0007	0.0007	-0.0008	-0.0015	1.8	31
0.0007	-0.0008	0.0007	-0.0008	2	31
-0.0008	-0.0008	-0.0023	0.0007	1.5	31
-0.0015	-0.003	-0.0008	-0.0015	1.7	31
-0.0008	-0.0023	-0.0008	-0.0015	1.8	31
0.0015	-0.003	-0.0008	-0.0015	1.8	31
0.0022	-0.003	-0.0015	-0.003	1.8	31
0.0015	-0.003	-0.0008	-0.0023	1.7	31
0.0015	-0.0023	0	-0.0008	1.7	31
0.0015	-0.0015	-0.0008	0.0007	1.9	31
0.0015	-0.0015	0.0007	0.0022	1.9	31
0.0007	0.0015	0.0015	0.0022	1.6	31
0.0007	0.0015	0.003	0.0015	2.2	31
0	0.0007	0.0022	0.0007	1.8	31
0.0015	-0.0008	0.0015	0.0007	1.8	31
0.0007	-0.0008	0.0007	0.0015	1.8	31
-0.0008	-0.0015	-0.0023	0.0022	1.8	31
0.0007	-0.003	0	0.003	1.9	31
-0.0008	-0.0015	0.0007	0.003	1.7	31
0.0007	-0.0023	0.0015	0.003	1.8	31
0.0015	-0.0008	0.003	0.0022	2.2	31
-0.0015	-0.0015	0.0015	0.0007	1.7	31
-0.0008	-0.0038	0.0015	0	1.8	31
-0.0015	-0.0023	0.0015	-0.0008	1.9	31
-0.0008	-0.0046	-0.0008	-0.0008	1.8	31
-0.0008	-0.003	-0.0015	0.0007	1.8	31
0	0	-0.0008	-0.0008	2	31
0.0007	-0.0015	0	-0.003	1.7	31
-0.0015	-0.0023	0.0007	-0.0038	1.9	31
0.0007	-0.003	0.0007	-0.003	1.9	31
0.0015	-0.003	-0.0008	-0.0008	1.8	31
0	-0.003	-0.0015	-0.0015	2	31
0.0015	-0.0038	-0.0015	-0.0038	1.8	31
0.0015	-0.003	-0.003	-0.0046	1.8	31
-0.0008	-0.0038	-0.0015	-0.0046	2.2	31
0	-0.0046	0	-0.0053	1.8	31
0.0007	-0.003	-0.0023	-0.0083	2.1	31
0.0007	-0.0046	-0.0015	-0.0083	1.8	31
0.0015	-0.0053	-0.0023	-0.0068	1.9	31
0.0015	-0.0046	-0.0023	-0.0053	2	31
0.0007	-0.003	0	-0.0046	2	31
0.0007	-0.003	-0.0008	-0.003	1.8	31
0.0015	-0.0046	-0.0008	-0.0015	2.1	31
0.0007	-0.006	0	0.0015	2	31
0	-0.0098	0.0022	0.003	1.8	31
0.0007	-0.012	0.0022	0.0045	2.1	31
0	-0.012	0.0007	0.0067	1.8	31
0.0007	-0.0113	0.0015	0.0075	1.9	31
0.0022	-0.0075	0.0007	0.0052	2	31
0.0015	0.0052	-0.0008	0.0022	1.8	31
0.0007	0.0165	-0.0015	-0.0015	2.4	31
-0.0008	0.0165	-0.0015	-0.0008	1.8	31
-0.0015	0.0157	-0.0015	0.0082	2.2	31
-0.0008	0.0015	-0.0015	0.0097	2.1	31
-0.0015	-0.0068	0.0015	0.0015	2.1	31
-0.0015	0.006	0.003	0.003	2.1	31
-0.0015	0.0255	0.003	0.0067	2	31
-0.0008	0.0465	0.0015	0.0045	2	31
-0.0008	0.0382	0.0015	-0.0015	2	31
-0.0008	0.018	0.0007	-0.0046	2.1	31
-0.0015	0.0022	0.0015	-0.0068	1.8	31
-0.003	-0.0083	0.0015	-0.0091	2.2	31
-0.0015	-0.0075	-0.0008	-0.0053	2.1	31
-0.003	-0.0128	0	-0.0038	1.8	31
-0.0015	-0.012	0	-0.003	2.2	31
-0.0023	-0.0128	-0.0008	-0.0046	1.8	31
-0.0038	-0.012	0	-0.0038	2.2	31
-0.0015	-0.0083	0	-0.003	2.1	31
-0.0008	-0.0068	-0.0008	-0.003	2.1	31
0.0007	-0.006	-0.0015	-0.0038	2.1	31
-0.0008	-0.0158	-0.0015	-0.0046	2.2	31
-0.0008	-0.0248	-0.0008	-0.0053	2.2	31
-0.0008	-0.0165	-0.0008	-0.0083	2	31
0	-0.0075	-0.0023	-0.0083	2	31
0.0007	-0.0038	-0.0015	-0.0083	2	31
0.0007	-0.003	0.0007	-0.0105	2.2	31
0.0007	-0.006	-0.0015	-0.0105	2.1	31
0.0015	-0.0008	-0.0008	-0.0068	2.1	31
0.0022	-0.0046	0.0022	-0.0015	2.2	31
0.0022	-0.0075	0.0022	0.0045	2	31
0.003	0.0022	0	0.015	2.2	31
0.0015	0.009	-0.0008	0.0217	2	31
0.0015	0.006	0.0007	0.0105	2	31
0	0.003	0.0007	0.0067	2.2	31
0	0.003	0.0007	0.0037	2	31
0.0007	0.003	0	0.0015	2.2	31
-0.0015	0.0007	0.0015	0.003	2	31
-0.0015	-0.0038	0.0015	0.0007	2.1	31
-0.0015	-0.0038	0.0015	0.0007	2.1	31
-0.0015	-0.0038	0	-0.003	2.1	31
-0.0023	-0.0053	-0.0008	-0.0015	2.1	31
-0.0015	-0.0053	-0.0008	-0.0008	2	31
-0.0015	-0.0046	-0.0023	-0.0023	2.3	31
0	-0.003	-0.0015	-0.003	2	31
0.0007	-0.003	-0.0015	-0.0046	2.2	31
-0.0008	-0.0015	-0.0008	-0.0046	2	31
0	0	-0.0008	-0.0046	2	31
0	0	-0.0015	-0.0046	2.3	31
0	-0.0015	-0.0023	-0.0046	1.9	31
-0.0008	-0.0015	-0.0015	-0.0038	2.4	31
-0.0023	-0.0008	-0.0008	-0.0068	2.1	31
-0.0008	0	-0.0008	-0.0068	2.1	31
-0.0008	0.0007	0.0007	-0.0053	2.2	31
0	0.0007	0.0007	-0.0023	2.2	31
0.0015	0.0007	0.0015	0.0015	2.1	31
-0.0008	0.0015	0.0007	-0.0008	1.9	31
-0.0008	0.0015	0.0007	-0.003	2.2	31
-0.0008	0	0.0007	-0.003	2.2	31
-0.0008	0.0007	0.0007	-0.0015	2.2	31
0	0	-0.0008	-0.0008	2.3	31
0.0007	0	-0.0015	-0.0008	2.1	31
-0.0008	0	-0.0008	-0.0008	2.3	31
-0.0008	0.0007	0.0007	0.0007	2	31
0	0.0007	0.0007	0.0007	2.2	31
0	-0.0008	0	-0.0008	2.2	31
-0.0008	-0.0015	-0.0008	-0.0015	2.2	31
0	-0.0015	-0.0015	-0.0008	2.4	31
0	-0.0015	-0.0008	0.0007	2.2	31
0	-0.0015	-0.0008	-0.0008	2.2	31
0	-0.0023	-0.0023	-0.003	2.3	31
-0.0008	-0.0015	-0.0015	-0.003	2.2	31
0.0007	-0.0015	-0.0023	-0.0015	2.2	31
0.0007	-0.0015	-0.0008	-0.0023	2.3	31
0.0007	-0.0008	0.0007	-0.0023	2.4	31
0	0.0015	-0.0008	0	2	31
-0.0008	0.0022	-0.0008	0	2.6	31
0.0015	0	-0.0008	0.0022	2.2	31
0.0022	-0.0046	0.0015	0.0052	2.4	31
0.0007	-0.0053	0.0007	0.0052	2.4	31
0	-0.0046	0.0007	-0.0008	2.2	31
-0.0015	-0.0068	0.0007	-0.0068	2.3	31
-0.0008	-0.0083	-0.0008	-0.0113	2.5	31
0	-0.0068	-0.0008	-0.006	2.3	31
-0.0008	-0.003	-0.0008	0.0075	2.4	31
-0.003	-0.0008	-0.0008	-0.0008	2.2	31
-0.0015	0.0015	-0.0008	-0.003	2.4	31
-0.0008	0.0052	-0.0015	0.003	2.3	31
-0.0008	-0.0015	-0.0008	-0.0038	2.4	31
-0.0008	-0.0023	-0.0008	-0.0023	2.2	31
0	0.0052	0	-0.0015	2.5	31
0	0.0052	0.0015	-0.0008	2.2	31
0.0007	0.0007	0.0007	0	2.3	31
0.0007	-0.0015	0	0	2.4	31
0.003	-0.0008	0.0007	0.0007	2.3	31
0.003	-0.0015	0.0007	0.0007	2.5	31
0.0037	0.0007	-0.0008	0.0015	2.4	31
0.003	0.0007	0.0007	0.0015	2.2	31
0.0007	-0.0015	0.0015	0.0022	2.5	31
0	0	0.0015	0.003	2.2	31
-0.0023	-0.0008	0.0007	0.0015	2.6	31
-0.0046	-0.0015	0.0015	0.0015	2.6	31
-0.0046	-0.0008	0.0015	0.003	2.4	31
-0.003	-0.003	0.0015	0.0007	2.4	31
-0.003	-0.003	0.0022	0.0007	2.6	31
0	-0.0015	-0.0008	0.0007	2.4	31
0.0007	-0.0023	-0.0008	0.0015	2.4	31
-0.0008	-0.0015	0.0007	0.0015	2.9	31
0.0007	-0.003	0.0007	0.0015	2.4	31
0	-0.003	0.0007	0.0007	2.6	31
0.0015	-0.0015	-0.0015	-0.0008	2.6	31
0.0007	-0.0015	-0.0008	-0.0015	2.5	31
0	-0.0008	-0.0008	-0.0015	2.8	31
0.0007	-0.0015	-0.0008	-0.0023	2.6	31
0.0007	-0.0015	0	-0.0046	2.7	31
0.0015	-0.0015	0	-0.003	2.6	31
0.0007	-0.0015	0	-0.003	2.5	31
-0.0008	-0.0015	0	-0.0046	2.7	31
-0.0008	-0.0015	0	-0.0046	2.7	31
0	-0.0015	0.0007	-0.003	2.7	31
-0.0008	-0.003	0.0007	-0.0053	2.6	31
-0.0008	-0.006	0.0007	-0.0068	2.6	31
0	-0.0158	0	-0.006	2.8	31
0.0007	-0.024	-0.0023	-0.0068	2.7	31
0.0007	-0.0263	-0.0015	-0.0053	2.7	31
-0.0015	-0.0233	-0.0015	-0.0068	2.6	31
-0.003	-0.0181	-0.0008	-0.0068	3	31
-0.003	-0.0173	0	-0.0015	2.6	31
-0.0015	-0.0135	0.0015	0.0007	2.8	31
0.0007	0.0082	0.003	0.0045	2.7	31
0.0015	0.042	0.0007	0.0075	2.7	31
0.003	0.051	0	0.0067	3.2	31
0.0022	0.0412	0.0015	0.003	2.8	31
0.0037	0.0232	0.0015	0.0067	3	31
0.003	-0.0008	0	0.0187	3	31
0.0007	0.0067	0.0015	0.0157	3	31
0.0015	0.0187	0.003	0.0067	3.2	31
-0.0008	0.0105	0.003	0.0052	2.8	31
-0.0023	0.0142	0.0007	0.0007	3.1	31
0.0007	0.0217	0	-0.0008	2.8	31
0	0.015	0	-0.0008	3.2	31
-0.0008	-0.0008	-0.0015	-0.0008	2.9	31
0.0007	-0.0083	0.0007	-0.0023	3	31
0	-0.0105	0	-0.0046	3.3	31
0	-0.012	-0.0008	-0.003	2.9	31
0	-0.0128	-0.0008	-0.0046	3.3	31
-0.0015	-0.012	-0.0015	-0.003	2.9	31
-0.003	-0.0105	-0.0023	-0.0046	3.1	31
-0.003	-0.0098	-0.0015	-0.006	3.1	31
-0.003	-0.0083	0	-0.0053	3.2	31
-0.0008	-0.0091	-0.0015	-0.0046	3.3	31
0.0007	-0.0083	-0.0015	-0.0015	3.1	31
0.0007	-0.0075	-0.0015	-0.003	3.5	31
0.0007	-0.0068	-0.0023	-0.0038	3.2	31
-0.0015	-0.0083	-0.0038	-0.0023	3.3	31
-0.0008	-0.0075	-0.003	-0.0046	3.3	31
0.0015	-0.006	-0.0015	-0.003	3.3	31
0.0015	-0.0053	-0.0015	-0.0023	3.5	31
0.0015	-0.0046	-0.0015	-0.0053	3.3	31
0.0007	-0.0053	-0.0023	-0.0046	3.4	31
-0.0008	-0.0053	-0.0008	-0.0068	3.3	31
-0.0015	-0.0053	-0.0023	-0.0075	3.3	31
-0.0015	-0.0083	-0.0008	-0.0038	3.6	31
-0.0015	-0.0091	-0.0015	-0.0083	3.4	31
-0.0015	-0.0105	-0.003	-0.0173	3.4	31
-0.0008	-0.0105	-0.0023	-0.0181	3.4	31
0.0015	-0.0083	-0.0038	-0.0143	3.5	31
0.0015	-0.0083	-0.003	-0.0128	3.6	31
0.0015	-0.0068	-0.003	-0.0083	3.5	31
0.0015	-0.0023	-0.003	-0.003	3.9	31
0.003	0.0015	0	0.0045	3.5	31
0.003	0.0067	0.003	0.0105	3.7	31
0.003	0.0097	0.003	0.0127	3.6	31
0.0022	0.0097	0	0.0157	3.7	31
0.0022	0.012	0.0022	0.0202	3.9	31
0.0015	0.012	0.0045	0.0232	3.6	31
0.0015	0.0105	0.0045	0.0187	3.7	31
0.0007	0.0082	0.006	0.015	3.8	31
0	0.0037	0.0052	0.0105	3.6	31
-0.0008	0	0.0052	0.0075	4	31
-0.0008	-0.0015	0.0052	0.0045	3.7	31
-0.003	-0.0015	0.0037	0.003	3.9	31
-0.003	0	0.0045	0.003	3.8	31
-0.0015	0	0.0037	0.0015	3.9	31
-0.0015	-0.0015	0.0015	-0.0008	3.7	31
-0.0015	-0.003	0	-0.003	3.9	31
-0.003	-0.0068	0	-0.003	4	31
-0.0038	-0.0053	-0.0015	-0.0053	3.6	31
-0.003	-0.0053	-0.0008	-0.0068	4.1	31
-0.0023	-0.0053	-0.0015	-0.0075	3.9	31
-0.0008	-0.0023	-0.0023	-0.0075	3.9	31
-0.0015	-0.0023	-0.0008	-0.0083	4.1	31
0	-0.003	-0.0008	-0.0083	3.7	31
0.0015	-0.0068	0.0007	-0.0083	4.5	31
0.0015	-0.0083	0	-0.006	3.8	31
0.0007	-0.0068	-0.0008	-0.0053	4.1	31
0	-0.0068	-0.0008	-0.003	4.1	31
0.0007	-0.0038	-0.0008	-0.0038	4.3	31
0.0007	-0.0046	-0.0008	-0.0068	4.4	31
0	-0.003	-0.0008	-0.0046	4.2	31
-0.0015	0.0007	-0.0015	-0.0083	4.3	31
-0.0015	0.009	0.0007	-0.012	4.1	31
-0.0015	0.0097	-0.0015	-0.0158	4	31
0.0007	-0.0015	-0.003	-0.0188	4.1	31
0	-0.0046	-0.0015	-0.0158	4	31
-0.0015	-0.0038	-0.0023	-0.0053	4.5	31
-0.0008	-0.0046	-0.003	0.012	4.1	31
0	-0.0015	-0.0046	0.0052	4.3	31
0.0015	-0.0008	-0.0038	-0.0015	4.2	31
0.0007	0.0007	-0.0046	0.0037	4.3	31
-0.0008	0.0015	-0.0046	-0.0008	4.4	31
0	0.0007	-0.0046	-0.0023	4	31
-0.0008	0.0007	-0.0015	-0.0083	4.3	31
0.0007	0.0037	0.0015	-0.0046	4.4	31
0.0015	0.003	0	0.0015	4.6	31
-0.0008	0	0.0007	0	4.4	31
-0.0008	0.0015	0.0015	0.0022	4.3	31
-0.0015	0.0045	0.0015	0.0045	4.6	31
-0.0008	0.0052	0.0007	0.0127	4.4	31
0.0015	0.0082	0.0015	0.018	4.7	31
0.003	0.0135	0.0052	0.0165	4.5	31
0.0015	0.009	0.0052	0.0157	4.5	31
0.0015	0	0.0052	0.0165	4.5	31
0.003	-0.0091	0.0045	0.0165	4.5	31
0.0015	-0.012	0.003	0.0112	4.7	31
-0.0008	-0.0083	0.0015	0.0097	4.2	31
-0.0015	-0.0075	0	0.0045	4.7	31
-0.0015	-0.0053	0	-0.0008	4.7	31
-0.0015	-0.0053	-0.0008	-0.0015	4.6	31
-0.0015	-0.006	-0.0008	-0.0015	4.5	31
0.0007	-0.0046	0.0007	-0.003	4.7	31
-0.0008	-0.006	0.0015	-0.0038	4.6	31
-0.0008	-0.0083	0	-0.0008	4.5	31
-0.0015	-0.0038	-0.0015	-0.0008	4.8	31
-0.0008	-0.0008	-0.0015	-0.0038	4.6	31
-0.0008	-0.0068	-0.0008	-0.0053	4.9	31
-0.0015	-0.0083	-0.0008	-0.006	4.7	31
-0.0008	-0.0083	-0.0023	-0.0075	4.7	31
-0.0015	-0.0053	-0.0038	-0.0068	4.9	31
0	0.0097	-0.003	-0.0083	4.8	31
0.0007	0.0225	-0.0008	-0.0091	5	31
0.0015	0.018	-0.0008	-0.0083	4.7	31
0.0015	0.006	-0.0008	-0.0075	4.9	31
0	0.0007	-0.0008	-0.006	5	31
0.0015	-0.012	0	-0.006	4.8	31
0	-0.0135	0.0007	-0.0053	4.9	31
-0.0023	-0.0128	0.0015	-0.0053	5	31
-0.0008	-0.0158	0.0007	-0.0046	4.9	31
0.0007	-0.0128	-0.0015	-0.003	4.6	31
0.0007	-0.012	-0.0015	-0.0068	5.1	31
-0.0008	-0.0091	-0.0015	-0.0053	4.7	31
0.0007	-0.0083	-0.003	0.006	4.9	31
0.0007	-0.003	-0.0008	0.009	4.9	31
0.0007	0.0217	-0.0008	0.0015	4.8	31
0.0007	0.0457	-0.0008	0	5.1	31
-0.0015	0.0375	0.0007	-0.0083	4.8	31
0	0.021	0.0015	-0.0128	5.1	31
0.0007	0.0052	0.0015	-0.012	5	31
0.0007	-0.012	-0.0015	-0.0173	4.9	31
-0.0008	-0.0105	-0.0008	-0.0195	5	31
-0.0015	-0.012	-0.0008	-0.0113	5	31
-0.0015	-0.0158	-0.0008	0.0247	5	31
0	-0.0263	0.0007	0.0315	5	31
-0.0015	-0.033	0.0015	0.0045	5.1	31
-0.0015	-0.0233	0.0015	0.0015	5	31
-0.0008	-0.0053	0.0022	-0.0008	5	31
0.0007	0.0135	0.0015	-0.0038	5.2	31
0.0022	0.0097	0.0007	-0.0015	5	31
0.0007	-0.003	0	-0.0008	5.3	31
0.0007	-0.0038	0.0007	-0.0015	4.8	31
0.0015	0.0015	0.0015	0.0052	5.2	31
0.0007	0.0127	0.0007	0.0195	5.3	31
0	0.015	0.0022	0.0195	5.2	31
0.0007	0.003	0.0007	0.0067	5.2	31
0.0015	-0.0023	-0.0015	-0.0091	5	31
0	-0.0053	-0.0008	-0.0105	5.3	31
-0.0008	-0.0068	-0.0008	-0.012	5.3	31
-0.0008	-0.0015	0	-0.0188	5.2	31
-0.003	0	-0.0023	-0.0128	5.1	31
-0.003	-0.0038	-0.003	-0.003	5.3	31
-0.0023	-0.0091	-0.003	-0.003	5.3	31
-0.003	-0.0113	-0.0038	-0.0068	5.1	31
-0.0038	-0.012	-0.006	-0.012	5.3	31
-0.0023	-0.0135	-0.0068	-0.0128	4.9	31
0.0007	-0.0113	-0.0053	-0.012	5.3	31
0	-0.0053	-0.0053	-0.0158	5	31
0.0015	-0.0008	-0.003	-0.012	5	31
0.0015	0.0045	-0.0023	-0.0091	5.3	31
0.003	0.0067	-0.0015	-0.0008	5.1	31
0.0067	0.0112	0.003	0.0127	5.4	31
0.0082	0.015	0.003	0.0187	5.3	31
0.0075	0.012	0.0037	0.0195	5.1	31
0.0045	0.012	0.0045	0.0142	5.1	31
0.003	0.0142	0.003	0.018	5.3	31
0.0037	0.012	0.003	0.0217	5.3	31
0.0007	0.0045	0.0045	0.0232	5	31
-0.0008	0.0022	0.0045	0.0195	5.4	31
-0.0008	0.0007	0.0037	0.0165	5	31
-0.0023	-0.012	0.0015	0.0135	5.4	31
-0.0015	-0.0165	0.0007	0.0097	5	31
-0.0015	-0.0113	-0.0008	0.0052	5.3	31
-0.003	-0.0068	-0.0008	0.0022	5.3	31
-0.003	-0.0046	-0.0008	0.0015	5.2	31
-0.003	-0.0038	-0.003	-0.0008	5.3	31
-0.0015	-0.0038	-0.0008	-0.0038	5.2	31
-0.0023	-0.0023	-0.0008	-0.0068	5.2	31
-0.0008	-0.0046	-0.0015	-0.0068	5.3	31
-0.0008	-0.0053	-0.0015	-0.0083	5.3	31
-0.0008	-0.0083	-0.0008	-0.0105	5.2	31
0	-0.012	0.0007	-0.012	5.3	31
-0.0008	-0.0113	-0.0008	-0.0135	5.3	31
-0.0008	-0.015	-0.0015	-0.0128	5.1	31
-0.0015	-0.021	-0.0015	-0.0105	5.4	31
-0.0008	-0.0195	0	-0.0105	4.9	31
-0.0015	-0.0113	-0.0015	-0.0105	5.4	31
-0.0023	0	-0.003	-0.012	5.3	31
-0.0023	0.003	-0.0023	-0.0181	5.3	31
-0.0008	0.0022	-0.003	-0.0225	5.4	31
-0.0015	0.0127	-0.0038	-0.0181	5.1	31
-0.0008	0.0232	-0.0023	-0.012	5.3	31
0.0007	0.0187	-0.0023	-0.0083	5.3	31
0.0007	0.0015	-0.003	-0.0105	5.1	31
0.0015	0.006	-0.0023	-0.0091	5.5	31
0.0007	0.012	-0.0015	0.0007	5.3	31
-0.0008	0.003	0.0007	0.0217	5.3	31
-0.0008	0.0165	0.0022	0.0315	5.3	31
0	0.0307	0.0037	0.0135	5.3	31
0.0007	0.0127	0.0037	0.0045	5	31
0.0007	-0.0083	0.0037	0.0007	5.3	31
0.0007	-0.0128	0.0015	-0.0165	5.2	31
-0.0008	-0.0203	-0.0008	-0.0233	5	31
-0.0015	-0.0181	-0.003	-0.03	5.3	31
-0.0008	0.0052	-0.003	-0.0368	5	31
0.0007	0.0142	-0.003	-0.0428	5.1	31
0	0.0045	-0.003	-0.0706	5.3	31
0.0007	-0.0046	-0.003	-0.06	5	31
0.0015	-0.0075	-0.0015	0.0427	5.5	31
0.003	-0.0128	-0.0008	0.1185	5.1	31
0.0037	-0.021	-0.0008	0.0697	5.3	31
0.0045	-0.027	0.0007	0.0195	5.3	31
0.003	-0.027	0.0015	-0.0143	5.2	31
0.0015	-0.0195	-0.0008	-0.0233	5.3	31
0.0015	-0.012	-0.003	-0.0098	5.2	31
0.0007	-0.0008	-0.0053	0.009	5	31
-0.0008	0.012	-0.003	0.078	5.4	31
-0.0015	0.0202	-0.0015	0.093	5.4	31
-0.003	0.0202	0.0015	0.099	5.3	31
-0.003	0.0262	0.009	0.102	5.3	31
-0.003	0.0352	0.0127	0.0337	5.1	31
-0.003	0.0352	0.0142	0.0165	5.2	31
-0.0068	0.0262	0.012	-0.0165	5.3	31
-0.0083	0.018	0.0067	-0.0555	5.1	31
-0.0068	0.0052	0.0045	-0.0428	5.4	31
-0.0053	-0.0188	0.0007	-0.042	5.3	31
-0.0046	-0.0218	-0.0023	-0.0361	5.5	31
-0.003	-0.021	-0.0015	-0.0458	5.3	31
-0.003	-0.0181	-0.003	-0.0458	5.3	31
-0.003	-0.0158	-0.003	-0.0458	5.3	31
-0.0038	-0.0165	-0.0046	-0.0518	5.3	31
-0.003	-0.0053	-0.0038	-0.054	5.4	31
-0.0008	-0.0008	-0.0015	-0.033	5.1	31
0	-0.0098	-0.003	0.0165	5.4	31
0.0015	-0.0233	-0.0023	0.0292	5.3	31
0.0022	-0.0218	-0.0008	0.0135	5.3	31
0.0037	-0.0128	-0.0008	0.0097	5.5	31
0.0037	-0.0091	-0.0015	0.0015	5.3	31
0.003	-0.0091	-0.0008	-0.0008	5.6	31
0.003	0.0022	0.003	0.003	5.4	31
0.0037	0.0232	0.003	0.003	5.4	31
0.0037	0.0337	0.0037	0.0082	5.8	31
0.003	0.0397	0.003	0.0112	5.3	31
0.0045	0.0315	0.0022	0.0142	5.7	31
0.003	0.0067	0.003	0.0007	5.6	31
0.0022	-0.0098	0.003	-0.003	5.5	31
0.003	-0.012	0.0037	0.0075	5.6	31
0.0022	-0.0135	0.0007	0.0082	5.8	31
0	-0.0181	-0.0008	-0.0008	5.8	31
-0.0015	-0.0218	-0.0046	-0.0143	5.6	31
-0.0008	-0.0218	-0.0068	-0.0218	5.8	31
0	-0.0218	-0.0083	-0.0323	5.5	31
-0.0008	-0.0195	-0.0091	-0.0368	6.2	31
0.0007	-0.0128	-0.0053	-0.0195	5.8	31
-0.0008	-0.0113	-0.0023	0.0622	6	31
-0.0046	-0.0015	0.0022	0.1012	6.1	31
-0.0046	0.0217	0.0052	0.0202	6	31
-0.0023	0.0292	0.0082	-0.0158	6.2	31
-0.0008	0.0307	0.0067	-0.0091	5.8	31
-0.003	0.0285	0.0045	-0.0128	6	31
-0.0015	-0.0008	0.0007	-0.0091	6.1	31
-0.0008	-0.0083	0	-0.0181	6.1	31
-0.0008	-0.0128	-0.003	-0.0143	6.2	31
0.0007	-0.021	-0.0038	-0.0128	6.2	31
0.0007	-0.0075	-0.0015	-0.012	6.4	31
-0.0008	-0.0083	-0.0015	-0.0098	6.1	31
-0.0008	-0.0008	-0.0023	-0.0143	6.5	31
-0.0008	0	-0.0053	-0.0158	6.3	31
-0.0008	-0.012	-0.0053	-0.0173	6.5	31
0	-0.0091	-0.0046	-0.0128	6.7	31
-0.0015	0.0007	-0.003	-0.0135	6.3	31
-0.0008	0.0127	-0.0015	-0.0128	6.7	31
0	0.0075	-0.0015	-0.0113	6.5	31
0.0015	-0.0015	-0.0023	-0.006	6.6	31
0.003	-0.0053	-0.0023	0	6.6	31
0.003	-0.0091	-0.0015	0.006	6.7	31
0.0022	-0.0068	-0.0015	0.0135	6.7	31
0.0015	-0.0008	-0.0008	0.0165	6.6	31
0.003	0.012	0.0015	0.018	6.7	31
0.0037	0.0217	0.0007	0.0142	6.7	31
0.0045	0.015	-0.0015	0.0067	6.8	31
0.0037	0.0045	-0.0015	0.0007	6.8	31
0.0022	-0.0023	-0.0023	-0.0263	6.8	31
0.0007	-0.012	-0.0038	-0.0623	7.1	31
-0.0015	-0.0135	-0.0053	-0.0375	6.7	31
0	-0.0068	-0.0046	0.0045	7.1	31
0.0007	-0.0038	-0.0038	0.0052	7.1	31
-0.0008	-0.0008	-0.003	0.0052	7.1	31
0	0.003	-0.0008	0.0502	7.5	31
-0.0008	0.0015	0.0022	0.0922	7.2	31
-0.0015	0.0067	0.0045	0.0675	7.1	31
-0.0015	0.0142	0.0045	0.0502	7.2	31
-0.0015	0.012	0.0037	0.0405	7.2	31
-0.003	0.003	0.0045	0.0292	7.2	31
-0.0046	-0.0068	0.0022	0.024	7.5	31
-0.0053	-0.0046	0.0007	0.0082	7.5	31
-0.0046	-0.006	-0.0008	-0.0098	7.2	31
-0.0038	-0.0098	-0.0008	-0.0195	7.6	31
-0.003	-0.0083	0	-0.0225	7.3	31
-0.0015	-0.0143	-0.0008	-0.024	7.5	31
-0.0008	-0.012	-0.0008	-0.0233	7.6	31
-0.0008	-0.012	-0.0008	-0.0256	7.3	31
-0.0008	-0.012	-0.0008	-0.027	7.6	31
-0.0015	-0.0091	0	-0.0293	7.6	31
-0.0015	-0.0015	0	-0.0293	7.6	31
-0.0015	-0.0038	-0.0008	-0.0278	7.7	31
0	-0.0203	0	-0.027	7.5	31
0.0022	-0.0195	0	-0.0218	7.8	31
0.003	-0.0173	-0.0023	-0.0181	7.9	31
0.0015	-0.0203	-0.0015	-0.0128	7.9	31
0.0007	-0.0188	-0.0008	-0.0083	7.6	31
0.003	-0.0143	-0.0008	0	8.1	31
0.0045	-0.006	0.0015	0.009	7.6	31
0.0067	0.0007	0.0015	0.015	8	31
0.0067	0.003	0.0015	0.015	8	31
0.006	0.0082	0.003	0.0142	7.8	31
0.0045	0.0225	0.0015	0.0142	8	31
0.003	0.039	0.0037	0.0142	8.1	31
0.0007	0.0427	0.0045	0.009	8	31
0.0007	0.042	0.0022	0.0037	8.1	31
0.0015	0.0307	0.0015	0.0007	7.8	31
-0.0008	0.009	0	-0.0023	8.4	31
-0.003	0.0067	-0.0008	-0.0015	8.1	31
-0.003	0.0105	-0.0008	-0.0008	8.4	31
-0.0023	0.0097	0.0007	-0.0046	8.1	31
-0.0023	0.0007	0.0007	-0.0083	8.1	31
-0.003	-0.0068	0	-0.0091	8.1	31
-0.003	-0.0075	-0.0008	-0.0091	8.2	31
-0.003	-0.012	-0.0015	-0.0113	8.4	31
-0.003	-0.0105	-0.003	-0.0105	8.3	31
-0.0015	-0.012	-0.0015	-0.0098	8.4	31
-0.0008	-0.0143	-0.0008	-0.0105	8.4	31
-0.0008	-0.0143	0.0022	-0.0075	8.4	31
-0.0008	-0.0165	0.003	-0.0038	8.8	31
-0.0015	-0.0165	0.0022	0.0022	8.3	31
-0.0023	-0.015	0.0007	0.0067	8.9	31
-0.0008	-0.0128	0.0007	0.009	8.5	31
0	-0.012	0.0015	0.0105	8.7	31
-0.0008	-0.0068	0.003	0.0075	8.8	31
0	0.006	0.003	0.003	8.8	31
0.0007	0.0202	0.0037	0.0075	8.8	31
0.0007	0.0127	0.0052	0.0097	8.9	31
0.0007	0.0082	0.003	0.0007	9.4	31
0	0.0172	0.0015	0	9	31
-0.0008	0.0007	0.003	0.0007	9.2	31
-0.0008	-0.0053	0.003	0	9.3	31
-0.0023	-0.003	0.0022	0.0007	9.2	31
-0.0023	-0.0068	0.0015	0	9.5	31
-0.0015	-0.0046	0.003	0.0015	9.3	31
-0.0008	-0.0083	0.0037	-0.0008	9.6	31
-0.0008	-0.0083	0.0022	-0.0008	9.4	31
-0.0008	-0.0083	-0.0008	-0.0038	9.7	31
0	-0.0083	-0.0015	-0.0053	9.9	31
0.0007	-0.0075	0	-0.0053	9.7	31
0	-0.0075	-0.0008	-0.006	10.2	31
-0.0008	-0.0053	-0.0023	-0.0053	10.2	31
0	-0.0053	-0.0008	-0.0083	10.2	31
-0.0015	-0.0038	-0.0008	-0.0113	10.2	31
-0.0008	0	-0.0008	-0.0143	10.5	31
0	0.0037	0	-0.0158	10.6	31
-0.0008	-0.0023	-0.0008	-0.0158	10.5	31
-0.0015	-0.0068	-0.0015	-0.015	10.9	31
0.0007	-0.0053	-0.0046	-0.0128	10.6	31
0	-0.0083	-0.0015	-0.0083	11	31
0.0007	-0.0075	-0.0015	-0.003	10.9	31
0.0022	-0.003	-0.0008	0.0015	10.9	31
0.0022	0.0015	-0.0015	0.0052	11.2	31
0.003	0.0037	-0.0023	0.0112	11	31
0.0045	0.0052	-0.0008	0.0165	11.4	31
0.0045	0.0075	-0.0023	0.0202	11.2	31
0.0037	0.0067	-0.0008	0.0202	11.5	31
0.0022	0.006	0.0007	0.0195	11.5	31
0.0015	0.0082	0	0.0187	11.7	31
0.0007	0.0127	0.0007	0.0165	12	31
0.0007	0.0067	0.0007	0.012	11.9	31
0.0007	0.0015	0.0007	0.0067	12.1	31
0	0	0	0.0045	11.8	31
0.0015	-0.0015	0.0007	0.0015	12.2	31
-0.0015	-0.0008	-0.0008	0.0015	12	31
-0.003	-0.0046	-0.0008	-0.0008	12.2	31
-0.003	-0.0046	-0.0008	-0.0015	12.6	31
-0.0023	-0.0053	-0.0008	0.003	12.1	31
-0.0015	-0.006	-0.0008	0.0015	12.8	31
-0.003	-0.0046	0.0007	0	12.4	31
-0.003	-0.0113	-0.0015	-0.0046	12.8	31
-0.003	-0.0165	-0.0038	-0.0105	12.9	31
-0.003	-0.0203	-0.003	-0.0128	13.1	31
-0.0023	-0.0181	-0.003	-0.0165	12.9	31
-0.0015	-0.015	-0.0038	-0.0181	13	31
-0.0008	-0.0128	-0.0053	-0.0128	13	31
0	-0.0098	-0.0046	-0.0105	12.9	31
0.0015	-0.0038	-0.0038	-0.0053	13.4	31
0.0037	0.0135	-0.0023	0.0015	13.3	31
0.0045	0.033	0	-0.0075	13.3	31
0.0037	0.0322	0.0022	-0.0158	13.7	31
0.003	0.0165	0.0015	-0.0008	13.3	31
0.0022	0.0105	0.0015	0.006	13.7	31
0.0007	0.0015	0.0015	-0.0015	13.5	31
0.0022	-0.0015	0.0007	0.0015	13.7	31
0.003	0.0007	0.0007	0.0007	13.9	31
0.003	-0.0008	-0.0008	0.0007	13.7	31
0.003	-0.0008	0	0.0007	14	31
0	-0.0015	0.0007	-0.0015	13.9	31
-0.0008	-0.0015	-0.0008	0.0007	14.3	31
0.0007	-0.003	0	0.0007	14.3	31
-0.0008	-0.0038	0.0015	0	14.3	31
-0.0008	-0.0008	0.0045	-0.0015	14.6	31
-0.0008	-0.0008	0.003	-0.0015	14.4	31
-0.0015	-0.0008	0.0015	0	14.7	31
-0.0023	-0.003	0.0007	0.0007	14.5	31
-0.0015	-0.0038	-0.0015	-0.003	14.9	31
-0.0015	-0.006	0	-0.0053	14.6	31
-0.0015	-0.0053	0.0007	-0.0068	14.9	31
-0.0023	-0.0038	0.0007	-0.006	15.1	31
-0.003	-0.006	0.0015	-0.0046	14.8	31
-0.0038	-0.0046	0.0007	-0.0023	15.2	31
-0.003	-0.0046	0	0.003	15.3	31
-0.0015	-0.0046	-0.0008	0.003	15.5	31
-0.0008	-0.0053	-0.0008	-0.0015	15.5	31
-0.0008	-0.0068	-0.0008	-0.0015	15.5	31
-0.0008	-0.0068	-0.0008	-0.0008	15.7	31
0	-0.006	-0.0008	0.003	15.9	31
0.0007	-0.0075	-0.0008	-0.0008	15.9	31
0	-0.0091	-0.0008	-0.0195	15.6	31
0	-0.0083	-0.0008	-0.024	16.2	31
0.0007	-0.0075	-0.0008	-0.015	16	31
-0.0008	-0.003	-0.0008	-0.0143	16.1	31
0	0	-0.0015	-0.0053	16.5	31
0.0007	-0.0008	-0.0008	0.0217	16.2	31
0.0007	0.0007	0.0015	0.036	16.5	31
0.0007	0.0045	0.0022	0.0195	16.6	31
0.0022	0.0105	0.003	0	16.6	31
0.0022	0.009	0.0015	-0.0023	16.9	31
0.0007	0.0052	0.0015	-0.0015	16.6	31
-0.0008	-0.006	0.003	-0.003	16.9	31
-0.0008	-0.0091	0.0015	-0.0091	16.9	31
-0.0008	0	0.0015	-0.0105	17	31
-0.0015	-0.0098	0	-0.0083	17.1	31
-0.0008	-0.003	-0.0008	-0.0038	17.7	31
0	0.0045	0.0015	0.0015	17.2	31
0.0015	-0.0008	0.0015	0.003	17.3	31
0.0015	0.0112	0.0007	0.0022	17.5	31
0.0007	0.0067	-0.0008	0.003	17.4	31
0.0015	0.0082	0	0.006	17.6	31
0.003	0.0135	-0.0015	0.009	17.7	31
0.0045	0.0052	-0.0008	0.0112	17.5	31
0.0037	0.0045	0	0.0112	18.1	31
0.0015	0.0037	0.0007	0.009	17.8	31
-0.0008	0.0015	0.0007	0.009	18	31
-0.0015	0.0037	0	0.0045	18	31
-0.0008	0.0007	-0.0015	0.0022	18	31
-0.0023	-0.0075	-0.0023	0	18.1	31
-0.0015	-0.0105	-0.0023	-0.003	18.2	31
-0.0015	-0.0128	-0.0008	-0.0046	18.3	31
-0.0015	-0.0068	-0.0008	-0.0046	18.2	31
-0.0015	0.003	-0.0015	-0.0046	18.6	31
-0.0015	-0.0053	-0.0015	0.0007	18.4	31
-0.0008	-0.0181	-0.0023	0.009	18.5	31
-0.0008	-0.0278	-0.0023	0.009	18.7	31
-0.0015	-0.0308	-0.0015	0.0052	18.6	31
-0.0015	-0.027	-0.0023	-0.0008	18.9	31
-0.0015	-0.021	-0.0015	-0.0098	18.6	31
-0.0015	-0.0165	-0.0023	-0.0218	18.9	31
-0.0023	-0.0015	-0.0008	-0.0195	18.8	31
-0.0015	0.033	0.0007	-0.0091	19.1	31
-0.0038	0.0405	0.0022	-0.0113	19	31
-0.0023	0.0202	0.003	-0.0083	19	31
-0.0023	0.027	0.0015	-0.0008	19.3	31
-0.0023	0.027	0	0.0165	19.1	31
-0.0015	0.0097	-0.0015	0.015	19.3	31
-0.0015	0.003	-0.003	-0.012	19	31
0	0.0015	-0.0008	-0.0158	19.3	31
-0.0008	0.0105	0	-0.0195	19.4	31
-0.0008	0.003	-0.0015	-0.0293	19	31
0.0007	-0.0083	-0.003	-0.0315	19.6	31
0.0007	-0.0105	-0.0053	-0.015	19.2	31
-0.0008	-0.0128	-0.0046	0.0217	19.5	31
0.0015	-0.0128	-0.0046	0.0457	19.7	31
0.0022	-0.0181	-0.0038	0.0652	19.5	31
0.0015	-0.021	-0.0038	0.0442	19.6	31
0	-0.024	-0.0053	-0.0293	19.4	31
0	-0.021	-0.003	-0.0691	19.8	31
0.0022	-0.0173	0.0022	-0.0346	19.6	31
0.0015	-0.0218	0.0007	-0.0278	19.4	31
0.003	-0.0165	0.0007	-0.0465	19.8	31
0.0037	-0.003	0.0007	-0.0353	19.8	31
0.0022	0.0067	-0.003	-0.0346	19.8	31
0.003	0.0075	-0.0046	-0.012	19.5	31
0.0037	-0.0046	-0.0038	0.0105	19.9	31
0.0007	-0.0015	-0.003	0.0337	19.6	31
-0.0008	0.0187	0	0.0862	20	31
-0.0023	0.0255	0.0007	0.1252	19.8	31
-0.0046	0.0262	0.0007	0.1215	19.8	31
-0.006	0.0615	0.0015	0.0727	20.1	31
-0.0053	0.078	0.003	0.0247	19.7	31
-0.003	0.048	0.0052	-0.0165	20.1	31
-0.003	0.0195	0.0067	-0.0308	19.8	31
-0.0015	0.0015	0.006	-0.0195	19.9	31
0	0.0082	0.0052	-0.0098	20.2	31
-0.0008	-0.0105	0.0007	-0.003	20.1	31
0.0007	-0.027	-0.0023	-0.0098	20.1	31
0.0007	-0.0233	-0.0023	-0.0188	20.2	31
-0.0008	-0.0263	-0.0046	-0.0256	20.3	31
0.0007	-0.0195	-0.0023	-0.024	19.9	31
0.0015	-0.0233	-0.0046	-0.024	20.4	31
0.003	-0.0203	-0.0046	-0.0225	20.1	31
0.0007	-0.0188	-0.0053	-0.0195	20.2	31
-0.0008	-0.0188	-0.0053	-0.0188	20.3	31
-0.0015	-0.0143	-0.0038	-0.0158	20.1	31
0.0007	-0.0135	-0.0038	-0.0128	20.5	31
0.0015	-0.0105	-0.003	-0.012	20.2	31
0.0007	-0.012	-0.0023	-0.0113	20.5	31
0.0007	-0.0083	-0.003	-0.0105	20.3	31
0.0007	-0.0083	-0.003	-0.0143	20.3	31
0.0015	-0.0075	-0.003	-0.0181	20.3	31
0.0022	-0.006	-0.003	-0.0248	20.4	31
0.003	-0.0083	-0.003	-0.045	20.3	31
0.0037	-0.012	-0.003	-0.0593	20.3	31
0.0037	-0.0158	-0.003	-0.0578	20.7	31
0.003	-0.0143	-0.0008	-0.057	20.7	31
0.003	-0.0181	-0.0008	-0.0563	20.7	31
0.0037	-0.0203	-0.0008	-0.0503	20.7	31
0.003	-0.0173	-0.0015	-0.0458	20.4	31
0.0045	-0.0083	0.0007	-0.024	20.8	31
0.0037	0.009	0.0015	0.024	20.5	31
0.0015	0.0217	0	0.0727	21.1	31
-0.0015	0.024	0.003	0.1365	20.9	31
-0.0053	0.027	0.0045	0.1935	20.8	31
-0.0075	0.0322	0.0075	0.186	21	31
-0.0083	0.0427	0.0082	0.1267	20.9	31
-0.0083	0.0577	0.006	0.072	20.8	31
-0.0046	0.0442	0.003	0.0442	20.9	31
-0.003	0.033	0.0007	0.0127	20.9	31
-0.003	0.015	0	-0.024	20.7	31
-0.003	-0.0158	-0.0038	-0.0428	20.9	31
-0.0023	-0.0105	-0.0046	-0.042	21.1	31
-0.0015	-0.0248	-0.0046	-0.0465	20.8	31
0.0015	-0.0285	-0.0053	-0.042	21.3	31
0.0007	-0.027	-0.0046	-0.033	20.9	31
-0.0008	-0.0323	-0.0038	-0.0248	21.2	31
0.0007	-0.024	-0.0015	-0.0098	21	31
0.0007	-0.0346	-0.003	0.0015	21.1	31
-0.0008	-0.033	-0.0038	-0.0046	21.1	31
-0.0023	-0.0315	-0.0053	-0.0338	21	31
-0.003	-0.0173	-0.0053	-0.0533	21.3	31
-0.0015	0.0015	-0.0023	-0.0533	21.3	31
0.0007	-0.0113	-0.0008	-0.0503	21.2	31
0.0037	-0.0203	0	-0.0458	21.1	31
0.0037	-0.006	0.0007	-0.0293	21.2	31
0.003	0.0157	0.003	-0.012	21.3	31
0.0037	0.027	0.0045	0.0015	21.3	31
0.003	0.039	0.0045	0.0142	21.8	31
0	0.03	0.0037	0.033	21.2	31
-0.0008	0.0292	0.0022	0.0457	21.6	31
-0.0023	0.0367	0.0007	0.024	21.5	31
-0.0046	0.018	-0.0023	0.0022	21.4	31
-0.003	0.0052	-0.0046	0.0037	21.8	31
-0.0015	-0.0143	-0.003	-0.0008	21.5	31
-0.0023	-0.0195	-0.0023	-0.0128	21.7	31
-0.0015	-0.0143	-0.0015	-0.0195	22.1	31
-0.0023	-0.0173	-0.0023	-0.0233	21.6	31
-0.0038	-0.0143	-0.0015	-0.0218	21.8	31
-0.0015	-0.0158	-0.0015	-0.0218	21.8	31
-0.0008	-0.0143	-0.003	-0.021	21.9	31
0.0015	-0.015	-0.003	-0.021	21.8	31
0.0037	-0.0128	-0.0015	-0.0285	22.3	31
0.0067	-0.0158	-0.0023	-0.0593	21.8	31
0.0082	-0.0218	-0.0023	-0.126	22	31
0.0097	-0.0203	-0.0015	-0.1785	21.9	31
0.0105	-0.0225	-0.0015	-0.1726	22	31
0.009	-0.0323	-0.0008	-0.1358	22.3	31
0.0082	-0.0405	-0.0008	-0.0848	22.1	31
0.0082	-0.0308	0.0022	-0.03	22.3	31
0.0082	-0.0113	0.0052	0.0465	22.4	31
0.0082	0.0142	0.0082	0.1635	22.2	31
0.0052	0.054	0.0127	0.3	22.8	31
-0.0015	0.084	0.0097	0.4012	22.2	31
-0.0083	0.105	0.0097	0.3292	22.6	31
-0.012	0.1087	0.0105	0.1687	22.6	31
-0.0158	0.0817	0.009	0.1305	22.6	31
-0.0165	0.084	0.0082	0.171	22.5	31
-0.0158	0.0202	0.003	0.1492	22.6	31
-0.0143	-0.0346	0.0052	0.0495	22.7	31
-0.0105	0.0067	0.012	-0.0465	22.5	31
-0.0053	-0.0053	0.0097	-0.0668	22.8	31
-0.0015	-0.003	0.0037	-0.0713	22.6	31
-0.0008	-0.0083	0.0015	-0.0863	22.8	31
0.0007	-0.0233	0	-0.09	23.1	31
0.0015	-0.0285	-0.003	-0.0968	22.5	31
0.0007	-0.057	-0.006	-0.0938	23.2	31
0.0007	-0.048	-0.0068	-0.0856	22.8	31
0.0022	-0.0495	-0.0053	-0.0765	23	31
0.0037	-0.0495	-0.0068	-0.0728	23.1	31
0.0037	-0.048	-0.0053	-0.0653	23.2	31
0.0037	-0.042	-0.0053	-0.0675	23.2	31
0.003	-0.0436	-0.006	-0.09	23.3	31
0.0022	-0.0691	-0.0068	-0.1411	23.2	31
0.0052	-0.0825	-0.0068	-0.2235	23.2	31
0.0067	-0.084	-0.0068	-0.2738	23.5	31
0.0075	-0.0743	-0.0091	-0.2625	23.2	31
0.0082	-0.0728	-0.0091	-0.2123	23.6	31
0.0082	-0.0368	-0.0068	-0.126	23.8	31
0.0067	0.0382	0.0007	0.0082	23.6	31
0.009	0.1162	0.0105	0.1995	24	31
0.009	0.1875	0.0202	0.3907	23.7	31
0.0007	0.21	0.0202	0.4665	23.9	31
-0.0068	0.1432	0.0135	0.414	24	31
-0.012	0.1087	0.0127	0.282	23.8	31
-0.0158	0.1215	0.015	0.126	24.2	31
-0.0128	0.0165	0.009	0.0202	24.1	31
-0.012	-0.0436	0.0015	-0.0346	24	31
-0.0075	-0.0383	0.0007	-0.06	24.1	31
-0.003	-0.0623	-0.0008	-0.057	24.3	31
-0.0015	-0.0533	-0.0015	-0.0518	24.3	31
0	-0.0578	-0.0023	-0.0518	24.2	31
0	-0.045	-0.003	-0.054	24.6	31
0	-0.0398	-0.0015	-0.0555	24.3	31
0.0007	-0.042	-0.0046	-0.054	24.7	31
0.0007	-0.0346	-0.0038	-0.0533	24.6	31
0.0015	-0.0346	-0.0015	-0.0518	24.7	31
0.0015	-0.024	-0.0015	-0.0473	25	31
0.0015	-0.0256	-0.0015	-0.0465	24.7	31
0.0007	-0.0195	-0.003	-0.0428	25.1	31
0.0015	-0.0165	-0.0015	-0.0368	25	31
0.003	-0.0135	-0.0046	-0.0323	25	31
0.0022	-0.0075	-0.0008	-0.027	25.3	31
0.003	-0.0038	0.0022	-0.0218	25.2	31
0.0022	0.0015	0.0007	-0.0158	25.3	31
0.0037	0.0022	0.0007	-0.0105	25.5	31
0.0045	0.0045	0.0007	-0.006	25.6	31
0.0052	0.0015	0.0007	-0.0075	25.4	31
0.0037	0	-0.0008	-0.0308	25.8	31
0.003	-0.003	-0.0015	-0.0683	25.6	31
0.0037	-0.003	0.0007	-0.0863	25.8	31
0.0022	-0.0008	0	-0.0893	26	31
0.0045	-0.0038	0.0015	-0.096	25.8	31
0.0052	-0.0038	0.0007	-0.1133	26.1	31
0.006	0.003	0.0022	-0.0968	26.1	31
0.0075	0.0142	0.0052	-0.03	26.4	31
0.006	0.0172	0.0082	0.0502	26.3	31
0.003	0.0202	0.006	0.123	26.3	31
-0.003	0.0277	0.0045	0.168	26.5	31
-0.0083	0.0382	0.0067	0.1972	26.6	31
-0.0091	0.0367	0.009	0.2227	26.7	31
-0.0105	0.0195	0.0052	0.237	26.7	31
-0.0113	0.009	0.0007	0.1725	27	31
-0.0105	0.006	0.0015	0.0675	26.9	31
-0.0068	0.0082	0.0045	0.0172	26.9	31
-0.003	0.012	0.0045	-0.0046	27.3	31
-0.0015	0.012	0.0022	-0.0105	27	31
-0.0023	0.0105	0	-0.0233	27.5	31
-0.003	-0.0135	0.0007	-0.0383	27.3	31
-0.0015	-0.0353	0	-0.0465	27.5	31
-0.0015	-0.039	0.0007	-0.0511	27.6	31
0	-0.0443	0.0007	-0.0503	27.9	31
-0.0008	-0.042	-0.0015	-0.054	27.9	31
-0.0015	-0.0405	-0.0046	-0.0548	27.8	31
0.0007	-0.0383	-0.0046	-0.0533	27.9	31
0.0007	-0.0346	-0.0046	-0.0518	28	31
0.0015	-0.0383	-0.0068	-0.0735	28	31
0.0045	-0.0458	-0.0075	-0.1253	28.3	31
0.0075	-0.0555	-0.0098	-0.1973	28.2	31
0.0082	-0.0675	-0.012	-0.2761	28.6	31
0.009	-0.084	-0.0113	-0.3863	28.3	31
0.0135	-0.0856	-0.0105	-0.4508	28.5	31
0.018	-0.0653	-0.0075	-0.3406	28.4	31
0.018	-0.0046	-0.0038	-0.156	29	31
0.0142	0.0705	0.003	0.063	29	31
0.0082	0.1177	0.0105	0.2662	29	31
0.003	0.1725	0.018	0.408	29.3	31
-0.0038	0.2205	0.0232	0.6157	29.5	31
-0.0181	0.2152	0.021	0.7897	29.5	31
-0.0315	0.102	0.0082	0.717	29.7	31
-0.0353	0.003	-0.0015	0.4005	29.7	31
-0.0263	0.0067	0.0045	0.0847	29.6	31
-0.0143	0.003	0.0045	-0.0053	29.8	31
-0.0083	-0.0038	0.003	-0.0203	30.2	31
-0.0046	-0.0263	0.003	-0.0503	30.1	31
-0.003	-0.0338	-0.0015	-0.0713	30.4	31
-0.0015	-0.039	-0.0015	-0.1035	30.4	31
0	-0.0495	-0.003	-0.114	30.3	31
0.0007	-0.0413	-0.0053	-0.129	30.9	31
0.003	-0.0443	-0.0053	-0.1298	30.6	31
0.003	-0.033	-0.0068	-0.1275	30.7	31
0.003	-0.0315	-0.006	-0.129	31	31
0.003	-0.03	-0.0046	-0.1238	30.8	31
0.0045	-0.024	-0.0023	-0.1148	31.3	31
0.006	-0.0181	-0.0046	-0.1043	31	31
0.0037	-0.015	-0.0046	-0.0998	31.3	31
0.0022	-0.0158	-0.0046	-0.0908	31.5	31
0.0015	-0.012	-0.003	-0.0833	31.9	31
0	-0.0195	-0.003	-0.0758	31.8	31
-0.0015	-0.0158	-0.0053	-0.0773	32.1	31
-0.0038	-0.03	-0.0083	-0.0795	32.2	31
-0.0038	-0.0398	-0.0105	-0.0743	32.2	31
-0.0046	-0.0293	-0.0105	-0.0683	32.4	31
-0.0046	-0.0308	-0.0113	-0.057	32.4	31
-0.0015	-0.0225	-0.0105	-0.0413	32.8	31
0.0015	-0.0143	-0.0091	-0.0218	32.9	31
0.0045	-0.0038	-0.0053	0.0007	32.7	31
0.0075	0.012	0	0.0232	33.2	31
0.012	0.021	0.0015	0.042	33	31
0.0157	0.0277	0.0052	0.0592	33.3	31
0.0142	0.0232	0.009	0.0577	33.4	31
0.0127	0.006	0.0067	-0.0008	33.3	31
0.0112	-0.0083	0.0015	-0.1238	33.5	31
0.012	-0.0143	-0.0008	-0.2498	33.7	31
0.0127	-0.0233	-0.0023	-0.2933	33.7	31
0.0127	-0.0218	-0.0053	-0.291	33.8	31
0.0127	-0.0368	-0.0046	-0.336	34.2	31
0.0142	-0.0848	-0.0008	-0.3555	34.1	31
0.0142	-0.0773	0.0045	-0.18	34.3	31
0.0015	0.0225	0.0022	0.255	34.8	31
-0.0143	0.1177	-0.0008	0.6982	34.7	31
-0.024	0.0877	-0.0008	0.7597	35.1	31
-0.0181	0.063	0.0082	0.4987	34.9	31
-0.0075	0.1642	0.0255	0.3982	35.1	31
-0.0105	0.2055	0.0247	0.5437	35.4	31
-0.027	0.1477	0.0082	0.5355	35.3	31
-0.033	0.078	0.0015	0.33	35.8	31
-0.0233	0.0532	0.0007	0.108	35.8	31
-0.0128	0.027	-0.0015	-0.0548	35.8	31
-0.0068	-0.0346	-0.003	-0.0975	35.9	31
-0.003	-0.0436	-0.0053	-0.1268	36	31
-0.0008	-0.063	-0.0091	-0.1553	36	31
0	-0.0758	-0.0091	-0.165	36.1	31
0.0007	-0.0721	-0.0091	-0.1778	36.5	31
0.0015	-0.075	-0.0091	-0.1741	36.3	31
0.003	-0.0653	-0.0075	-0.1733	36.9	31
0.006	-0.0683	-0.0091	-0.162	36.8	31
0.0067	-0.0735	-0.0098	-0.1778	37	31
0.0105	-0.0878	-0.0105	-0.2535	37	31
0.0105	-0.1028	-0.0113	-0.3833	36.9	31
0.0127	-0.1118	-0.012	-0.4943	37.4	31
0.0142	-0.108	-0.012	-0.5288	37.2	31
0.0127	-0.1125	-0.0091	-0.4665	37.6	31
0.0157	-0.1103	-0.006	-0.2761	37.8	31
0.0187	-0.0188	0.0045	-0.0555	38.2	31
0.0165	0.114	0.0112	0.2437	38.3	31
-0.003	0.1582	0.0045	0.72	38.5	31
-0.0263	0.1387	-0.0038	0.9675	38.8	31
-0.0293	0.2295	0.006	0.7035	38.3	31
-0.0181	0.3232	0.0202	0.3142	38.9	31
-0.0128	0.1695	0.0165	0.1065	38.8	31
-0.0105	0.0052	0.0075	-0.003	39	31
-0.0075	-0.0128	0.0015	-0.0503	39.4	31
-0.0053	-0.0713	-0.0046	-0.0975	39.1	31
-0.0038	-0.0803	-0.0046	-0.1305	39.5	31
-0.0008	-0.078	-0.0046	-0.1373	39.4	31
0.0007	-0.0893	-0.003	-0.1418	39.8	31
0.0015	-0.0691	-0.0023	-0.1275	39.7	31
0.003	-0.0788	-0.003	-0.1305	39.9	31
0.003	-0.063	-0.003	-0.1178	40.1	31
0.0015	-0.0585	-0.0046	-0.1118	40.2	31
0.0022	-0.0488	-0.0015	-0.0975	40.6	31
0.0037	-0.0368	0	-0.0825	40.5	31
0.003	-0.0308	-0.0008	-0.0721	40.9	31
0.0045	-0.0158	0	-0.057	40.8	31
0.003	-0.0135	0.0007	-0.0518	41.1	31
0.003	-0.003	0	-0.0458	41.2	31
0.0037	-0.0008	-0.0008	-0.0458	41.4	31
0.003	0.0045	0.0015	-0.0413	41.6	31
0.0067	0.0052	0.0015	-0.0405	41.4	31
0.0052	0.0067	0.0015	-0.0308	41.9	31
0.0052	0.0127	0.0037	-0.0233	41.8	31
0.006	0.0112	0.0045	-0.0083	41.9	31
0.003	0.0127	0.0015	0.009	42.3	31
0.0015	0.0105	0.003	-0.0256	42.3	31
0.0015	0.006	0.0015	-0.0863	42.4	31
0.003	-0.0008	0.0007	-0.093	42.6	31
0.003	-0.006	0.0022	-0.0555	42.8	31
0.003	-0.0105	0.003	-0.027	42.9	31
0.003	-0.0015	0.003	0.021	43.1	31
-0.0015	0.0157	0.0022	0.1342	43.4	31
-0.0083	0.0135	0.0015	0.2445	43.3	31
-0.0083	0.003	0	0.2797	43.8	31
-0.0098	0.0172	0.0015	0.2295	43.6	31
-0.0068	0.0405	0.0052	0.1327	44.1	31
-0.0053	0.054	0.0045	0.078	44.1	31
-0.0046	0.0427	0.0022	0.0322	44.2	31
-0.0008	0.0105	-0.0008	0.0007	44.4	31
-0.0015	0.0067	0.0007	-0.0165	44.3	31
0.0007	0.0022	0.0007	-0.0278	44.6	31
0.0015	-0.0038	0.0015	-0.024	44.9	31
-0.0008	-0.0015	0.0015	-0.0285	44.8	31
0	-0.0083	0	-0.027	45.1	31
-0.0008	-0.0053	0.0007	-0.0375	45.4	31
-0.0008	-0.0113	-0.0015	-0.0458	45.5	31
0.0007	-0.0181	0	-0.0555	45.3	31
0.003	-0.0285	-0.0023	-0.084	45.9	31
0.003	-0.048	-0.0023	-0.1628	45.8	31
0.003	-0.0638	-0.0046	-0.2738	45.8	31
0.0037	-0.0788	-0.0053	-0.3368	46.2	31
0.0052	-0.078	-0.0046	-0.3285	46.1	31
0.006	-0.0615	-0.0038	-0.3045	46.4	31
0.012	-0.03	0.0022	-0.2595	46.5	31
0.0075	0.0277	0.0037	-0.0218	46.7	31
-0.0083	0.0907	0	0.3547	47.1	31
-0.0173	0.0892	0.0022	0.5685	46.9	31
-0.0113	0.0592	0.0082	0.5182	47.5	31
-0.003	0.0562	0.0112	0.3802	47.3	31
0	0.087	0.0127	0.2707	47.6	31
0.0052	0.1402	0.0127	0.2152	47.6	31
0.0015	0.147	0.0105	0.2452	47.8	31
-0.0068	0.0675	0	0.261	48	31
-0.0105	-0.0068	-0.0075	0.1875	48	31
-0.0091	-0.0098	-0.0068	0.0367	48.2	31
-0.0023	-0.039	-0.0023	-0.0728	48.3	31
0	-0.0458	-0.003	-0.1065	48.5	31
-0.0008	-0.0398	-0.003	-0.1223	48.6	31
-0.0008	-0.0578	-0.0046	-0.1253	48.6	31
0	-0.0548	-0.006	-0.135	49	31
0.0007	-0.0638	-0.0068	-0.1493	48.7	31
0.0015	-0.0593	-0.0083	-0.1748	49.3	31
0.003	-0.0578	-0.0068	-0.2018	49.1	31
0.0052	-0.0533	-0.0091	-0.2363	49.3	31
0.0067	-0.0458	-0.0083	-0.252	49.6	31
0.0067	-0.0555	-0.0068	-0.2438	49.6	31
0.009	-0.0615	-0.0053	-0.258	49.8	31
0.0097	-0.0593	-0.0046	-0.2806	49.9	31
0.0045	-0.045	-0.0068	-0.27	50.1	31
0.0007	-0.024	-0.006	-0.183	50	31
0.0015	-0.0015	-0.0015	-0.0428	50.4	31
0.0015	0.0255	0.0045	0.057	50.7	31
-0.0038	0.1027	0.0045	0.2295	50.7	31
-0.0143	0.1657	0.003	0.5835	51.2	31
-0.0173	0.111	0.003	0.7605	51	31
-0.0165	0.042	-0.003	0.531	51.4	31
-0.0113	0.0277	-0.0008	0.2287	51.3	31
-0.0023	0.006	0.0015	0.084	51.3	31
-0.0015	-0.0105	0.0007	-0.012	51.8	31
0.0007	-0.03	0.0015	-0.0405	51.6	31
0.0015	-0.0525	-0.0008	-0.0803	51.8	31
0.0022	-0.0615	-0.0008	-0.1478	52.1	31
0.003	-0.0713	-0.0023	-0.1935	52.2	31
0.003	-0.06	-0.0038	-0.2175	52.1	31
0.0052	-0.0293	-0.0038	-0.1973	52.2	31
0.0067	0.0067	-0.0015	-0.1973	52.4	31
0.0037	0.0352	-0.003	-0.1275	52.4	31
-0.0008	0.0277	-0.0053	-0.012	53.1	31
-0.0015	0.018	-0.003	0.0802	52.9	31
-0.0015	0.0202	-0.0015	0.1305	53.1	31
-0.003	0.015	0.0007	0.1192	53.3	31
-0.0008	0.012	0.0015	0.0585	53.1	31
0.0007	0.0067	-0.0008	0.0082	53.6	31
0.0045	0.0052	-0.0008	-0.0218	53.3	31
0.0037	0.003	-0.0023	-0.0683	53.6	31
0.0015	0.0037	-0.0023	-0.0878	53.9	31
0.0045	0.0015	-0.003	-0.099	54	31
0.0045	-0.0083	-0.003	-0.1125	54.2	31
0.0045	-0.012	-0.0046	-0.132	54.1	31
0.0037	-0.0158	-0.0053	-0.1118	54.3	31
0.0007	-0.0233	-0.0046	-0.0691	54.2	31
-0.0008	-0.0511	-0.0083	-0.0825	54.8	31
0.0007	-0.0743	-0.006	-0.1448	54.5	31
0.0015	-0.0668	-0.0038	-0.21	54.7	31
-0.0015	-0.0495	-0.0068	-0.2041	55	31
-0.0053	-0.039	-0.0053	-0.1358	55	31
-0.0015	-0.0256	0.0015	-0.0908	55.5	31
0.0007	0.0412	0.012	0.0045	55.3	31
-0.0053	0.1297	0.012	0.273	55.7	31
-0.0165	0.1117	0.0067	0.5827	56	31
-0.0188	0.0645	0.0052	0.6547	55.9	31
-0.012	0.075	0.009	0.459	56.1	31
-0.003	0.0405	0.009	0.2625	56.2	31
0.0015	0.0142	0.0067	0.1162	56.2	31
0.0037	0.0037	0.0052	0.0172	56.5	31
0.0052	-0.012	0.0052	-0.0203	56.7	31
0.0037	-0.0105	0.0045	-0.0593	56.5	31
0.0022	-0.0195	0.0052	-0.0698	56.7	31
0.0037	-0.0158	0.006	-0.0878	57.1	31
0.0045	-0.0181	0.0045	-0.0923	56.8	31
0.0037	-0.0225	0.0015	-0.1013	57.4	31
0.0045	-0.0218	0.0007	-0.1118	57.2	31
0.0045	-0.024	0.0007	-0.1073	57.3	31
0.003	-0.0248	0	-0.1103	57.7	31
0.0045	-0.0338	0	-0.1268	57.4	31
0.0052	-0.0338	0.0007	-0.1785	57.7	31
0.0082	-0.0278	0.0007	-0.2273	57.8	31
0.009	-0.024	-0.003	-0.216	57.8	31
0.0105	-0.03	-0.0015	-0.2033	57.9	31
0.0157	-0.039	0.0022	-0.297	58.2	31
0.0195	-0.0405	0.0045	-0.3855	58.4	31
0.0135	-0.039	0	-0.306	58.4	31
-0.0008	-0.0338	-0.0105	-0.0803	58.9	31
-0.0091	-0.0218	-0.012	0.0652	58.5	31
-0.0053	0.0307	-0.0038	0.0525	59	31
-0.0053	0.1185	-0.0023	0.081	59.4	31
-0.015	0.1725	-0.003	0.312	59.4	31
-0.024	0.1822	-0.0008	0.6787	59.8	31
-0.0308	0.1417	0.003	0.8212	59.7	31
-0.0293	0.054	0.012	0.6075	59.8	31
-0.0181	0.0292	0.015	0.4327	59.8	31
-0.012	-0.0128	0.009	0.2872	59.8	31
-0.0083	-0.09	0.0015	0.057	60.3	31
-0.0068	-0.0758	-0.0046	-0.0338	60	31
-0.0038	-0.0758	-0.003	-0.1065	60.1	31
0.0015	-0.06	-0.0023	-0.147	60.3	31
0.0052	-0.039	-0.003	-0.1441	60.3	31
0.006	-0.048	-0.0023	-0.1703	60.3	31
0.0067	-0.0368	-0.0046	-0.162	60.7	31
0.0067	-0.045	-0.0053	-0.1628	60.9	31
0.0067	-0.0315	-0.0038	-0.147	60.6	31
0.0067	-0.0218	-0.003	-0.1343	61.2	31
0.0082	-0.0143	-0.0015	-0.1185	61.1	31
0.009	-0.006	-0.0008	-0.1013	61.1	31
0.009	-0.0083	-0.0023	-0.0938	61.6	31
0.009	-0.0068	-0.0038	-0.1013	61.3	31
0.0082	-0.0128	-0.003	-0.129	61.8	31
0.0067	-0.003	-0.003	-0.1628	61.4	31
0.0075	0.0037	-0.0015	-0.198	61.6	31
0.0067	0.0045	-0.0008	-0.2048	62	31
0.006	0.0015	-0.0015	-0.18	62	31
0.0045	0.0082	-0.0015	-0.081	62.3	31
-0.0023	0.0135	-0.0046	0.0765	62.3	31
-0.0105	0	-0.0083	0.2175	62.5	31
-0.0128	-0.0083	-0.0105	0.282	62.5	31
-0.0083	-0.003	-0.0068	0.1935	62.6	31
-0.0046	0.0135	-0.0068	0.0352	62.8	31
-0.0068	0.0315	-0.0083	-0.0158	62.7	31
-0.0068	0.0052	-0.0068	-0.0308	63.1	31
-0.0068	-0.0293	-0.0075	-0.0308	62.8	31
-0.0046	-0.024	-0.003	-0.0105	63.5	31
-0.0008	-0.0218	-0.0008	-0.0308	63.3	31
0.0007	-0.0075	0.0015	-0.0203	63.3	31
0.0045	0.0007	0.003	-0.0181	63.6	31
0.0075	0.0022	0.003	-0.0083	63.4	31
0.009	0.0165	0.0037	0.0142	63.9	31
0.0097	0.0202	0.0067	0.0285	63.9	31
0.009	0.0255	0.009	0.0382	63.8	31
0.009	0.0292	0.0075	0.0375	64.1	31
0.0067	0.0382	0.0082	0.0435	64.1	31
0.006	0.036	0.009	0.0427	64.4	31
0.0045	0.0195	0.0067	0.0495	64.3	31
0.0045	0.009	0.0067	0.042	64.7	31
0.0052	-0.0046	0.009	-0.0083	64.5	31
0.0045	-0.0158	0.0067	-0.1133	64.7	31
0.0052	-0.0256	0.0052	-0.2048	64.8	31
0.0067	-0.039	0.0045	-0.2535	64.9	31
0.0082	-0.0585	0.003	-0.3233	65.1	31
0.012	-0.0645	0.0052	-0.3683	64.9	31
0.0015	-0.042	-0.0015	-0.2881	65.5	31
-0.0091	-0.0308	-0.003	-0.1373	65.4	31
-0.0015	-0.024	-0.0008	0.0187	65.8	31
0.0022	0.0337	-0.0008	0.1507	65.7	31
-0.0083	0.147	0.003	0.1417	65.8	31
-0.021	0.1552	-0.003	0.2422	66	31
-0.0285	0.0675	0.0007	0.5505	66	31
-0.0256	0.0825	0.0142	0.6367	66.5	31
-0.0225	0.0735	0.0112	0.6307	66.4	31
-0.0218	0.0165	0.0045	0.6412	66.5	31
-0.015	0.0007	0.0015	0.4395	66.8	31
-0.0083	-0.0263	-0.0053	0.1837	66.2	31
-0.0053	-0.0443	-0.0083	-0.0143	66.9	31
-0.0023	-0.0578	-0.0068	-0.1298	66.6	31
0.0007	-0.0615	-0.0046	-0.1718	66.7	31
0.0022	-0.0555	-0.0015	-0.195	67	31
0.0052	-0.0555	-0.0015	-0.2078	66.9	31
0.0052	-0.0518	-0.0023	-0.2085	67.3	31
0.0067	-0.0511	-0.003	-0.2078	67.2	31
0.0067	-0.0443	-0.0046	-0.1965	67.2	31
0.0067	-0.0315	-0.0015	-0.1748	67.5	31
0.0075	-0.024	-0.0015	-0.1553	67.5	31
0.0082	-0.0143	-0.0015	-0.1313	67.8	31
0.0082	-0.0053	0.0015	-0.1155	67.7	31
0.0082	-0.0015	0	-0.1006	68	31
0.0067	-0.0015	0	-0.0848	67.8	31
0.0045	-0.003	-0.0008	-0.0668	68.3	31
0.0045	-0.0053	-0.0008	-0.0503	68.2	31
0.0067	-0.0113	-0.0015	-0.0383	68	31
0.0082	-0.021	-0.0015	-0.0518	68.6	31
0.009	-0.0256	0.0007	-0.123	68.3	31
0.0105	-0.0263	0.0022	-0.2145	68.8	31
0.0127	-0.0248	0.003	-0.2776	68.8	31
0.0135	-0.0105	0.0052	-0.306	68.5	31
0.0067	0.0232	0.003	-0.264	69	31
-0.0083	0.06	-0.0015	-0.1396	69.2	31
-0.0233	0.0742	-0.0068	0.1725	69.3	31
-0.0248	0.0727	-0.0075	0.567	69.3	31
-0.0165	0.0555	0.0007	0.5565	69.7	31
-0.0053	0.0315	0.009	0.273	69.3	31
-0.0053	0.0315	0.006	0.1725	69.8	31
-0.0075	0.0217	0.0022	0.1515	69.8	31
-0.0053	-0.0128	-0.0008	0.0742	69.6	31
-0.0053	-0.0233	-0.003	0.0052	70.3	31
-0.003	-0.0248	-0.003	-0.033	70.1	31
-0.0015	-0.0181	-0.0015	-0.0383	70.1	31
0.0015	-0.0053	0.0007	-0.0383	70.4	31
0.0045	-0.0083	0.0015	-0.0361	70.2	31
0.0052	-0.0083	0.0037	-0.0368	70.5	31
0.0067	-0.0091	0.0015	-0.0361	70.5	31
0.006	-0.0046	0.003	-0.027	70.7	31
0.003	-0.0015	0.0045	-0.0203	70.6	31
0.003	-0.003	0.0015	-0.0195	71	31
0.0045	-0.003	0.003	-0.0218	70.9	31
0.0052	-0.0046	0.0037	-0.0293	70.9	31
0.0052	-0.0046	0.0045	-0.0428	71.3	31
0.0045	-0.0075	0.003	-0.0495	71.1	31
0.0052	-0.015	0.0007	-0.0713	71.5	31
0.0037	-0.0256	0.0007	-0.0953	71.8	31
0.006	-0.0346	-0.0008	-0.1118	71.4	31
0.0052	-0.048	-0.003	-0.1553	71.9	31
0.0052	-0.063	0	-0.2228	71.5	31
0.0075	-0.0608	-0.0015	-0.27	71.8	31
0.0007	-0.0346	-0.0083	-0.2153	71.7	31
-0.0053	0.0045	-0.0091	-0.066	72	31
-0.0113	0.0412	-0.0083	0.1065	72.2	31
-0.0225	0.0952	-0.006	0.2535	72.3	31
-0.0285	0.1177	-0.0046	0.411	72.4	31
-0.0233	0.0765	-0.003	0.5385	72.5	31
-0.012	0.0652	0.0015	0.4845	72.5	31
-0.006	0.0435	0.003	0.2272	72.4	31
-0.0008	-0.0091	0.0045	0.0277	72.6	31
0.0037	-0.0053	0.003	0	72.8	31
0.003	-0.0083	0.0015	-0.045	72.7	31
0.0045	-0.0135	0.0022	-0.0495	73	31
0.0067	-0.0105	0.0022	-0.0525	72.6	31
0.0067	-0.0158	0.0015	-0.0578	72.9	31
0.006	-0.0128	0.003	-0.0525	73.1	31
0.0052	-0.0181	0.0015	-0.0683	73	31
0.0045	-0.0143	0	-0.0615	73.5	31
0.0022	-0.0165	-0.0008	-0.0721	73	31
0.0015	-0.0181	-0.0015	-0.0698	73.3	31
0.0015	-0.0181	-0.0008	-0.078	73.4	31
0.003	-0.024	-0.003	-0.0788	73.4	31
0	-0.0256	-0.0053	-0.0795	73.5	31
-0.0008	-0.0315	-0.0053	-0.075	73.7	31
0	-0.033	-0.0083	-0.057	73.9	31
-0.0008	-0.0368	-0.0098	-0.0383	73.6	31
0.003	-0.0383	-0.0098	-0.039	74.1	31
0.0067	-0.0361	-0.0083	-0.1028	73.8	31
0.0105	-0.027	-0.0068	-0.219	73.9	31
0.015	-0.0046	-0.0023	-0.3548	74.1	31
0.0165	0.0165	0.0022	-0.387	73.8	31
0.0127	0.027	0.0022	-0.2783	74.4	31
0.0015	0.03	-0.0015	-0.0691	74.3	31
-0.0135	0.027	-0.006	0.1822	74.7	31
-0.0173	0.0495	-0.0053	0.474	74.8	31
-0.0143	0.072	-0.003	0.6877	74.8	31
-0.0105	0.0457	0.0037	0.5115	74.7	31
-0.003	0.0307	0.003	0.216	74.7	31
-0.0046	0.027	0	0.1012	74.8	31
-0.0046	0.009	0	0.0487	74.8	31
-0.0046	0.0022	-0.003	0.021	75	31
-0.0046	-0.0091	-0.003	0.0045	75.1	31
-0.0023	-0.0098	-0.0015	0.0165	75	31
-0.0008	-0.012	-0.0015	0.018	75.4	31
0.0015	-0.0188	-0.0015	-0.0173	75.2	31
0.0007	-0.0315	-0.0015	-0.0578	75.4	31
0.0015	-0.0413	-0.0015	-0.1163	75.5	31
0.003	-0.0346	-0.0015	-0.1726	75.4	31
0.0067	-0.0338	-0.0008	-0.2153	75.6	31
0.0097	-0.024	0.0007	-0.255	75.4	31
0.0045	-0.0023	-0.0008	-0.2565	75.6	31
-0.003	0.0142	-0.0053	-0.1726	76	31
-0.0053	0.0037	-0.006	-0.0233	75.7	31
-0.0075	0.0045	-0.0068	0.087	75.9	31
-0.0105	0.0165	-0.0083	0.084	76.2	31
-0.0098	0.0105	-0.0068	0.0915	76	31
-0.0068	0.0045	-0.0083	0.207	76.1	31
-0.0015	0.0022	-0.0046	0.249	76.4	31
0.0015	-0.003	0.0007	0.147	76	31
0.003	-0.0233	0.0007	0.0562	76.5	31
0.0052	-0.039	0.003	-0.0068	76.2	31
0.0067	-0.0323	0.0015	-0.1515	76.3	31
0.0105	-0.0181	0.003	-0.3068	76.4	31
0.0097	-0.0046	0.0067	-0.375	76.3	31
0.0067	0.0135	0.006	-0.3645	76.5	31
0.0015	0.0442	0.0037	-0.2085	76.6	31
-0.012	0.0457	-0.0015	0.1027	76.7	31
-0.0165	0.0187	-0.0008	0.3442	77.1	31
-0.0105	0.0097	0.0045	0.3982	76.8	31
-0.006	0.0082	0.0052	0.3412	76.9	31
-0.0046	0.0007	0.003	0.207	76.9	31
-0.003	-0.0053	0.0015	0.0457	77.1	31
-0.0008	-0.0165	-0.0008	-0.033	77	31
0	-0.0293	-0.0023	-0.0353	77.3	31
0.003	-0.0361	-0.0015	-0.027	77.1	31
0.012	-0.042	0	0.0007	77.1	31
0.0195	-0.0675	0.003	-0.0691	77.3	31
0.024	-0.1006	0.0045	-0.2475	77.1	31
0.0292	-0.1058	0.0045	-0.5153	77	31
0.0307	-0.0788	0.003	-0.786	77.2	31
0.027	-0.042	0.003	-0.8115	77	31
0.0135	-0.0068	0.0022	-0.6075	77.6	31
-0.0158	0.0675	-0.0075	-0.237	77.3	31
-0.0353	0.1477	-0.0091	0.3487	77.7	31
-0.0346	0.1372	-0.003	0.966	78.1	31
-0.0256	0.1252	0.0112	1.2045	77.9	31
-0.0188	0.1972	0.0262	1.1242	78	31
-0.024	0.1815	0.0255	0.7815	77.9	31
-0.0188	0.0697	0.0255	0.4162	78	31
-0.0083	0.0495	0.0232	0.207	77.7	31
-0.0046	0.0247	0.0202	0.0142	77.8	31
-0.0008	-0.015	0.0157	-0.0443	78	31
-0.0008	-0.0143	0.009	-0.1455	77.7	31
0.003	-0.054	0.0045	-0.1875	78.1	31
0.0045	-0.0615	0.0022	-0.2085	77.7	31
0.0037	-0.0608	-0.0015	-0.231	78	31
0.0045	-0.063	-0.003	-0.2138	77.9	31
0.003	-0.0585	-0.0008	-0.2295	78	31
0.0015	-0.0653	-0.0053	-0.2041	78.2	31
0.0007	-0.0555	-0.0068	-0.2003	78	31
0.0007	-0.0555	-0.0068	-0.1748	78.4	31
0.0022	-0.0436	-0.0053	-0.1635	78.3	31
0.0037	-0.0375	-0.0046	-0.1388	78.2	31
0.0037	-0.0293	-0.0023	-0.1163	78.2	31
0.0037	-0.0188	-0.0008	-0.1006	78.6	31
0.003	-0.0173	-0.0015	-0.0765	78.5	31
0.0045	-0.0091	-0.0015	-0.0653	78.4	31
0.0045	-0.0053	-0.0008	-0.0428	78.6	31
0.0052	-0.0008	0	-0.0346	78.4	31
0.0045	-0.0015	-0.0015	-0.0158	78.7	31
0.0022	-0.0068	-0.0015	0.0037	78.5	31
0.003	-0.0158	-0.0008	0.0285	78.9	31
0.0015	-0.0308	-0.003	0.0202	78.8	31
0.0022	-0.042	-0.0046	-0.0555	78.5	31
0.0045	-0.0428	-0.0046	-0.1635	78.9	31
0.0097	-0.0405	-0.0046	-0.2385	78.7	31
0.012	-0.0368	-0.003	-0.2715	78.7	31
0.0007	-0.0075	-0.0075	-0.2138	78.8	31
-0.0143	0.033	-0.012	-0.1215	79	31
-0.0098	0.027	-0.0083	0.033	79.2	31
0.0045	0.0202	0.0015	0.231	79.1	31
0.0105	0.0712	0.0082	0.1102	79.2	31
-0.0015	0.114	0.0045	0.0577	79.1	31
-0.0188	0.114	0.003	0.288	79.3	31
-0.0188	0.069	0.0045	0.4777	79.4	31
-0.0113	0.039	0.0052	0.4927	79.4	31
-0.0023	0.0345	0.0067	0.3315	79.5	31
0.0007	0.0112	0.006	0.2385	79.3	31
0.0045	-0.006	0.0052	0.1102	79.4	31
0.0105	-0.0308	0.0015	-0.0218	79.2	31
0.012	-0.0511	0	-0.1381	79.2	31
0.018	-0.0668	0.003	-0.2895	79.3	31
0.024	-0.066	0.0045	-0.5033	79.3	31
0.0255	-0.0458	0.0052	-0.6885	79.3	31
0.018	-0.0233	0.003	-0.546	79.4	31
-0.0053	0.0277	-0.0083	-0.1778	79.9	31
-0.0278	0.0712	-0.0158	0.18	79.5	31
-0.0368	0.054	-0.0195	0.6757	80.1	31
-0.033	0.0405	-0.0158	1.02	80.1	31
-0.0158	0.039	-0.003	0.6075	79.9	31
-0.0046	0.0052	-0.0015	0.2077	80	31
-0.003	0.0007	0	0.0652	79.9	31
-0.0008	-0.0128	-0.003	-0.0668	80.1	31
-0.0008	-0.0285	-0.0068	-0.0555	79.9	31
0.0015	-0.0293	-0.0068	-0.0908	79.9	31
0.0045	-0.0511	-0.0083	-0.0706	80.2	31
0.0067	-0.075	-0.0068	-0.0825	80.3	31
0.0112	-0.1043	-0.0075	-0.165	80	31
0.0202	-0.1073	-0.0068	-0.3893	79.9	31
0.0247	-0.099	-0.0053	-0.6901	80	31
0.0255	-0.057	-0.003	-0.7943	80.2	31
0.0097	0.039	-0.0068	-0.6488	80.1	31
-0.0203	0.1162	-0.0135	-0.2948	80.5	31
-0.0368	0.1072	-0.015	0.261	80.4	31
-0.0338	0.0922	-0.0075	0.834	81	31
-0.0173	0.1087	0.0067	0.9165	80.7	31
-0.0046	0.0675	0.009	0.6015	80.7	31
-0.0023	0.0315	0.0105	0.2422	80.7	31
-0.0008	0.015	0.0082	0.0457	80.5	31
0	0.0067	0.0045	-0.0068	80.8	31
0.0015	-0.0015	0.0067	-0.0548	80.9	31
0.003	-0.0346	0.0045	-0.081	80.9	31
0.003	-0.0308	0.003	-0.1013	81.1	31
0.0015	-0.033	0.0007	-0.1118	81.1	31
0.003	-0.039	-0.0015	-0.123	81.2	31
0.0037	-0.0458	-0.0038	-0.1305	81.1	31
0.0015	-0.0533	-0.0046	-0.1253	81.3	31
0.0022	-0.0443	-0.0068	-0.111	81.2	31
0.003	-0.039	-0.0091	-0.093	81.7	31
0.0022	-0.0263	-0.0068	-0.0758	81.4	31
0.0045	-0.0173	-0.0046	-0.0555	81.3	31
0.0045	-0.0068	-0.0008	-0.0398	81.9	31
0.0067	0.0015	0.0037	-0.03	81.4	31
0.0105	0.009	0.0037	-0.0158	81.6	31
0.0082	0.0142	0.0045	0.024	81.9	31
0.006	0.0037	0.0075	0.0705	81.8	31
0.009	-0.0105	0.0067	0.0802	81.9	31
0.0127	-0.0278	0.0045	0.0165	81.6	31
0.0165	-0.0578	0.0022	-0.1613	81.9	31
0.0225	-0.0765	0.0007	-0.5228	81.8	31
0.0277	-0.075	0.0015	-0.8415	81.7	31
0.0217	-0.0728	-0.003	-0.7965	81.9	31
-0.0046	-0.0353	-0.012	-0.51	82.2	31
-0.0315	0.042	-0.0188	0.0577	82.4	31
-0.0405	0.0817	-0.0225	0.8865	82.6	31
-0.0383	0.1162	-0.0143	1.2067	82.9	31
-0.0233	0.1815	0.0075	0.7935	82.4	31
-0.0158	0.1672	0.0195	0.417	82.4	31
-0.0173	0.1297	0.0202	0.3952	82.8	31
-0.0158	0.1005	0.0225	0.2662	82.5	31
-0.0135	0.0345	0.0165	0.15	82.9	31
-0.0068	0.0285	0.0165	0.1807	82.7	31
-0.0008	0.003	0.0165	0.0802	82.9	31
0.0015	-0.0383	0.0052	-0.0383	83	31
0.003	-0.0548	0.0015	-0.1403	82.5	31
0.0045	-0.0653	-0.0008	-0.1598	82.8	31
0.0045	-0.0533	-0.003	-0.1688	83.1	31
0.0045	-0.0578	-0.0015	-0.1711	83.1	31
0.0052	-0.0533	-0.003	-0.1553	83	31
0.0052	-0.0518	-0.0015	-0.1448	83.3	31
0.0075	-0.054	-0.003	-0.1028	83.3	31
0.0097	-0.0623	-0.003	-0.0856	83.1	31
0.0127	-0.0758	-0.0038	-0.0915	83.5	31
0.0165	-0.0803	-0.0015	-0.1905	83	31
0.0255	-0.0893	0.0015	-0.3803	83.5	31
0.027	-0.0765	0	-0.5813	83.1	31
0.0142	-0.042	-0.003	-0.6825	83.2	31
-0.0053	0.0157	-0.0083	-0.5993	83.6	31
-0.0233	0.0615	-0.0128	-0.2048	83.5	31
-0.0346	0.0645	-0.0195	0.336	84.2	31
-0.039	0.045	-0.0181	0.621	84.1	31
-0.024	0.0457	-0.0083	0.6922	84.1	31
-0.0091	0.0562	-0.0046	0.6855	84.1	31
-0.0053	0.0652	0.006	0.4972	84.2	31
0.0052	0.0952	0.0195	0.2902	84.3	31
0.0082	0.0975	0.0202	0.126	84	31
0.0052	0.0292	0.012	-0.0091	84.4	31
0.006	-0.0143	0.0067	-0.0346	84.3	31
0.0052	-0.0128	0.0082	-0.0653	84.6	31
0.0052	-0.0143	0.0082	-0.078	84.5	31
0.0052	-0.0143	0.0045	-0.0975	84.2	31
0.0052	-0.03	0.0007	-0.1095	84.9	31
0.0052	-0.0361	0.0007	-0.1065	84.3	31
0.0045	-0.0308	0	-0.1065	84.8	31
0.0045	-0.0256	-0.0015	-0.0878	84.7	31
0.003	-0.0158	0.0007	-0.0773	84.8	31
0.003	-0.012	0.003	-0.0653	84.9	31
0.0015	-0.0113	0.0007	-0.0645	84.8	31
0.0022	-0.0143	-0.0008	-0.045	84.9	31
0.0037	-0.012	0.003	-0.0195	85	31
0.0045	-0.0158	0.0007	0.0067	85.3	31
0.0067	-0.0233	-0.0015	0	84.9	31
0.0097	-0.033	-0.0008	-0.0721	85.4	31
0.012	-0.0436	0	-0.1898	85.2	31
0.006	-0.0361	-0.0023	-0.3255	85.4	31
-0.0008	-0.0195	-0.0038	-0.3735	85.5	31
-0.0046	0.009	-0.0038	-0.2618	85.2	31
-0.0128	0.039	-0.0083	-0.054	85.9	31
-0.0233	0.0435	-0.0128	0.276	85.8	31
-0.024	0.0382	-0.012	0.5055	85.9	31
-0.0113	0.0405	-0.006	0.3495	86	31
-0.003	0.0345	-0.003	0.1777	85.7	31
0.0007	0.0165	-0.0015	0.1312	86.3	31
0.0052	0.015	0.0015	0.0727	86.3	31
0.003	0.0157	0.0007	0.042	86.1	31
0.0052	0.0112	0.0007	0.0307	86.1	31
0.0082	0.012	0.0015	0.027	86.6	31
0.0075	0.0045	0.003	0.024	86.3	31
0.009	-0.0053	0.003	0.039	86.3	31
0.009	-0.0256	0.003	0.036	86.8	31
0.0105	-0.0465	0.0022	-0.003	86.4	31
0.0127	-0.0653	0	-0.129	86.7	31
0.0127	-0.078	-0.0008	-0.3188	86.5	31
0.009	-0.063	-0.003	-0.5168	86.4	31
-0.0008	-0.042	-0.0083	-0.5701	86.8	31
-0.0083	-0.0233	-0.012	-0.3645	86.9	31
-0.0188	0.0082	-0.0158	-0.093	87.1	31
-0.0338	0.048	-0.0165	0.237	87.2	31
-0.03	0.057	-0.0053	0.6007	87.2	31
-0.0158	0.0712	0.0075	0.642	87.4	31
-0.0046	0.1027	0.0142	0.3472	87.4	31
0.0007	0.0877	0.0157	0.1725	87.4	31
0.0015	0.06	0.0157	0.1537	87.4	31
0.0022	0.0307	0.0097	0.105	87.8	31
0.003	0.0082	0.003	0.0502	87.6	31
0.003	0.0127	0.0052	0.0157	87.9	31
0.0052	0.0105	0.009	-0.003	87.7	31
0.0067	-0.0038	0.0127	-0.0353	87.8	31
0.006	-0.0203	0.009	-0.054	87.9	31
0.0045	-0.0308	0.003	-0.0728	87.8	31
0.0022	-0.0405	0.0015	-0.0833	88.3	31
0.0022	-0.0465	-0.0015	-0.0863	87.9	31
0.0015	-0.0405	-0.0015	-0.0856	88	31
0.0015	-0.0353	-0.0023	-0.081	88.4	31
0.003	-0.0368	-0.0038	-0.084	88.2	31
0.003	-0.0443	-0.0053	-0.0953	88.4	31
0.0022	-0.0443	-0.0053	-0.1193	88.5	31
0.0045	-0.042	-0.0046	-0.1178	88.5	31
0.0052	-0.0346	-0.0046	-0.1073	88.4	31
0.0007	-0.0181	-0.0053	-0.0893	88.9	31
-0.0023	-0.003	-0.0046	-0.0181	88.6	31
-0.0023	0.0165	-0.0015	0.0787	88.9	31
-0.003	0.0427	-0.0008	0.1042	89	31
-0.0023	0.0307	-0.003	0.0607	88.9	31
0.0015	0.0157	-0.0015	0.0442	89.2	31
-0.0008	0.0247	-0.0023	0.0255	89.2	31
-0.0015	0.012	-0.0008	0.0052	89.1	31
-0.0008	0.0045	-0.0008	0.0075	89.3	31
-0.0015	-0.0053	-0.0038	-0.003	89.1	31
0	-0.0181	-0.0046	-0.0046	89.5	31
0.003	-0.0278	-0.0046	-0.0105	89.3	31
0.003	-0.0436	-0.0053	-0.0375	89.4	31
0.003	-0.039	-0.006	-0.0938	89.5	31
0.006	-0.0181	-0.0046	-0.1733	89.5	31
0.0097	0.0157	-0.0023	-0.2325	89.4	31
0.0022	0.0427	-0.006	-0.1853	89.7	31
-0.0046	0.0262	-0.0068	-0.084	89.7	31
-0.0023	-0.0173	-0.0046	0.0052	89.7	31
-0.0053	-0.042	-0.0068	0.2347	90.3	31
-0.0075	-0.045	-0.0046	0.3442	89.9	31
0.0037	-0.021	0.0037	0.0787	89.9	31
0.0052	0.0292	0.006	-0.0578	90.3	31
-0.0053	0.0727	0.0015	-0.0383	89.8	31
-0.0113	0.0817	-0.0023	-0.063	90.4	31
-0.015	0.0652	-0.003	0.1275	90.1	31
-0.015	0.051	0.0007	0.336	90.4	31
-0.0068	0.0465	0.0067	0.342	90.4	31
-0.0023	0.0502	0.003	0.2085	90.2	31
-0.0023	0.0225	0.0007	0.0292	90.3	31
-0.0008	-0.006	0.0045	-0.0181	90.3	31
-0.0015	-0.0143	0.003	-0.0143	90.6	31
0.0015	-0.0225	0.003	-0.0375	90.3	31
0.0022	-0.0233	-0.0008	-0.0398	90.7	31
0.003	-0.0308	-0.0015	-0.0735	90.4	31
0.003	-0.0256	-0.0015	-0.1305	90.5	31
0.0007	-0.0285	-0.0038	-0.1733	90.8	31
-0.0015	-0.0248	-0.0046	-0.156	90.4	31
-0.0053	-0.0165	-0.006	-0.0698	91.1	31
-0.0053	-0.0181	-0.0038	0.0217	90.8	31
-0.0015	-0.0218	-0.003	0.0262	90.9	31
0	-0.0368	-0.003	-0.0188	91	31
-0.0008	-0.042	-0.003	-0.0645	90.6	31
0	-0.0458	-0.0046	-0.1118	90.9	31
0.0037	-0.042	-0.0046	-0.0856	90.8	31
0.006	-0.0346	-0.003	-0.0683	90.9	31
0.0052	-0.0015	0	-0.0473	90.9	31
0.0007	0.027	0.0045	-0.0203	90.9	31
0.0007	0.0127	0.0045	0.0337	91.3	31
0.003	0.0105	0.0022	0.102	91	31
0.0045	0.0217	0.0082	0.0765	91.2	31
0.006	0.0247	0.009	0.0735	91	31
0.0045	0.018	0.0082	0.0675	91.4	31
0.0067	0.012	0.0082	0.0472	91.1	31
0.0075	0.0015	0.0045	-0.0098	91.3	31
0.0045	-0.003	0.006	-0.081	91.4	31
0.003	0.018	0.006	-0.1073	91	31
-0.003	0.033	0.0052	-0.0818	91.6	31
-0.0083	0.0187	0.0022	0.009	91.2	31
-0.0083	-0.0023	0	0.057	91.5	31
-0.0053	-0.0091	0	0.0832	91.3	31
-0.003	-0.0091	-0.0023	0.0817	91.4	31
-0.0008	-0.0128	0	0.0652	91.5	31
0.0007	-0.0128	0.0007	0.0555	91.3	31
0.0037	-0.0113	0.0045	-0.0165	91.6	31
0.0052	-0.0113	0.0067	-0.0691	91.3	31
0.0052	-0.0091	0.0045	-0.0885	91.5	31
0.0015	-0.0173	0	-0.084	91.3	31
-0.0008	-0.0361	-0.0023	-0.03	91.3	31
0.003	-0.0443	-0.0015	0.003	91.6	31
0.0082	-0.0338	0.0007	-0.0675	91.4	31
0.0045	-0.021	-0.0023	-0.2213	91.8	31
-0.0023	-0.0346	-0.006	-0.1223	91.4	31
-0.0008	-0.033	-0.0046	0.2032	91.6	31
-0.0015	0.0157	-0.003	0.1087	91.7	31
-0.003	0.0435	-0.0015	-0.1478	91.4	31
-0.0105	0.054	-0.0015	-0.1208	91.3	31
-0.0195	0.0765	-0.003	0.0532	91.7	31
-0.0188	0.0847	-0.0046	0.282	91.8	31
-0.0105	0.0742	-0.003	0.2655	91.5	31
-0.006	0.0465	-0.0008	0.1582	91.7	31
-0.0053	0.0165	0.0015	0.0727	91.5	31
-0.0053	0.0007	0.003	0.0052	91.5	31
-0.0023	-0.0135	0.0045	-0.0083	91.6	31
0.0015	-0.0278	0.0067	-0.0278	91.3	31
0.0067	-0.0233	0.0045	0.0367	91.7	31
0.0112	-0.0315	0.0045	0.0765	91.4	31
0.015	-0.06	0.003	0.075	91.4	31
0.0202	-0.0908	0.0045	-0.1178	91.4	31
0.0337	-0.1043	0.0082	-0.4388	91.1	31
0.0382	-0.0765	0.0022	-0.591	91.3	31
0.0195	-0.0338	-0.0083	-0.6705	91.3	31
0.0015	-0.0128	-0.0203	-0.5318	91.3	31
-0.0135	-0.0105	-0.0278	0.078	91.6	31
-0.0308	0.018	-0.0195	0.54	91.8	31
-0.0218	0.06	-0.003	0.681	91.7	31
-0.0188	0.1087	0.0067	0.7095	91.6	31
-0.021	0.1597	0.012	0.4755	91.8	31
-0.0105	0.1477	0.0127	0.1822	91.1	31
-0.0098	0.0862	0.0157	0.099	91.8	31
-0.0068	0.063	0.0165	0.105	91.4	31
-0.0053	0.0592	0.0127	0.0465	91.3	31
-0.0046	0.033	0.009	0.0397	91.5	31
-0.0015	-0.0015	0.0045	-0.0368	91.2	31
-0.003	-0.0256	-0.0008	-0.0893	91.3	31
-0.0008	-0.0465	-0.0015	-0.1163	91.6	31
0.0015	-0.0615	-0.0008	-0.1328	91	31
0.0007	-0.0668	-0.0046	-0.1238	91.2	31
0.003	-0.0863	-0.0098	-0.129	91.3	31
0.0067	-0.1043	-0.012	-0.084	91.2	31
0.0082	-0.1125	-0.0143	-0.078	91.3	31
0.0127	-0.1118	-0.0128	-0.1103	91.3	31
0.021	-0.0998	-0.0105	-0.2588	90.9	31
0.027	-0.0728	-0.0083	-0.465	91.2	31
0.0202	-0.027	-0.0105	-0.5363	90.8	31
0.0007	-0.0008	-0.0158	-0.4163	91.2	31
-0.0165	0.0075	-0.0188	-0.231	91.2	31
-0.0173	0.0067	-0.0128	0.0952	91.1	31
-0.0128	0.0457	-0.0068	0.4057	91.3	31
-0.0143	0.1027	0	0.3817	91.3	31
-0.0143	0.0907	0.003	0.4087	91.1	31
-0.012	0.0682	0.0097	0.3967	91.3	31
-0.003	0.0645	0.021	0.2685	90.9	31
-0.0023	0.054	0.0142	0.2025	91	31
-0.003	0.0345	0.012	0.1125	90.9	31
0.003	0.0082	0.0127	0.0712	91	31
0.0037	0.0067	0.0112	0.0135	90.7	31
0.0045	0.0052	0.0105	-0.0181	91	31
0.006	-0.003	0.0082	-0.0375	90.8	31
0.0082	-0.006	0.0037	-0.0518	90.7	31
0.0082	-0.0233	0.0007	-0.0353	90.9	31
0.0097	-0.048	-0.0015	-0.003	90.6	31
0.0127	-0.0713	-0.0015	0.0232	90.7	31
0.018	-0.1021	0.0015	-0.0346	90.9	31
0.0315	-0.1268	0.0045	-0.255	90.4	31
0.0405	-0.126	0.0082	-0.6045	90.9	31
0.03	-0.084	0	-0.7396	90.4	31
-0.003	0.0277	-0.0135	-0.5828	90.6	31
-0.0308	0.1222	-0.0256	-0.1215	90.7	31
-0.042	0.129	-0.027	0.5775	90.8	31
-0.0383	0.1282	-0.0083	0.9165	91	31
-0.0188	0.117	0.0105	0.6352	90.7	31
-0.012	0.0832	0.018	0.2587	90.6	31
-0.0105	0.0607	0.0202	0.1365	90.5	31
-0.0091	0.024	0.0142	0.0217	90.5	31
-0.0083	-0.0075	0.0105	-0.0488	90.5	31
-0.0053	-0.0248	0.0052	-0.0923	90.3	31
-0.0075	-0.039	-0.0008	-0.1418	90.6	31
-0.0053	-0.0346	-0.0008	-0.1343	90.3	31
-0.0038	-0.0368	-0.003	-0.1575	90.9	31
-0.003	-0.0578	-0.0083	-0.153	90.3	31
0.0007	-0.0758	-0.0098	-0.1418	90.6	31
0.0037	-0.0683	-0.0091	-0.1028	90.6	31
0.0067	-0.057	-0.0068	-0.0495	90.4	31
0.0135	-0.0488	-0.003	0.0307	90.6	31
0.0225	-0.039	0.003	0.1267	90.7	31
0.027	-0.0405	0.0112	0.0855	90.5	31
0.0352	-0.054	0.0172	-0.2168	90.4	31
0.042	-0.0691	0.0172	-0.5753	90.3	31
0.03	-0.0375	0.0082	-0.66	90.4	31
-0.0105	0.024	-0.0083	-0.5078	90.6	31
-0.0308	0.033	-0.0203	0.0795	90.9	31
-0.0278	0.0465	-0.0195	0.7522	90.8	31
-0.0218	0.1177	-0.003	0.7267	91	31
-0.0135	0.135	0.012	0.4402	90.7	31
-0.0158	0.1125	0.0202	0.2557	90.8	31
-0.0083	0.108	0.0255	0.1515	90.8	31
-0.0068	0.0855	0.0232	0.1537	90.5	31
-0.0075	0.0585	0.021	0.0952	91.1	31
-0.003	0.012	0.0082	0.0457	90.6	31
-0.0038	-0.0053	0.0007	0.0015	90.6	31
0.0007	-0.0046	0.0015	-0.0181	90.7	31
0.0007	-0.0278	-0.0015	-0.0465	90.9	31
0.0015	-0.0488	-0.0053	-0.0728	90.8	31
0.003	-0.0795	-0.0091	-0.0765	90.7	31
0.0082	-0.0818	-0.0068	-0.108	90.9	31
0.0172	-0.078	-0.0083	-0.0923	90.7	31
0.0172	-0.0683	-0.012	-0.0615	91	31
0.0165	-0.0593	-0.0098	-0.0638	90.7	31
0.0232	-0.0908	-0.0091	-0.1418	91	31
0.0255	-0.1238	-0.0091	-0.3143	90.9	31
0.018	-0.1298	-0.0135	-0.486	90.7	31
-0.003	-0.0975	-0.0203	-0.5438	91.2	31
-0.0173	-0.0368	-0.024	-0.3315	90.9	31
-0.024	0.027	-0.0218	0.2137	91.4	31
-0.0248	0.114	-0.0165	0.498	91.3	31
-0.024	0.2107	-0.012	0.4755	91.2	31
-0.0248	0.2212	-0.003	0.4065	91.3	31
-0.0158	0.1725	0.0075	0.2745	91.3	31
-0.0128	0.1335	0.0105	0.231	91	31
-0.0075	0.0562	0.0037	0.1095	91.1	31
-0.0053	0.0015	-0.0053	0.0217	91.4	31
-0.0075	0.0105	-0.0098	-0.0383	91	31
-0.003	0.0082	-0.0083	-0.0691	91.3	31
-0.0008	-0.0135	-0.006	-0.0856	91.5	31
0.003	-0.0593	-0.0068	-0.1163	91.3	31
0.0045	-0.0938	-0.0023	-0.0878	91.6	31
0.0105	-0.063	0.0007	-0.0833	91.2	31
0.012	-0.0495	-0.0015	-0.0653	91.6	31
0.0105	-0.0495	-0.0008	-0.0608	91.5	31
0.0105	-0.0368	0.0015	-0.0405	91.8	31
0.0082	-0.0315	0.0045	-0.0278	91.8	31
0.009	-0.0233	0.0052	-0.0143	91.8	31
0.0067	-0.0218	0.0045	-0.0046	91.9	31
0.0052	-0.012	0.003	-0.0083	92	31
0.0015	-0.0105	0.0045	-0.0105	91.9	31
0.0022	-0.0128	0.0067	-0.024	91.8	31
0.0015	-0.0143	0.0045	-0.0256	92.2	31
0	-0.0203	0.0015	-0.0315	92.1	31
0	-0.0225	0.0007	-0.0375	91.9	31
-0.0015	-0.0256	-0.0023	-0.0511	92.4	31
-0.0015	-0.0195	-0.0015	-0.054	92.1	31
-0.003	-0.0105	-0.0023	-0.0495	92.6	31
-0.0046	-0.0053	-0.0008	-0.0518	92.3	31
-0.0015	-0.0015	0.0015	-0.0323	92.3	31
-0.0008	0.0022	0.0045	0.0052	92.6	31
0.0015	0.009	0.0082	0.0427	92.5	31
0.0015	0.0142	0.0075	0.0667	92.6	31
0.0007	0.0217	0.0075	0.057	92.8	31
0.003	0.0217	0.006	0.057	92.7	31
0.0007	0.021	0.0045	0.075	93.1	31
0.0037	0.0277	0.0067	0.081	92.9	31
0.0052	0.0262	0.0067	0.0825	93.1	31
0.0052	0.0135	0.0052	0.0817	92.8	31
0.0067	0.0022	0.0067	0.0742	93.5	31
0.009	-0.0068	0.0082	0.0067	92.9	31
0.0097	-0.0165	0.0075	-0.135	93.3	31
0.0052	-0.0195	0.0052	-0.246	93	31
-0.0053	-0.003	0.0015	-0.2633	93.2	31
-0.0158	0.0202	-0.0008	-0.1711	93.5	31
-0.0165	0.0157	-0.003	0.0907	93.5	31
-0.0143	-0.0053	-0.0038	0.3757	93.6	31
-0.0091	-0.0046	-0.0038	0.3277	93.6	31
-0.0023	0.0075	-0.0023	0.135	93.5	31
-0.0038	0.0157	-0.0015	0.0577	93.7	31
-0.003	0.0195	-0.0038	-0.0046	94	31
-0.003	0.0127	-0.0038	-0.0256	93.8	31
-0.003	0.009	-0.0038	-0.0555	93.8	31
-0.0023	0.0187	-0.0015	-0.0728	94.1	31
-0.0046	0.0195	-0.003	-0.078	93.9	31
-0.0068	-0.0105	-0.0105	-0.0668	94.2	31
-0.0068	-0.0338	-0.0128	-0.0585	94.2	31
-0.0053	-0.021	-0.0083	-0.1035	94.1	31
-0.0015	-0.0195	-0.0015	-0.1411	94.3	31
0.003	-0.0346	0.0022	-0.1688	94.1	31
0.0015	-0.0293	0.0015	-0.1305	94.4	31
0.0015	-0.0158	0.003	-0.0818	94.5	31
0.0045	-0.0091	0.0015	0.042	94.5	31
0.0052	0.0037	0.0045	0.1845	94.9	31
0.009	0.0165	0.009	0.1717	94.6	31
0.0067	0.012	0.0097	0.1455	94.9	31
0.0045	0.0105	0.012	0.1162	94.8	31
0.0045	0.0052	0.0075	0.054	95.1	31
0.0052	-0.0008	0.0037	0.0322	95	31
0.0037	0.0007	0.0052	0.0217	95.1	31
0.003	0.0037	0.0067	0.0112	95.3	31
0.0045	0.0052	0.006	0.0097	95.1	31
0.003	0.003	0.0045	0.0082	95.3	31
0.0045	-0.0023	0.0022	0.0165	95.2	31
0.0045	-0.0135	0	0.0052	95.4	31
0.0045	-0.027	-0.0015	-0.054	95.5	31
0.0067	-0.045	-0.003	-0.1823	95.5	31
0.0067	-0.0525	-0.0046	-0.2776	95.8	31
0.0015	-0.0368	-0.0068	-0.2633	95.3	31
-0.0083	-0.0173	-0.0083	-0.1635	95.8	31
-0.0128	0.0015	-0.006	0.0967	95.8	31
-0.0135	0.033	-0.003	0.3022	96	31
-0.0105	0.0405	-0.0008	0.2272	95.8	31
-0.0083	0.0225	0.003	0.0967	95.9	31
-0.006	0.0067	0.006	0.0487	96	31
-0.0015	-0.012	0.0015	0.0457	95.8	31
0.0007	-0.0195	-0.0015	0.0645	96.3	31
0.0052	-0.0225	-0.0023	0.0667	96.1	31
0.0067	-0.0203	-0.0015	0.0375	96.1	31
0.0127	-0.0195	0.0007	-0.0728	96.3	31
0.0165	-0.0128	-0.0015	-0.1943	96.1	31
0.0082	0.036	-0.0008	-0.216	96.4	31
-0.0015	0.081	-0.0015	-0.1928	96.2	31
-0.0128	0.0975	-0.0053	-0.0548	96.4	31
-0.0195	0.075	-0.0075	0.1725	96.5	31
-0.0128	0.0345	-0.0068	0.192	96.5	31
-0.0068	0.0352	-0.0046	0.081	96.9	31
-0.0053	0.0225	-0.0068	0.0142	96.5	31
-0.0046	-0.0075	-0.006	-0.0098	96.5	31
-0.0038	-0.0308	-0.003	0.0007	96.8	31
-0.0038	-0.0436	0.0022	0.0045	96.8	31
-0.003	-0.033	0.0037	0.0097	96.8	31
-0.0008	-0.0248	-0.0015	-0.0053	96.8	31
-0.0008	-0.0308	-0.003	-0.0195	97	31
-0.0008	-0.0405	-0.0046	-0.0233	96.6	31
-0.0015	-0.0315	-0.0053	-0.0165	97	31
0.0015	-0.0173	-0.0046	-0.0068	96.9	31
0.0052	-0.0038	-0.0008	-0.0075	96.9	31
0.006	0.0007	0.0007	-0.0053	97.2	31
0.006	0	-0.0015	-0.003	96.8	31
0.0067	0.0007	0.0007	-0.0015	97.2	31
0.0067	-0.0046	0	0.0007	96.7	31
0.003	-0.0015	-0.0008	0.0067	97.1	31
0.003	0.0007	-0.0015	0.009	97.1	31
0.003	0.0007	-0.0015	0.0052	97.3	31
0.0007	0.0045	0	-0.0053	97.4	31
0.0007	0.0052	0	-0.0083	97.1	31
0.0007	0.0037	0.0015	-0.0053	97.5	31
-0.0008	0.0045	-0.0008	-0.0098	97.2	31
0.0007	0	-0.0008	-0.0128	97.5	31
0.0007	-0.0091	-0.0015	-0.0135	97.2	31
0.0007	-0.0113	-0.0015	-0.012	97.3	31
0.0015	-0.0143	0.0007	-0.012	97.6	31
0.0007	-0.021	0	-0.0218	97.2	31
-0.0008	-0.0293	-0.0008	-0.0293	97.6	31
-0.0023	-0.0278	-0.0015	-0.0203	97.2	31
-0.003	-0.0233	-0.003	-0.0046	97.6	31
-0.0015	-0.0203	-0.003	0.0067	97.7	31
-0.0023	-0.0181	-0.0068	0.0015	97.6	31
-0.0008	-0.0233	-0.0068	-0.0346	97.4	31
-0.0008	-0.0338	-0.0091	-0.1313	97.4	31
-0.0038	-0.0413	-0.0091	-0.1898	97.6	31
-0.0053	-0.0105	-0.0068	-0.1568	97.4	31
-0.0105	0.0322	-0.0083	-0.0743	97.9	31
-0.0113	0.03	-0.0046	0.0787	97.6	31
-0.0008	0.0367	-0.0015	0.1725	97.6	31
0.0082	0.0637	0.0067	0.2137	97.8	31
0.0135	0.0555	0.0135	0.2257	97.5	31
0.0165	0.0127	0.0157	0.1327	97.9	31
0.0202	-0.0293	0.015	-0.027	97.6	31
0.024	-0.048	0.0105	-0.2078	97.7	31
0.0142	-0.0278	0.0052	-0.3015	97.6	31
-0.0008	0.0255	0	-0.2228	97.6	31
-0.0091	0.0457	-0.0068	0.0847	97.9	31
-0.0091	0.0487	-0.0046	0.2797	97.8	31
-0.0091	0.0825	0.0105	0.1792	97.8	31
-0.0173	0.0787	0.0105	0.072	97.8	31
-0.0203	0.069	0.0082	0.1477	97.8	31
-0.0173	0.0577	0.0052	0.2872	97.8	31
-0.0143	0.0405	-0.0015	0.1725	97.9	31
-0.0098	0.048	0.0045	0.084	97.9	31
-0.0091	0.039	0.0067	0.0465	97.6	31
-0.0053	0.0292	0	-0.039	97.9	31
-0.003	-0.0098	-0.0038	-0.0675	97.6	31
-0.0023	-0.0533	-0.006	-0.1028	97.7	31
-0.0015	-0.0608	-0.006	-0.0968	97.9	31
-0.0015	-0.0653	-0.0091	-0.099	97.6	31
-0.0008	-0.0706	-0.012	-0.0923	98.1	31
-0.0008	-0.081	-0.0105	-0.084	97.8	31
0.0015	-0.081	-0.0113	-0.0765	97.8	31
0.0015	-0.0758	-0.0105	-0.0825	97.8	31
0.0015	-0.0743	-0.0105	-0.111	98.1	31
0.003	-0.063	-0.012	-0.1253	97.8	31
0.003	-0.0436	-0.0098	-0.1388	97.7	31
0.0015	-0.0188	-0.0113	-0.1275	97.9	31
0.0015	-0.0068	-0.0098	-0.078	97.7	31
0.0037	0.0022	-0.0053	0.0067	98.1	31
0.0045	0.0127	0.0045	0.0922	97.8	31
0.0075	0.0195	0.009	0.1155	98	31
0.0097	0.0277	0.0082	0.0967	97.9	31
0.0112	0.0375	0.009	0.0967	97.8	31
0.012	0.0435	0.0082	0.0742	97.8	31
0.0097	0.0352	0.0052	0.069	97.7	31
0.0082	0.018	0.003	0.0705	97.8	31
0.009	-0.0023	0.0037	0.0517	97.9	31
0.009	-0.027	0.0045	-0.0098	97.7	31
0.0082	-0.039	0.0052	-0.159	97.6	31
0.0045	-0.0346	0.003	-0.258	97.6	31
-0.0068	-0.0083	-0.0008	-0.291	97.5	31
-0.015	0.0105	-0.0015	-0.2041	97.5	31
-0.0188	-0.0015	-0.0046	0.1065	98.1	31
-0.0225	0.0037	-0.0015	0.27	97.4	31
-0.0143	0.018	0.0067	0.1897	97.8	31
-0.0098	0.024	0.0075	0.1987	97.6	31
-0.0046	0.0405	0.0097	0.1807	97.4	31
0.0022	0.0412	0.009	0.108	97.7	31
0.003	0.0427	0.0067	0.069	97.6	31
0.0045	0.036	0.0037	0.0255	97.4	31
0.0037	0.0225	-0.0008	0.0232	97.6	31
0.0045	0.0217	0.0007	0.0157	97.2	31
0.0045	0.0082	0.0015	0.0045	97.5	31
0.0052	0.0022	0.003	-0.0008	97.2	31
0.0052	-0.0075	0.003	-0.021	97.2	31
0.0022	-0.021	0.0015	-0.033	97.2	31
0.0007	-0.0203	0.0015	-0.0368	97.1	31
0.0015	-0.0173	0.0007	-0.033	97	31
0.0022	-0.012	0.0007	-0.0315	97.1	31
0.0015	-0.012	0.0007	-0.0338	97	31
0.0022	-0.0143	0.0007	-0.0368	96.8	31
0.0007	-0.0173	-0.0008	-0.0346	97.2	31
0	-0.0158	-0.0008	-0.03	97	31
0.0007	-0.0143	-0.0008	-0.0308	97	31
0.0007	-0.0158	0.0007	-0.0361	97.3	31
0	-0.0143	0.0022	-0.042	96.7	31
0.0007	-0.0053	0.0045	-0.0383	97.1	31
-0.0008	0.0052	0.006	-0.0218	96.7	31
-0.0015	-0.0008	0.0067	-0.024	97.2	31
-0.0023	-0.0098	0.0052	-0.0353	96.7	31
-0.0053	-0.012	0.0015	-0.0308	96.8	31
-0.0038	-0.0113	0.0007	-0.027	96.8	31
-0.003	-0.0143	-0.0008	-0.024	96.7	31
-0.0038	-0.0195	0.0015	-0.0158	96.8	31
-0.0008	-0.0233	0.0007	0.0067	96.7	31
-0.0008	-0.0308	-0.0015	0.0292	96.9	31
0.0037	-0.033	0.0015	0.0037	96.6	31
0.0082	-0.0233	0.0045	-0.1283	96.6	31
0.0112	-0.0143	0.006	-0.2791	96.7	31
0.0075	0.015	0.0015	-0.2663	96.4	31
-0.012	0.0502	-0.0038	-0.1275	96.7	31
-0.0165	0.0345	0.0007	0.1455	96.6	31
-0.0068	0.0202	0.006	0.4132	96.9	31
0.0007	0.0465	0.0097	0.3315	96.6	31
0.0067	0.0457	0.0105	0.1387	96.7	31
0.006	0.033	0.009	0.09	96.8	31
0.0052	0.024	0.0097	0.0675	96.6	31
0.0022	0.0052	0.0045	0.057	96.4	31
0.0007	0.0097	0.003	0.0397	96.7	31
0.0015	0.0105	0.0015	0.0142	96.5	31
-0.0015	0.0015	-0.0023	0	96.4	31
-0.0008	0.0007	-0.0015	-0.012	96.4	31
-0.0023	-0.0046	-0.0038	-0.0218	96.6	31
-0.0023	-0.0075	-0.0046	-0.0248	96.1	31
-0.0008	-0.0105	-0.0068	-0.03	96.6	31
-0.0008	-0.0143	-0.0091	-0.0346	96.1	31
-0.0008	-0.0158	-0.0098	-0.039	96.2	31
-0.0015	-0.0165	-0.0128	-0.0368	96.3	31
0	-0.0135	-0.012	-0.03	96	31
-0.0008	-0.012	-0.012	-0.0218	96.3	31
-0.0015	-0.0105	-0.0113	-0.0135	95.8	31
0	-0.0091	-0.0091	-0.0098	96.1	31
0.0015	-0.0091	-0.012	-0.0098	96	31
0.0015	-0.015	-0.0135	-0.0203	96	31
0.0037	-0.033	-0.0135	-0.027	95.8	31
0.0045	-0.063	-0.0135	-0.0495	95.9	31
0.0052	-0.0758	-0.012	-0.084	95.9	31
0.0052	-0.0698	-0.0105	-0.0788	95.6	31
0.003	-0.0585	-0.0083	-0.0645	96	31
0.0022	-0.0458	-0.0053	-0.0668	95.5	31
0	-0.0203	-0.003	-0.0668	95.6	31
-0.0038	0.0382	-0.0015	-0.0593	95.7	31
-0.0038	0.099	0.0015	-0.0856	95.5	31
-0.0083	0.1237	0.0007	-0.0728	95.8	31
-0.0128	0.1365	-0.0008	0.0645	95.3	31
-0.0105	0.126	0.0007	0.2272	95.6	31
-0.0083	0.0877	0.0015	0.2512	95.5	31
-0.0068	0.0442	0.0037	0.1552	95.2	31
-0.0091	0.0135	0.0052	0.0825	95.3	31
-0.0105	-0.0143	0.0067	0.009	95.2	31
-0.0098	-0.0593	0.0015	-0.0368	95.2	31
-0.0098	-0.0548	-0.0046	-0.0503	95	31
-0.0053	-0.0405	-0.003	-0.0518	95.3	31
-0.0023	-0.045	0.0007	-0.0458	94.9	31
-0.0008	-0.054	0.0007	-0.0533	95	31
0.0015	-0.0533	-0.0008	-0.0375	95.1	31
0.0045	-0.0293	-0.0008	-0.0181	94.8	31
0.0112	-0.0165	0.003	0.0127	95.2	31
0.0142	0.0052	0.0067	0.0285	94.7	31
0.0135	0.012	0.0067	0.0315	95	31
0.012	0.012	0.0075	0.036	94.6	31
0.0097	0.0165	0.0082	0.0382	94.7	31
0.0082	0.0127	0.0067	0.039	94.8	31
0.009	0.015	0.0045	0.0352	94.4	31
0.0082	0.0112	0.003	0.027	94.6	31
0.0052	0.0082	0.0045	0.0105	94.6	31
0.003	0.0015	0.0037	0.0045	94.3	31
0.0007	-0.003	0.0015	-0.0008	94.3	31
0.0007	-0.003	0.0022	-0.0046	94.4	31
0	-0.003	0.003	-0.0068	94.6	31
0.0007	-0.0053	0.0015	-0.012	94.1	31
0	-0.0098	0.0007	-0.0165	94.2	31
-0.0023	-0.0091	0	-0.0188	94	31
-0.0008	-0.012	0.0007	-0.0203	94.3	31
-0.0015	-0.0105	0.0015	-0.0218	93.8	31
-0.003	-0.012	0.0015	-0.0218	94	31
-0.0038	-0.0128	-0.0008	-0.0256	94	31
-0.0046	-0.0128	-0.0015	-0.027	93.8	31
-0.003	-0.0143	-0.0008	-0.0285	93.9	31
-0.003	-0.012	-0.0015	-0.0263	93.7	31
-0.0046	-0.0135	-0.003	-0.0233	93.7	31
-0.0053	-0.0135	-0.003	-0.027	93.5	31
-0.0046	-0.0113	-0.0038	-0.0188	93.6	31
-0.0046	-0.0083	-0.0038	-0.0091	93.5	31
-0.0038	-0.0046	-0.0015	-0.0128	93.2	31
-0.0023	-0.0008	0.0007	-0.0105	93.8	31
-0.0008	0.0052	0.0015	-0.0023	93.1	31
0.0015	0.0105	0.003	-0.003	93.2	31
0.0007	0.012	0.0037	-0.0091	93	31
-0.0008	0.0105	0.0045	-0.0113	93	31
0.0007	0.0097	0.003	0	93.2	31
0.003	0.0082	0.0007	0.0157	92.9	31
0.0022	0.003	0	0.042	92.9	31
0.0015	-0.0105	0.0015	0.0465	92.6	31
0.0022	-0.03	0.0022	0.012	92.5	31
0.003	-0.0405	0.003	-0.0218	92.7	31
0.0045	-0.0555	0.003	-0.0788	92.6	31
0.0045	-0.0675	0.0015	-0.1455	92.5	31
0.003	-0.0563	0.0007	-0.1785	92.3	31
-0.0023	-0.0278	-0.0015	-0.1403	92.2	31
-0.0091	0.0165	-0.0053	0.0502	92.3	31
-0.0128	0.069	-0.0053	0.2557	92.5	31
-0.0105	0.1125	-0.0015	0.2745	92	31
-0.0091	0.1275	-0.0008	0.144	92.2	31
-0.0075	0.0892	-0.0015	0.0195	91.8	31
-0.0068	0.0352	0	-0.0158	91.8	31
-0.0083	-0.0128	-0.003	-0.0181	92	31
-0.0053	-0.0315	-0.0068	-0.0068	91.7	31
0	-0.0053	-0.0038	0.0277	91.8	31
0.009	0.0112	0.0045	0.0652	91.8	31
0.0135	0	0.0082	0.0637	91.5	31
0.0165	-0.0098	0.0067	-0.0128	91.4	31
0.0165	-0.0135	0.0037	-0.0825	91.2	31
0.015	-0.0105	0.0022	-0.1508	91.2	31
0.0045	0.0007	0.0015	-0.1763	91.2	31
-0.0046	0.0015	-0.0023	-0.0413	91.3	31
-0.0053	-0.0068	-0.003	0.069	90.8	31
-0.0091	-0.0075	-0.0046	0.0502	91.2	31
-0.0091	-0.0128	-0.0038	0.0817	90.8	31
-0.0046	-0.0015	0.0015	0.1125	90.7	31
-0.0008	0.033	0.0037	0.0855	91	31
-0.0008	0.0127	0.0015	0.0547	90.6	31
-0.0008	-0.0135	0	0.0165	90.5	31
-0.0008	-0.0075	0.0007	0.003	90.4	31
-0.0015	-0.0233	0	-0.0158	90.5	31
0	-0.0188	0.0007	-0.0158	90.3	31
0	-0.0158	0	-0.0128	90	31
0.003	-0.015	0	-0.0278	90.1	31
0.0007	-0.0128	-0.0008	-0.0346	90	31
0.0007	-0.0203	-0.003	-0.0383	89.9	31
0.0015	-0.0135	-0.0038	-0.0405	89.7	31
-0.0008	-0.0165	-0.003	-0.0428	89.8	31
0.0007	-0.0158	-0.0023	-0.0338	89.5	31
0	-0.0195	-0.0023	-0.0256	89.7	31
0.0045	-0.0353	-0.003	-0.012	89.3	31
0.0067	-0.0555	-0.0046	-0.0158	89.3	31
0.0105	-0.0818	-0.0053	-0.0856	89.5	31
0.0165	-0.0915	-0.0053	-0.2213	88.9	31
0.018	-0.0713	-0.003	-0.3683	88.9	31
0.0142	-0.0173	-0.0008	-0.4058	89	31
0.0037	0.0427	-0.0015	-0.2685	88.6	31
-0.0135	0.0742	-0.0046	-0.0165	89.1	31
-0.0233	0.0855	-0.0046	0.393	88.7	31
-0.0203	0.1035	-0.0008	0.6307	88.8	31
-0.0158	0.1005	0.0097	0.4132	88.5	31
-0.0098	0.06	0.018	0.2662	88.4	31
-0.0105	0.0457	0.0142	0.183	88.4	31
-0.0068	0.054	0.0082	0.072	88.2	31
-0.0053	0.0472	0.0052	0.0495	88.1	31
-0.0023	0.0405	0.0082	-0.0053	87.8	31
0	0.0217	0.0082	-0.0233	88.1	31
0.0015	-0.0128	0.0052	-0.057	87.6	31
0.003	-0.0315	0.0037	-0.063	87.7	31
0.0007	-0.0353	0	-0.0623	87.7	31
0.0015	-0.0398	-0.0053	-0.0713	87.2	31
-0.0008	-0.0405	-0.0068	-0.06	87.4	31
0.0007	-0.039	-0.0053	-0.0623	86.9	31
0.0015	-0.0436	-0.0068	-0.054	87.1	31
0.0015	-0.0555	-0.0068	-0.0668	86.9	31
0.0022	-0.0743	-0.0075	-0.0915	86.6	31
0.003	-0.0871	-0.0068	-0.1305	86.6	31
0.0045	-0.0818	-0.0053	-0.1598	86.6	31
0.0022	-0.0593	-0.0083	-0.1635	86.4	31
-0.003	-0.0256	-0.0091	-0.123	86.1	31
-0.0008	0.0232	-0.0068	-0.0465	86.4	31
0.0022	0.069	-0.0023	0.0735	86.1	31
0.003	0.09	0.0067	0.1792	85.9	31
0.0045	0.1005	0.009	0.1687	86	31
0.0022	0.0937	0.003	0.0915	85.7	31
0.0045	0.0622	0.003	0.0517	85.8	31
0.003	0.0285	0.0015	0.0382	85.5	31
0.003	0.0097	-0.0038	0.0075	85.4	31
0.0075	-0.0053	-0.0038	-0.0233	85.5	31
0.009	-0.0143	0.0007	-0.0465	85.3	31
0.009	-0.0256	0.0045	-0.0346	85.3	31
0.003	-0.0278	0.0015	-0.0346	85	31
0.0007	-0.0256	0	-0.048	85	31
0	-0.024	0.003	-0.0383	84.9	31
-0.0023	-0.0158	0.003	0.0067	84.8	31
-0.003	-0.0158	0.0015	0.057	84.9	31
-0.0038	-0.0068	0.0045	0.1012	84.6	31
-0.0046	-0.0053	0.0045	0.153	85	31
-0.0015	-0.012	0.0067	0.1162	84.3	31
0.0037	-0.0173	0.0067	0.048	84.5	31
0.0067	-0.0323	0.006	-0.03	84.2	31
0.0082	-0.0495	0.0052	-0.1628	83.9	31
0.0075	-0.066	0.0037	-0.2828	84	31
0.0075	-0.0743	-0.0023	-0.3383	83.7	31
0.003	-0.0765	-0.0083	-0.2798	84.1	31
-0.0091	-0.0765	-0.015	-0.21	83.5	31
-0.0195	-0.0893	-0.024	-0.1613	83.6	31
-0.0188	-0.1043	-0.0278	-0.0046	83.6	31
-0.0113	-0.057	-0.0233	-0.0346	83.4	31
-0.003	0.0345	-0.0181	-0.3045	83.1	31
-0.0128	0.1125	-0.0195	-0.1748	83.1	31
-0.0308	0.165	-0.0143	0.3465	83.5	31
-0.0293	0.183	0.003	0.6487	83.2	31
-0.0091	0.213	0.0187	0.6285	83.2	31
-0.0008	0.201	0.015	0.5955	83.1	31
-0.0023	0.1335	0.015	0.5422	82.9	31
0.0052	0.1327	0.0255	0.429	83	31
0.0097	0.1147	0.03	0.2895	82.5	31
0.012	0.0637	0.0277	0.0802	82.7	31
0.0105	0.012	0.0202	-0.0518	82.2	31
0	-0.0615	0.012	-0.1155	82.2	31
-0.0113	-0.0893	0.0082	-0.1523	82.2	31
-0.021	-0.1013	0.0067	-0.1441	81.9	31
-0.0225	-0.1065	-0.0015	-0.135	82.2	31
-0.0165	-0.12	-0.0128	-0.1088	82	31
-0.0046	-0.156	-0.0203	-0.1553	81.8	31
0.0112	-0.1935	-0.0203	-0.3548	81.8	31
0.0292	-0.2385	-0.0195	-0.774	81.5	31
0.0465	-0.2288	-0.0195	-1.143	81.4	31
0.0547	-0.1605	-0.0218	-1.1183	81.2	31
0.0367	-0.0525	-0.0353	-0.8085	81.5	31
-0.0053	0.0945	-0.0503	0.0645	81.4	31
-0.0293	0.222	-0.048	1.152	82	31
-0.0256	0.2407	-0.0181	1.4602	81.8	31
-0.003	0.1882	0.0397	1.1175	81.6	31
0.018	0.174	0.075	0.6307	81.6	31
0.0127	0.1972	0.0735	0.3082	81.1	31
0.0052	0.1387	0.0615	0.108	81.2	31
0.0045	0.0667	0.0457	-0.0083	81.4	31
0.0097	0.0345	0.0367	-0.0113	81.2	31
0.0142	-0.0195	0.0217	-0.0691	81.2	31
0.0127	-0.048	0.0045	-0.15	80.8	31
0.015	-0.0953	-0.0053	-0.1965	81	31
0.0105	-0.1118	-0.0143	-0.2258	80.7	31
0.0045	-0.105	-0.015	-0.225	81.2	31
0.0007	-0.1028	-0.0128	-0.21	80.8	31
-0.003	-0.0803	-0.0105	-0.1973	80.9	31
-0.0053	-0.075	-0.0105	-0.1763	80.7	31
-0.0083	-0.054	-0.0068	-0.153	80.7	31
-0.0105	-0.0405	-0.0053	-0.1298	80.8	31
-0.0113	-0.0278	-0.006	-0.1103	80.7	31
-0.0113	-0.0195	-0.0053	-0.093	80.9	31
-0.0105	-0.0143	-0.0046	-0.078	80.8	31
-0.0105	-0.0083	-0.003	-0.0645	80.6	31
-0.0113	-0.0053	-0.0046	-0.0495	80.9	31
-0.0105	0.0015	-0.0046	-0.0398	80.7	31
-0.0083	0	-0.0053	-0.0315	80.6	31
-0.0098	0.0007	-0.0053	-0.03	80.8	31
-0.0091	-0.006	-0.0046	-0.0278	81	31
-0.0091	-0.0091	-0.006	-0.0263	80.6	31
-0.0083	-0.0098	-0.0075	-0.0278	80.8	31
-0.0075	-0.0128	-0.0098	-0.0293	80.9	31
-0.0053	-0.0091	-0.0091	-0.0218	81	31
-0.0046	-0.006	-0.0075	-0.0091	80.8	31
-0.003	0	-0.0083	0.0045	80.8	31
0.0015	0.0075	-0.0068	0.0255	80.9	31
0.0052	0.0217	-0.0038	0.045	81.2	31
0.0082	0.0285	0.0007	0.057	80.8	31
0.009	0.0322	0.003	0.0615	81.2	31
0.0082	0.0352	0.0045	0.0667	80.9	31
0.0067	0.0322	0.0052	0.0727	81.2	31
0.0045	0.0315	0.0052	0.0757	81	31
0.0045	0.0255	0.003	0.0682	81.1	31
0.0037	0.0232	0.0015	0.0555	81.2	31
0.0015	0.0202	0.003	0.042	81.2	31
0.0015	0.012	0.0022	0.03	81.3	31
0.0007	0.0067	0.0045	0.0225	81.2	31
-0.0008	0	0.0052	0.0135	81.4	31
-0.0008	-0.0068	0.0045	0.003	81.4	31
-0.003	-0.0158	0.003	-0.0098	81.4	31
-0.0068	-0.0233	0.0015	-0.0165	81.7	31
-0.0083	-0.024	0.0007	-0.0158	81.7	31
-0.0075	-0.0256	0.0022	-0.0113	82.1	31
-0.0053	-0.0233	0.0022	-0.0053	81.6	31
-0.003	-0.0181	0.0015	-0.003	81.9	31
-0.0015	-0.0098	0.0045	0.0067	81.9	31
0.0045	0.0052	0.009	0.0247	81.9	31
0.0075	0.0187	0.0142	0.0367	82.1	31
0.0067	0.024	0.0135	0.039	82.2	31
0.0082	0.0232	0.0112	0.0367	82.3	31
0.009	0.0255	0.012	0.0337	82.4	31
0.0082	0.0262	0.0105	0.0337	82.4	31
0.0045	0.0165	0.006	0.03	82.6	31
0.0015	0.0127	0.0015	0.0285	82.4	31
0.0015	0.0112	-0.0015	0.024	82.8	31
-0.0015	0.0037	-0.006	0.0097	82.5	31
-0.0015	-0.0015	-0.0068	0.0007	82.9	31
-0.0015	-0.0053	-0.0091	-0.015	82.8	31
-0.0023	-0.0075	-0.0098	-0.03	83	31
-0.003	-0.0128	-0.012	-0.027	83.1	31
-0.0068	-0.0181	-0.0158	-0.0263	83	31
-0.0083	-0.0203	-0.0188	-0.0203	83.4	31
-0.0068	-0.027	-0.0203	-0.0308	83.2	31
-0.0053	-0.0293	-0.024	-0.0428	83.5	31
-0.0053	-0.0263	-0.0263	-0.0323	83.6	31
-0.0046	-0.0233	-0.0263	-0.0293	83.5	31
-0.0015	-0.0195	-0.0263	-0.0203	83.6	31
0.0022	-0.015	-0.0203	-0.0105	83.6	31
0.0052	-0.012	-0.0158	-0.0181	83.9	31
0.009	-0.0068	-0.0128	-0.0511	83.7	31
0.0097	0.0015	-0.0105	-0.0878	84.1	31
0.0067	0.0067	-0.0091	-0.09	83.8	31
0.0037	0.009	-0.0068	-0.042	84.1	31
-0.0015	0.0225	-0.012	0.036	84.1	31
-0.0053	0.0232	-0.012	0.0682	84.2	31
-0.0053	0.0097	-0.0068	0.1117	84.6	31
-0.0023	0.0097	-0.003	0.1462	84.2	31
-0.0023	0.009	0	0.0877	84.8	31
-0.003	0.006	0.0052	0.0555	84.6	31
-0.0046	0.003	0.009	0.039	84.5	31
-0.0053	0.0007	0.0052	0.018	84.6	31
-0.0053	0.0082	0.003	0.009	84.8	31
-0.0053	0.0112	0.003	-0.0158	85	31
-0.0046	0.0105	0.0045	-0.0135	84.6	31
-0.0038	0.0082	0.0052	-0.0218	85	31
-0.0046	0.0022	0.0045	-0.0278	85	31
-0.0023	-0.003	0.0037	-0.0293	85	31
-0.0008	-0.003	0.0022	-0.0293	85.3	31
0	-0.0015	0.0022	-0.0173	85	31
0.003	-0.0046	0.0022	-0.0143	85.5	31
0.003	-0.0105	0.0045	-0.0091	85.4	31
0.0052	-0.0143	0.0045	-0.0105	85.4	31
0.0045	-0.0113	0.003	-0.012	85.7	31
0.003	-0.0083	0.0045	-0.0068	85.4	31
0.003	-0.012	0.0067	-0.0053	85.6	31
0.0022	-0.0113	0.0067	-0.0068	85.7	31
0.003	-0.0053	0.009	-0.0046	85.8	31
0.0022	0.0015	0.0082	-0.0038	85.7	31
0.0015	0.0052	0.0082	-0.0015	86	31
0.0007	0.0075	0.0082	0.0052	86	31
0.0007	0.009	0.0067	0.0165	86	31
0	0.006	0.0067	0.0195	86.3	31
-0.0008	0.0045	0.0037	0.0127	86.2	31
0	0	0.0015	0.0015	86.3	31
-0.0015	-0.0083	0.0015	-0.0128	86.1	31
-0.0015	-0.0091	0.0045	-0.0135	86.4	31
-0.0008	-0.0083	0.003	-0.0195	86.5	31
-0.0008	-0.0098	0.0015	-0.0293	86.3	31
-0.0015	-0.015	0.0015	-0.03	86.5	31
-0.0023	-0.0165	0.0007	-0.0293	86.3	31
-0.0015	-0.015	0	-0.0278	86.4	31
-0.0015	-0.0143	-0.0015	-0.0225	86.6	31
-0.0008	-0.0098	-0.0008	-0.012	86.5	31
0	-0.003	-0.0015	0	86.7	31
0.0007	-0.0008	0.0007	0.0015	86.6	31
0.0015	0	0.0037	0.009	86.8	31
0.0022	0.0015	0.003	0.0142	86.7	31
0.0022	0.0022	0.0067	0.009	86.9	31
0	0.003	0.006	0.0007	86.8	31
0	0.003	0.006	-0.0143	87	31
0.0022	0.0007	0.0052	-0.0165	87	31
0.0007	0.0007	0.0045	-0.0038	87	31
-0.0008	0	0.0067	0.0127	87	31
0.0007	-0.003	0.0037	0.0232	87	31
0.0007	-0.0068	0.0067	0.003	87.1	31
-0.0008	-0.0083	0.006	-0.0128	87.1	31
-0.0015	-0.0083	0.0052	-0.0128	86.9	31
-0.0015	-0.0105	0.0052	-0.0143	87	31
-0.0008	-0.0105	0.0037	-0.0075	87.1	31
-0.0008	-0.0075	0.0052	-0.003	87	31
0	-0.003	0.0015	0.0015	86.9	31
0.0007	0	0.0015	0	87.3	31
0.003	0.009	0.0037	0.0052	87.1	31
0.003	0.018	0.006	0.0165	87.3	31
0.003	0.0157	0.0052	0.0195	87.2	31
0.003	0.0105	0.0052	0.024	87.4	31
0.003	0.0112	0.0045	0.0315	87.2	31
0.003	0.0142	0.0052	0.0345	86.9	31
0.003	0.027	0.0067	0.0315	87.3	31
0	0.0352	0.0045	0.0255	87.1	31
0.0015	0.012	0.0022	0.0157	87.1	31
0.0015	-0.0023	0.0015	0.0045	87.2	31
0	-0.0038	0.0007	-0.0038	87.1	31
-0.0008	-0.012	-0.0008	-0.0188	87.3	31
-0.003	-0.0091	-0.0023	-0.0293	87.2	31
-0.0046	-0.0135	-0.0053	-0.0218	87.2	31
-0.003	-0.015	-0.0053	-0.0233	87	31
-0.0023	-0.012	-0.0046	-0.0173	87.3	31
-0.0023	-0.0143	-0.0053	0.0015	87.2	31
-0.003	-0.0218	-0.0053	0.0067	87.4	31
-0.003	-0.0218	-0.0068	0.0022	87.3	31
-0.0015	-0.0046	-0.0038	-0.0158	87	31
-0.0008	0.0052	-0.0015	-0.0315	87.2	31
0.0007	0.0067	-0.0015	-0.039	87.1	31
0.003	0.0127	-0.0008	-0.0368	87.1	31
0.0045	0.0172	0.003	-0.012	87.3	31
0.0022	0.0127	0.006	0.0202	86.8	31
0.0007	-0.0143	0.0045	0.039	87.3	31
0.0015	-0.0218	0.0022	0.0292	87.2	31
-0.0008	-0.006	0.0022	0.0075	87.2	31
-0.0008	-0.0068	0.0007	0.0112	87	31
-0.0008	-0.0046	-0.0008	0.0007	87.1	31
-0.0015	-0.0008	-0.0023	0.0067	87.1	31
-0.0023	0.0067	-0.003	0.0052	87	31
-0.0023	0.0142	-0.003	0.0082	87.1	31
-0.003	0.0082	-0.0023	0.0285	86.9	31
-0.0038	0.0052	0	0.018	87	31
-0.003	0.0052	0.0022	0.0157	86.9	31
-0.0023	-0.0128	0	0.0082	86.8	31
-0.0023	-0.0285	-0.0023	0.0067	86.9	31
-0.003	-0.012	-0.0015	-0.0075	86.6	31
-0.0046	-0.0015	-0.003	-0.0195	87	31
-0.003	-0.0083	-0.0046	-0.0308	86.5	31
-0.0038	-0.012	-0.0075	-0.0361	86.9	31
-0.003	-0.012	-0.0091	-0.0285	86.6	31
-0.0015	-0.0091	-0.0083	-0.0293	86.6	31
-0.0015	-0.0038	-0.0091	-0.0188	86.5	31
0.0007	-0.0015	-0.0091	-0.0128	86.7	31
0.003	0.0015	-0.0075	-0.0015	86.6	31
0.0045	0.009	-0.0053	0.0112	86.3	31
0.006	0.015	-0.0053	0.018	86.5	31
0.0067	0.015	-0.0046	0.015	86.3	31
0.0045	0.012	-0.0046	0.0097	86.2	31
0.003	0.009	-0.0038	0.009	86.3	31
0.0022	0.0082	-0.0053	0.0112	86	31
0.0015	0.0067	-0.0053	0.0157	86.5	31
-0.0008	0.006	-0.003	0.0157	86.2	31
0.0007	0.0045	-0.0046	0.0082	86.2	31
0	0.0007	-0.0053	-0.0128	86.2	31
-0.0008	-0.0038	-0.0046	-0.0128	85.9	31
0.0007	-0.0098	-0.0023	-0.012	86	31
-0.0015	-0.015	-0.0008	-0.0135	85.9	31
-0.0015	-0.0195	0.0015	-0.0083	85.7	31
-0.0008	-0.0203	0	-0.012	85.7	31
0.0007	-0.0181	-0.0008	-0.0233	85.6	31
0.0015	-0.0135	-0.0015	-0.0315	85.7	31
0.0007	-0.0008	-0.0015	-0.0233	85.5	31
0	0.0135	0.0007	-0.0091	85.7	31
-0.0015	0.0142	0.0007	0.0142	85.4	31
-0.0015	0.0067	0.0007	0.033	85.7	31
-0.003	0.0045	0	0.0442	85.4	31
-0.0015	0.0097	-0.0008	0.0315	85.3	31
-0.0008	0.0097	-0.0008	0.003	85.5	31
-0.003	0.0007	-0.0008	-0.0046	85.1	31
-0.0015	-0.0015	-0.0008	-0.0038	85.5	31
-0.0023	-0.0046	-0.0008	-0.0046	85.1	31
-0.003	-0.0091	0	-0.0098	85	31
-0.0015	-0.0075	0.0015	-0.0053	85	31
-0.0015	-0.0083	0.0045	-0.0008	85.1	31
0	-0.0068	0.0052	-0.003	84.9	31
0.0015	-0.0053	0.003	0.0015	84.7	31
0.003	-0.0015	0.0052	0.0022	85.1	31
0.003	0.0007	0.0067	0.003	84.6	31
0.0015	0	0.0045	-0.0008	84.7	31
0.0015	0.0015	0.003	-0.0008	84.8	31
0.0037	0.003	0.0015	-0.0053	84.5	31
0.003	0.0052	0.0022	-0.012	84.6	31
-0.0008	0.0045	0.0022	-0.0143	84.2	31
0	-0.0158	0	-0.027	84.5	31
-0.0008	-0.0443	-0.0008	-0.0375	84.1	31
0	-0.0518	0.0007	-0.0315	84.1	31
-0.0008	-0.057	0.0022	-0.0248	84.2	31
-0.0008	-0.0443	0.0015	-0.024	84	31
0	0.0082	0.0007	-0.0046	83.9	31
-0.0015	0.0637	0.0022	0.03	83.8	31
0.0015	0.1012	0.0052	0.0607	83.9	31
0.0007	0.09	0.0052	0.0637	83.3	31
-0.0008	0.03	0.0052	0.0442	83.7	31
-0.0015	-0.0068	0.0052	0.0247	83.4	31
0	-0.0015	0.0045	0.0142	83.3	31
0	-0.003	0.0015	0.0105	83.6	31
-0.0008	-0.0068	-0.0008	-0.0046	83	31
0	-0.012	0	-0.0053	83.1	31
-0.0008	-0.0181	-0.0023	-0.0068	82.8	31
0.0015	-0.0105	-0.0023	-0.0181	82.9	31
0.0007	-0.0105	-0.0023	-0.0165	82.9	31
-0.0008	-0.012	-0.0046	-0.0181	82.6	31
0.0007	-0.012	-0.0046	-0.0068	82.8	31
0.0007	-0.0113	-0.0015	-0.006	82.4	31
0.0007	-0.0083	-0.0008	-0.006	82.3	31
0.003	-0.0015	-0.0008	0.0007	82.2	31
0.0045	0.0067	0.0015	0	82.3	31
0.0015	0.003	0.0022	0.003	81.9	31
0.0015	-0.0015	0.0015	0.0052	81.7	31
0.0015	-0.0068	0.0022	0.0067	81.9	31
0.0015	-0.0105	0.0022	0.003	81.5	31
0.0022	-0.0105	0.0007	0.0015	81.8	31
0.0015	-0.0091	0.0007	-0.006	81.3	31
0.0015	-0.0068	0.0007	-0.0128	81.2	31
0.0007	-0.0068	0.0007	-0.0173	81.4	31
-0.0008	-0.0038	0.0007	-0.0233	81	31
-0.0015	-0.0015	0.0007	-0.0278	80.9	31
-0.003	-0.0038	-0.003	-0.0293	80.8	31
-0.0015	-0.0075	-0.0038	-0.0188	80.5	31
0	-0.0075	-0.0015	-0.0218	80.5	31
-0.0008	-0.0083	-0.0008	-0.024	80.5	31
-0.0023	-0.0113	-0.0008	-0.0038	80.4	31
-0.0038	-0.0091	0.0007	-0.012	80.2	31
-0.0023	0.009	0.003	-0.0225	80.3	31
-0.003	0.0285	0.0022	-0.0068	79.8	31
-0.0046	0.0112	-0.0015	0.0127	79.9	31
-0.0068	-0.0315	-0.0015	0.0532	79.6	31
-0.0083	-0.0315	-0.0008	0.0682	79.6	31
-0.0053	0.0075	-0.0008	0.06	79.6	31
-0.0046	0.033	-0.0015	0.0405	79.2	31
-0.003	0.0352	0.0007	0.0037	79.2	31
-0.0015	0.0232	0.0007	-0.0188	79	31
0.0015	0.018	0	-0.0181	78.9	31
0.003	0.0165	0.0007	-0.0068	78.9	31
0.003	0.009	0.003	0.003	78.5	31
0.0052	0.003	0.003	0.0082	78.6	31
0.0052	-0.0023	0.0022	0.0105	78.3	31
0.0075	-0.003	0.003	0.0165	78.2	31
0.0052	-0.0015	0.0022	0.0165	77.8	31
0.0045	-0.0046	-0.0008	0.0105	78.1	31
0.0015	-0.0091	-0.003	0.0015	77.7	31
0.0007	-0.0113	-0.0046	-0.0075	77.5	31
0.0007	-0.0105	-0.003	-0.0181	77.6	31
0.0015	-0.0105	-0.0038	-0.024	77.3	31
0.0015	-0.0113	-0.0046	-0.0263	77.2	31
0	-0.0083	-0.0053	-0.0263	77	31
0	-0.003	-0.0046	-0.0233	76.8	31
0	-0.0008	-0.0023	-0.0233	77	31
0.0007	0.0015	-0.003	-0.0173	76.5	31
0	-0.0015	-0.0023	-0.0308	76.6	31
-0.003	-0.0225	-0.0008	-0.063	76.3	31
-0.003	-0.0443	-0.0015	-0.09	76.1	31
-0.0015	-0.0525	-0.0015	-0.1006	76	31
-0.003	-0.0361	0.0007	-0.042	75.9	31
-0.0053	0.0067	0.0045	0.078	75.8	31
-0.0053	0.0307	0.0045	0.1537	75.6	31
-0.0068	0.0127	0.0052	0.1552	75.6	31
-0.0038	0	0.0052	0.1185	75.1	31
-0.0008	0.0165	0.0045	0.072	75.1	31
-0.0015	0.0442	0.0007	0.0397	75.3	31
-0.0015	0.0315	0.0007	0.0105	74.7	31
0.0007	0.0142	0.0007	-0.0165	74.8	31
0.0015	0.0105	0	-0.042	74.2	31
0.0015	-0.0075	-0.0008	-0.057	74.5	31
0.0015	-0.0008	0.0007	-0.0818	74.2	31
0.0015	-0.012	0.0007	-0.1058	74	31
0.0022	-0.0105	-0.0008	-0.1028	73.8	31
0.0007	-0.0015	-0.0008	-0.045	73.6	31
-0.0015	-0.0023	-0.0023	0.0172	73.5	31
-0.003	0	-0.0023	0.0427	73.4	31
-0.003	-0.0158	-0.0015	0.0757	73.6	31
-0.0023	-0.0083	0.0007	0.084	73.2	31
-0.0015	-0.0008	0.0037	0.0802	73	31
-0.0008	0.009	0.0037	0.0532	72.9	31
0	0.0105	0.003	0.0232	72.3	31
0.0007	0.0067	0.0015	0.0172	72.5	31
0.0022	0.0082	0.0015	0.0075	72.1	31
0.0022	0.0015	0.0015	0.0007	72.3	31
0.0007	-0.0023	0.0007	-0.0105	71.8	31
0.0007	-0.006	-0.0008	-0.0165	71.8	31
0.0007	-0.003	-0.0023	-0.0195	71.6	31
-0.0008	-0.0053	-0.003	-0.0181	71.1	31
0.0015	-0.0068	-0.0053	-0.0203	71.2	31
0.003	-0.0075	-0.0075	-0.033	71	31
0.0015	-0.0113	-0.0053	-0.0533	71.1	31
0.0015	-0.0105	-0.006	-0.0608	70.5	31
0.0007	-0.0135	-0.0068	-0.0615	70.5	31
0.0007	-0.0091	-0.003	-0.0645	70.2	31
0.0007	-0.0046	-0.003	-0.0503	70	31
0.0022	-0.006	-0.0023	0.0022	70.1	31
0.0007	-0.012	0.0007	0.063	69.4	31
-0.0015	-0.003	0.0007	0.0705	69.7	31
-0.0015	0.0075	0	0.057	69.3	31
-0.0008	-0.003	0	0.0255	69.2	31
0.0007	0.006	0.0007	-0.0105	69.1	31
0.0015	0.0165	-0.0008	-0.0233	68.5	31
0.0007	0.0112	-0.0015	-0.0293	68.8	31
0.0015	0.0052	-0.0008	-0.03	68.3	31
0.0015	0	0	-0.024	68.3	31
0.003	0.0007	0.0007	0.0052	68	31
0.0007	-0.0008	-0.0008	0.021	68	31
-0.0008	-0.003	-0.0008	0.0165	67.7	31
0.0007	-0.003	0	0.0097	67.3	31
0	-0.0053	0.0007	-0.0015	67.6	31
-0.0008	-0.0053	0.0007	-0.003	67	31
-0.0015	-0.0008	-0.0008	0.0007	67	31
-0.0008	-0.0015	-0.0008	0.0142	67	31
0.0007	-0.0038	-0.003	0.0255	66.4	31
-0.0008	-0.0068	-0.0015	0.006	66.6	31
-0.0008	-0.0098	-0.0015	-0.0293	66.1	31
-0.0008	-0.012	-0.0046	-0.0563	66.1	31
0.0007	-0.0165	-0.0046	-0.0863	65.5	31
0.0022	-0.0165	-0.0053	-0.1193	65.5	31
0.0015	-0.0218	-0.0068	-0.1185	65.5	31
0.0015	-0.0278	-0.0053	-0.12	65.2	31
0.003	-0.0218	-0.003	-0.1073	65	31
0.0007	0.0022	0	-0.0105	64.8	31
-0.003	0.0435	0.0037	0.1125	64.8	31
-0.0068	0.0472	0.0067	0.204	64.3	31
-0.0053	0.0187	0.012	0.2242	64.3	31
-0.0053	0.0682	0.0105	0.174	64	31
-0.0075	0.0675	0.0067	0.1297	63.8	31
-0.0053	0.003	0.0067	0.0892	63.7	31
-0.0046	0.0127	0.003	0.0615	63.2	31
-0.0038	-0.0083	0.0007	0.0345	63.7	31
-0.0046	-0.0188	-0.0008	-0.015	62.8	31
-0.0046	-0.0173	-0.0008	-0.0278	62.9	31
-0.0015	-0.0256	0.0007	-0.0368	62.7	31
-0.0008	-0.0225	-0.0015	-0.0443	62.3	31
-0.0008	-0.0375	-0.003	-0.0443	62.4	31
0	-0.03	-0.0053	-0.0503	62	31
0	-0.0308	-0.0053	-0.0473	61.7	31
0.0007	-0.024	-0.0068	-0.0465	61.6	31
0.0015	-0.0181	-0.006	-0.0413	61.4	31
0.0015	-0.0128	-0.0046	-0.0398	61	31
0.0037	-0.0046	-0.003	-0.0353	60.8	31
0.0045	-0.0068	-0.0038	-0.042	60.9	31
0.0067	-0.0053	-0.0023	-0.0503	60.3	31
0.0045	-0.0091	-0.0008	-0.0353	60.5	31
0.003	-0.0181	-0.0008	-0.042	59.9	31
0.0037	-0.0361	-0.0008	-0.0706	60.2	31
0.0045	-0.0346	-0.0015	-0.0728	59.8	31
0.0045	-0.0046	0.0007	-0.0615	59.5	31
0.006	0.027	0.0015	-0.0323	59.5	31
0.0052	0.0307	0.0015	0.0165	59.2	31
0.003	0.042	0.0037	0.0547	59.2	31
-0.0008	0.1005	0.0037	0.129	58.9	31
-0.0046	0.0907	0.006	0.186	58.8	31
-0.0053	0.0277	0.0067	0.1627	58.8	31
-0.0046	0.006	0.0052	0.1027	58.5	31
-0.003	-0.0091	0.0052	0.0427	58.3	31
-0.0008	0.0045	0.003	0.003	57.9	31
-0.0015	0.0052	0.0007	-0.0158	58	31
-0.003	-0.0158	-0.0008	-0.0346	57.4	31
-0.0046	-0.0225	-0.0008	-0.0465	57.6	31
-0.003	-0.027	0.0007	-0.0465	57.1	31
-0.0015	-0.0218	-0.0008	-0.0473	57.1	31
-0.0015	-0.0233	0	-0.0436	56.8	31
0.0007	-0.0195	-0.0015	-0.0368	56.5	31
0.0007	-0.0135	-0.0023	-0.0263	56.5	31
0.0015	-0.0083	-0.0015	-0.0181	56.2	31
0.0015	-0.0038	-0.0008	-0.0098	55.9	31
0.0022	-0.0015	0.0007	0	55.9	31
0.0045	0.003	-0.0008	-0.0008	55.8	31
0.003	-0.0023	0.0007	-0.027	55.6	31
0.0022	-0.0091	0.0007	-0.0795	55.2	31
0.003	-0.0233	-0.003	-0.1013	55.3	31
0.003	-0.039	-0.006	-0.066	54.8	31
0.003	-0.0443	-0.0083	-0.024	54.9	31
0.0015	-0.0346	-0.0068	-0.0195	54.7	31
0.0007	-0.0203	-0.0015	-0.015	54.4	31
-0.0023	0.0082	0.0045	-0.003	54.4	31
-0.0023	0.054	0.0082	0.0037	54	31
-0.0038	0.0622	0.009	0.0652	54	31
-0.006	0.0727	0.009	0.1252	53.9	31
-0.0053	0.0577	0.0067	0.1515	53.4	31
-0.0068	-0.0083	0.003	0.1702	53.7	31
-0.0075	-0.015	0.0037	0.1177	53.2	31
-0.0046	-0.0053	0.0022	0.0555	53.1	31
-0.003	0.0165	0.0007	0.033	53.1	31
-0.0023	0.0157	-0.003	-0.0053	52.7	31
-0.0008	-0.0008	-0.0023	-0.0181	52.7	31
0.0007	-0.0023	-0.0015	-0.0256	52.7	31
0.0007	-0.0203	-0.0023	-0.0346	52.4	31
0.0007	-0.0098	-0.0053	-0.0346	52	31
-0.0008	-0.0203	-0.0068	-0.0413	52.1	31
-0.0008	-0.0181	-0.0068	-0.0375	51.8	31
-0.0023	-0.0135	-0.006	-0.0413	51.6	31
-0.0015	-0.0188	-0.006	-0.054	51.7	31
0.0015	-0.012	-0.0068	-0.0578	51.2	31
0.0015	-0.0165	-0.0075	-0.0383	51.2	31
0.0015	-0.012	-0.0053	-0.0353	51	31
0.003	-0.0233	-0.003	-0.042	50.9	31
0.003	-0.027	-0.003	-0.048	50.8	31
0.0045	-0.024	-0.0046	-0.0645	50.7	31
0.0037	-0.0181	-0.0038	-0.063	50.1	31
0.003	-0.0105	-0.0023	-0.0533	50.4	31
0.0045	0.012	0.0007	-0.0285	50.1	31
0.0015	0.0682	0.0007	0.012	49.7	31
0.0007	0.0727	0.0015	0.0592	49.8	31
-0.0008	0.0465	0.0007	0.0892	49.5	31
-0.0023	0.0397	0.0015	0.117	49.5	31
0.0007	0.0097	0.0082	0.1012	49.5	31
0.003	-0.006	0.0075	0.0285	49	31
0	0.0135	0.0037	0.0052	49	31
-0.0008	0.0052	0.0015	0.0135	48.8	31
0	-0.024	-0.0015	0.009	48.6	31
-0.0015	-0.0398	-0.0023	-0.0083	48.7	31
-0.0038	-0.0428	-0.003	-0.0225	48.1	31
-0.003	-0.0353	0.0007	-0.0218	48.2	31
-0.0023	-0.0293	0.0022	-0.027	48.1	31
-0.0008	-0.0308	0.0015	-0.0233	48.1	31
-0.0008	-0.027	0.0015	-0.0233	47.7	31
-0.0015	-0.0248	-0.0015	-0.0218	47.6	31
-0.003	-0.0188	-0.0015	-0.0188	47.7	31
-0.0008	-0.0091	0.0007	-0.0165	47.4	31
0.0015	-0.003	0	-0.0165	47.5	31
0.003	0.0045	0	-0.0233	47.1	31
0.003	0.0082	-0.0015	-0.021	47.1	31
0.0007	0.0097	-0.0046	-0.0165	46.9	31
0	0.003	-0.0068	-0.0203	46.7	31
0.0007	-0.003	-0.0068	-0.0405	46.7	31
0.0022	-0.0053	-0.006	-0.0638	46.2	31
0.0022	-0.0105	-0.003	-0.0706	46.3	31
0.0007	-0.0368	-0.0023	-0.0706	46	31
0.0007	-0.0675	-0.0023	-0.0713	45.8	31
0.0015	-0.039	-0.0008	-0.033	45.8	31
0.0015	-0.0091	0.003	-0.0046	45.5	31
0.0015	0.0067	0.0045	0.0787	45.6	31
-0.0008	0.0705	0.0052	0.2265	45.5	31
-0.0008	0.1057	0.0112	0.2347	45.4	31
0.0007	0.1117	0.0195	0.171	44.9	31
-0.0008	0.0892	0.0217	0.102	44.9	31
-0.003	0.0337	0.0157	0.0637	44.9	31
-0.0038	0.0105	0.0112	0.0442	44.4	31
-0.0046	-0.0053	0.0052	-0.0008	44.7	31
-0.003	-0.0046	0.0015	-0.0135	44	31
-0.0015	0.0007	0.0022	-0.0308	44.4	31
-0.0015	-0.012	0.0015	-0.0323	44	31
0.0007	-0.0233	0	-0.0353	43.5	31
-0.0008	-0.0293	-0.0008	-0.0383	44	31
-0.0015	-0.0263	-0.0015	-0.0346	43.4	31
-0.0008	-0.024	-0.003	-0.0353	43.2	31
-0.0008	-0.0195	-0.0038	-0.03	43.1	31
0.0015	-0.0173	-0.0046	-0.0323	42.9	31
0.003	-0.0158	-0.0046	-0.0308	42.7	31
0.0037	-0.0128	-0.0046	-0.0346	42.6	31
0.0045	-0.0098	-0.0038	-0.0368	42.5	31
0.0052	-0.0053	-0.0053	-0.045	42.1	31
0.0037	-0.0098	-0.006	-0.0398	42.5	31
0.003	-0.0203	-0.003	-0.0256	41.8	31
0.0022	-0.027	-0.003	-0.0285	41.8	31
0	-0.0285	-0.003	-0.0278	41.7	31
-0.0008	-0.0278	-0.0015	-0.0203	41.4	31
-0.0015	-0.0098	0.0007	-0.0181	41.4	31
-0.0015	0.0225	0.0052	-0.0233	41.3	31
-0.0008	0.039	0.003	-0.0128	41	31
-0.003	0.042	0.0045	0.0277	41	31
-0.0023	0.0277	0.0067	0.0465	40.7	31
-0.003	0.0007	0.003	0.0442	40.5	31
-0.0038	-0.003	0.003	0.0292	40.7	31
-0.0038	-0.0068	0	0.0045	40.6	31
-0.0046	-0.0083	-0.0008	0.0052	40	31
-0.003	-0.0091	-0.0008	0.0015	40.3	31
-0.0008	-0.0091	-0.0023	-0.0038	39.8	31
0.0015	0.0082	-0.0015	0.0052	39.7	31
0.0045	0.0105	-0.0015	0.0052	39.7	31
0.0045	0.0082	-0.003	0.0082	39.2	31
0.0045	0.009	-0.003	0.0135	39.2	31
0.003	0.009	-0.0008	0.0187	39	31
0.0045	0.009	-0.003	0.018	38.9	31
0.0037	0.0037	-0.0038	0.0157	39	31
0.0015	0.0045	-0.003	0.009	38.6	31
0.0022	0.003	-0.0008	0.003	38.5	31
0.0007	-0.003	-0.0008	-0.0023	38.4	31
0.0007	-0.0053	-0.0015	-0.0068	38.3	31
0.0015	-0.0075	-0.0023	-0.0105	38	31
0.0007	-0.0135	-0.0053	-0.0143	38.3	31
0	-0.0218	-0.006	-0.024	37.9	31
0	-0.033	-0.0053	-0.0383	37.9	31
-0.003	-0.033	-0.0068	-0.0458	37.8	31
-0.0046	-0.0195	-0.0068	-0.03	37.4	31
-0.0046	-0.0068	-0.0068	-0.0008	37.7	31
-0.0046	-0.012	-0.0068	0.0225	37.4	31
-0.003	-0.0053	-0.0046	0.0202	37.3	31
-0.0015	0.0315	-0.0015	-0.0023	37.4	31
-0.0008	0.0127	-0.0023	-0.0128	37	31
-0.0015	-0.033	-0.0008	-0.0158	37.3	31
0	-0.0098	0.0007	-0.0105	36.9	31
0.0007	0.0202	0	-0.0091	37	31
-0.0015	0.0262	0	-0.0098	36.9	31
0.0007	0.0225	-0.0008	0.0037	36.7	31
0	0.003	0.0007	0.0105	36.6	31
-0.0008	-0.0083	-0.0015	0.018	36.4	31
-0.0015	0.0052	-0.003	0.0292	36.6	31
-0.0023	-0.0098	-0.0046	0.027	36.2	31
-0.003	-0.0256	-0.0038	0.0135	36.4	31
-0.003	-0.0158	-0.0008	0.0045	36.2	31
-0.0008	-0.0293	0	0.0015	36.2	31
0.0015	0.0247	0.006	0.0067	36.4	31
0.003	0.09	0.0082	0.0015	35.8	31
0.003	0.033	0.0022	-0.0068	36.2	31
0	-0.0195	-0.0008	0.009	35.7	31
0.0007	-0.0218	-0.0038	0.0172	35.7	31
0	-0.0195	-0.0046	-0.0053	35.9	31
-0.0008	-0.0315	-0.0053	-0.0293	35.8	31
-0.0023	-0.0788	-0.0053	-0.0293	35.5	31
-0.0023	-0.0803	-0.0038	-0.0158	35.4	31
-0.0008	-0.0383	-0.0015	-0.0195	35.2	31
-0.0008	-0.0593	-0.0053	-0.0203	35.2	31
-0.0038	-0.099	-0.0105	-0.0128	35.2	31
-0.0053	-0.0863	-0.012	-0.0308	35.1	31
-0.0023	-0.0375	-0.0083	-0.0368	34.8	31
0.0007	-0.0863	-0.0053	-0.024	35.2	31
0.0007	-0.156	-0.0053	-0.027	34.7	31
0.0015	0.027	0.0015	-0.0128	34.7	31
0.003	0.1695	0.0127	0.0097	34.6	31
0.0082	0.1822	0.0262	0.0292	34.4	31
0.009	0.3187	0.0345	0.078	34.6	31
0.0097	0.345	0.0345	0.1132	34.1	31
0.0037	0.2505	0.0247	0.099	34.3	31
-0.003	0.1162	0.012	0.0712	34	31
-0.0023	0.0082	0.0067	0.0427	34.1	31
-0.003	-0.0008	0.0045	0.0195	34	31
-0.0023	-0.0278	0.003	0.0007	33.9	31
-0.0008	-0.0218	0.0007	-0.012	34.2	31
-0.0015	-0.024	-0.0023	-0.0158	33.5	31
-0.0015	-0.0518	-0.0046	-0.0233	33.8	31
-0.0008	-0.0675	-0.0075	-0.024	33.3	31
-0.0008	-0.0668	-0.0083	-0.0323	33.2	31
-0.003	-0.0458	-0.0083	-0.0383	33.3	31
-0.0015	-0.0533	-0.0075	-0.042	33	31
-0.0023	-0.0638	-0.0083	-0.042	33.1	31
-0.003	-0.0653	-0.0083	-0.0338	32.8	31
-0.0023	-0.1013	-0.0083	-0.0256	32.8	31
-0.003	-0.1178	-0.0098	-0.012	32.8	31
-0.0008	-0.096	-0.0053	-0.0038	32.7	31
-0.0008	-0.108	-0.0053	0.0082	32.5	31
0.0007	-0.0653	-0.0015	0.0157	32.5	31
0.003	0.0517	0.006	0.012	32.4	31
0.0052	0.156	0.009	0.006	32	31
0.0045	0.1335	0.009	-0.0128	32.2	31
0.0015	0.0187	0.0045	-0.024	31.9	31
0	0.009	0.0015	-0.0248	32	31
-0.0008	-0.0083	0	-0.024	32.1	31
0.0007	-0.0278	0.0007	-0.0128	31.5	31
-0.0015	-0.0158	-0.0008	-0.0053	31.8	31
-0.0015	-0.027	-0.0015	-0.0008	31.6	31
-0.0015	-0.0105	-0.0008	0	31.3	31
-0.0008	-0.0181	0.0007	0.0045	31.6	31
0.0007	-0.0128	0.003	0.009	31.3	31
-0.0008	-0.012	0.0037	0.0082	31.1	31
0	-0.0158	0.003	0.009	31.2	31
-0.0015	-0.0091	0.0022	0.0075	31	31
-0.003	-0.012	0.0022	0.0067	31	31
-0.0015	-0.0068	0.0022	0.0015	30.9	31
-0.0008	-0.0091	0.0007	0.0007	30.8	31
0	-0.006	0.0045	-0.003	30.3	31
-0.0015	-0.0053	0.0037	-0.0053	30.7	31
-0.0015	-0.0046	0.0022	-0.0068	30.1	31
-0.0008	-0.0046	0.0007	-0.0083	30.4	31
-0.0008	-0.0053	-0.0008	-0.0091	30.2	31
0.0007	-0.003	-0.0015	-0.0091	30	31
0	-0.0053	-0.003	-0.0105	30.2	31
0	-0.0038	-0.0023	-0.0083	30	31
0.0007	-0.003	-0.003	-0.0046	29.7	31
-0.0008	0	-0.003	-0.003	29.9	31
0.0015	0.0015	-0.0046	0.0007	29.3	31
0.0015	0.0022	-0.003	0.003	29.6	31
0.0015	0.0045	-0.003	0.006	29.4	31
0.0022	0.0045	-0.003	0.012	29.3	31
0.0015	0.006	-0.0053	0.0165	29.3	31
0.003	0.0075	-0.0038	0.0097	29.1	31
0.0015	0.009	-0.0015	0.0022	29	31
0.0007	0.0105	-0.0008	0.003	29.1	31
-0.0008	0.0075	-0.0008	0.0045	28.9	31
0.0015	0.003	-0.0015	0.003	28.7	31
0	0.0015	-0.0015	0.0045	28.7	31
-0.0008	0.0007	-0.0015	0.0135	28.7	31
-0.0008	-0.0008	0	0.0165	28.4	31
-0.0015	-0.0008	0.0007	0.0052	28.7	31
-0.0015	0	0.0007	-0.0015	28.2	31
-0.0038	-0.0008	0	-0.0008	28.4	31
-0.003	-0.003	0.0007	-0.0008	28	31
-0.0015	-0.0015	0	-0.0008	28.1	31
-0.0015	-0.0015	0.0007	-0.0008	28.2	31
-0.0008	-0.0008	0.0015	-0.0015	28	31
-0.0008	0	0.0015	-0.0023	28.2	31
-0.0015	-0.0008	0.0022	-0.0008	27.8	31
0.0007	0	-0.0008	0.0015	27.9	31
0.003	-0.0008	-0.0008	0	27.8	31
0.003	0.0022	0.0007	0.0015	27.6	31
0.0015	0.003	0	0.0015	27.7	31
-0.0008	0.0022	0.0007	0.0007	27.6	31
-0.0015	0.003	0.0015	0.0007	27.9	31
-0.0008	0.0015	0.003	-0.003	27.3	31
-0.0008	-0.0008	0.003	-0.0075	27.8	31
-0.0023	-0.0038	0.003	-0.0083	27.3	31
-0.0038	-0.0068	0.0007	-0.0091	27.4	31
-0.003	-0.0105	-0.0008	-0.0128	27.5	31
-0.0023	-0.0203	0	-0.0143	27.1	31
-0.0008	-0.027	0.0007	-0.015	27.4	31
-0.0008	-0.0218	-0.0008	-0.0143	27.1	31
-0.0008	-0.0278	0.0007	-0.0158	27.2	31
0.0007	-0.0458	-0.0008	-0.0165	27	31
0.0015	-0.0495	-0.0008	-0.0113	27.2	31
0.003	-0.0383	0	-0.0083	27	31
0.003	-0.0165	-0.0008	-0.0053	26.8	31
0.003	0.0082	0	0.0022	27	31
0.0022	0.0465	0.0022	-0.0008	26.5	31
0.0015	0.072	0.0052	0.0082	26.9	31
0.0022	0.06	0.0075	0.0255	26.6	31
0.0022	0.0322	0.0082	0.0307	26.7	31
0.0045	0.0067	0.009	0.0442	26.7	31
0.0067	0.0202	0.0127	0.0547	26.4	31
0.0037	0.039	0.0127	0.0427	27	31
0.0015	0.0472	0.009	0.009	26.5	31
-0.0015	0.0412	0.0045	-0.0105	26.4	31
-0.0023	0.0105	0.0045	-0.0091	26.4	31
-0.0023	0.0195	0.0052	-0.0083	26.4	31
-0.0015	0.0105	0.0022	-0.012	26.4	31
-0.0015	-0.0128	0.0007	-0.0165	26.3	31
-0.003	-0.0091	-0.0008	-0.0165	26.7	31
-0.0023	-0.0233	-0.003	-0.0165	26.3	31
-0.003	-0.021	-0.003	-0.0135	26.4	31
-0.0015	-0.0181	-0.0023	-0.012	26.2	31
-0.0008	-0.0158	-0.0046	-0.0083	26.3	31
0	-0.0105	-0.0053	-0.0038	26.4	31
0.0015	-0.0128	-0.0068	-0.0046	26	31
0.0015	-0.006	-0.0053	-0.003	26.5	31
0.0007	-0.0008	-0.0038	0	26.1	31
0	0	-0.0046	0	26.1	31
0	-0.0083	-0.0053	-0.0038	26.1	31
0	-0.0098	-0.006	-0.003	26.4	31
0	-0.0113	-0.0068	-0.0023	26.1	31
-0.0008	-0.012	-0.0046	-0.0038	26	31
0.0007	-0.012	-0.0053	-0.0053	26.3	31
0.0007	-0.015	-0.003	-0.006	25.8	31
0.0007	-0.0113	-0.0023	-0.0046	26.4	31
-0.0015	-0.0128	-0.0046	-0.0075	25.9	31
-0.003	-0.012	-0.0053	-0.0083	26	31
-0.0015	-0.0046	-0.0053	-0.0083	26.2	31
-0.0015	0.003	-0.003	-0.006	25.7	31
-0.0015	0.0007	-0.0008	-0.0046	26.1	31
-0.0015	-0.003	-0.0008	-0.0046	25.6	31
-0.0008	-0.0098	-0.0015	-0.0046	25.8	31
0.0007	-0.024	-0.003	-0.0046	26	31
-0.0015	-0.0105	-0.0046	-0.003	25.6	31
0	0.0135	-0.0038	0.0067	25.8	31
0.0022	0.0127	-0.0008	0.0127	25.7	31
0.0037	-0.0083	-0.0008	0.0112	25.7	31
0.003	-0.0008	-0.0008	0.0112	25.7	31
0.0022	0.012	0	0.0127	26	31
0.0015	0.0045	0.0015	0.0135	25.6	31
-0.0015	0.0067	0	0.0105	25.5	31
-0.0015	-0.0023	-0.003	0.0082	25.9	31
-0.0015	0.0015	-0.0023	0.0067	25.3	31
-0.0015	0.0022	-0.0015	0.0037	25.6	31
-0.0008	-0.0015	-0.0015	0.0007	25.5	31
0.0007	0.003	-0.003	0.0007	25.3	31
0.0007	-0.0015	-0.0015	0.0007	25.6	31
0.0007	0.0015	-0.0015	-0.0008	25.2	31
0.0007	-0.0023	-0.003	-0.003	25.3	31
0.0007	-0.0015	-0.003	-0.0046	25.3	31
0.0007	-0.003	-0.006	-0.0053	25.2	31
0.003	-0.0053	-0.0038	-0.0053	25.2	31
0.0007	-0.003	-0.0038	-0.0068	25.2	31
-0.0015	-0.0038	-0.0046	-0.0075	25.1	31
-0.0023	-0.0015	-0.0046	-0.0075	24.8	31
-0.003	-0.0038	-0.0046	-0.0091	25.2	31
-0.0015	-0.0046	-0.0046	-0.0113	24.9	31
-0.0015	-0.0046	-0.006	-0.012	25	31
0.0007	-0.0038	-0.0023	-0.0143	25	31
0	-0.0046	0	-0.0135	24.7	31
-0.0015	-0.0038	-0.0015	-0.0128	24.9	31
-0.0015	-0.0008	0.0007	-0.0105	24.7	31
-0.0015	-0.0015	0.0007	-0.0068	24.7	31
-0.0008	0.0007	-0.0008	-0.0046	24.9	31
0.0007	0.0007	0	-0.0008	24.7	31
0.0007	0	0.0007	0.003	25	31
0.0007	-0.0008	0.0015	0.0052	24.7	31
0.0007	0.0007	0.0015	0.0082	24.5	31
-0.0008	0.0015	0.0022	0.012	24.7	31
0	0.0015	0.0022	0.012	24.6	31
-0.0015	0	0.0045	0.0105	24.5	31
-0.0008	-0.0015	0.0037	0.0067	24.4	31
0.0007	-0.0008	0.003	0.003	24.4	31
0.003	-0.0008	0.0037	0.0037	24.3	31
0.0045	-0.0015	0.003	0.0045	24.4	31
0.0022	-0.003	0.0045	0.0067	24.4	31
0.003	0.0075	0.0082	0.0037	24.3	31
0.0007	0.012	0.0067	0	24.4	31
-0.0008	0.0015	0.0052	0	23.9	31
0	0.0007	0.0045	-0.003	24.2	31
-0.0023	0.0022	0.0052	-0.003	24	31
-0.003	0.0015	0.006	-0.0046	23.9	31
-0.0023	-0.0008	0.0052	-0.0038	23.8	31
-0.003	-0.0053	0.003	-0.003	23.9	31
-0.0038	-0.0046	0.0037	-0.0053	23.9	31
-0.0046	-0.003	0.003	-0.0068	23.8	31
-0.0023	-0.003	0.0007	-0.0091	23.9	31
-0.0015	-0.003	0.0007	-0.0113	23.7	31
-0.0015	-0.0053	0.0007	-0.012	23.6	31
-0.0015	-0.0135	-0.0008	-0.0128	24	31
0.0007	-0.021	-0.0015	-0.012	23.4	31
0	-0.0233	-0.0015	-0.0075	23.8	31
0	-0.0315	-0.0015	-0.0023	23.6	31
0.0007	-0.048	-0.0008	0.0067	23.8	31
0.0007	-0.045	0	0.0097	23.4	31
0.003	-0.0008	0.003	0.0082	23.3	31
0.0022	0.0435	0.0037	0.0067	23.4	31
0.0045	0.0457	0.0045	0.009	23.2	31
0.0037	0.0487	0.0052	0.012	23.4	31
0.0015	0.042	0.0022	0.003	23.1	31
0.0022	0.0127	0.0015	0.0022	23.2	31
0	0.0307	0.0007	0.0052	23.2	31
0.0015	0.027	-0.0008	0.0007	22.9	31
0.0007	-0.0023	-0.0008	-0.003	23.2	31
-0.0008	0.0015	0	-0.0053	22.8	31
0.0007	0.0045	0.0015	-0.0068	23.2	31
-0.0008	0.0127	0.0015	-0.0075	22.9	31
-0.0008	-0.015	0.0022	-0.0015	22.9	31
-0.0008	-0.0225	0.003	-0.0008	22.9	31
-0.0015	-0.012	0.0022	-0.003	22.8	31
-0.0008	-0.027	0.0007	-0.003	23.1	31
0.0007	-0.0068	0.003	-0.003	22.6	31
-0.0008	0.0015	0.003	-0.0046	23	31
-0.0008	-0.0068	-0.0008	-0.0098	22.9	31
-0.0008	-0.006	-0.0015	-0.0091	22.8	31
-0.0023	0.0172	-0.0015	-0.0053	22.9	31
-0.0023	0.0135	0	-0.0068	22.6	31
-0.0008	-0.0113	0.0007	-0.0023	22.5	31
0.0007	-0.0053	0.0045	0.006	22.4	31
0.0015	-0.0068	0.0067	0.0135	22.9	31
0	-0.0038	0.0082	0.015	22.5	31
-0.0008	-0.012	0.009	0.0105	22.5	31
0.0015	-0.0105	0.0067	0.009	22.6	31
0.003	-0.0008	0.0067	0.0052	22.2	31
0.0022	-0.0046	0.0045	0.0067	22.8	31
0.0007	-0.0008	0.0015	0.0067	22.1	31
0.0007	-0.003	0.0015	0.0052	22.5	31
0	-0.0008	0.0022	0.0045	22.1	31
-0.0015	0.0015	0.003	0.0037	22.3	31
-0.0008	0.0007	0.003	0.0067	22.4	31
-0.0015	0.0015	0.0015	0.0045	22.1	31
-0.0015	-0.0015	0	0.0007	22.1	31
-0.0015	-0.0023	-0.0015	-0.003	22.1	31
-0.0015	-0.0068	-0.0023	-0.003	22.2	31
-0.0008	-0.0075	-0.0046	-0.0053	21.8	31
-0.0015	-0.006	-0.0068	-0.006	22.1	31
-0.0015	-0.0068	-0.0068	-0.0068	22	31
-0.0015	-0.0068	-0.0075	-0.0075	21.8	31
-0.003	-0.0068	-0.0098	-0.0083	22.1	31
-0.003	-0.0068	-0.0091	-0.0091	21.6	31
-0.0015	-0.0083	-0.0105	-0.0098	22.2	31
-0.0015	-0.0083	-0.0098	-0.0105	21.8	31
-0.0023	-0.0068	-0.0083	-0.0113	21.8	31
-0.0008	-0.0046	-0.0068	-0.0113	21.9	31
-0.0015	-0.0068	-0.0068	-0.0105	21.6	31
-0.0008	-0.0068	-0.0083	-0.0091	21.6	31
-0.0008	-0.0068	-0.006	-0.0068	21.7	31
-0.0015	-0.0075	-0.0053	-0.0068	21.8	31
0	-0.0091	-0.006	-0.0053	21.7	31
-0.0008	-0.0098	-0.0075	-0.0046	21.6	31
0.0007	-0.0075	-0.0075	-0.003	21.7	31
0.0007	-0.0083	-0.006	-0.0023	21.5	31
0.0007	-0.0098	-0.0068	-0.0015	21.5	31
0.0007	-0.0098	-0.0046	0.0007	21.2	31
0.0007	-0.0015	-0.0046	0.006	21.5	31
0.0022	0.0127	-0.0053	0.012	21.1	31
0.0015	0.0142	-0.0046	0.015	21.3	31
0.003	0.018	-0.003	0.018	21.2	31
0.0022	0.0457	-0.0015	0.0165	21.1	31
0.0015	0.048	-0.003	0.0127	21.3	31
0.0015	0.0195	0.0007	0.012	21.2	31
0	0.0082	-0.0015	0.009	21	31
-0.0015	-0.0015	-0.003	0.0067	21.1	31
-0.0038	-0.0046	-0.0015	0.0067	21	31
-0.003	-0.003	-0.0038	0.0037	21	31
