File Name: 11Asen.log
Channel 1: 'Recto femoral', 25302 values, engineering units: mV, no filters.
Channel 2: 'Biceps Femoral', 25302 values, engineering units: mV, no filters.
Channel 3: 'Vasto Medial', 25302 values, engineering units: mV, no filters.
Channel 4: 'Semitendinoso', 25302 values, engineering units: mV, no filters.
Channel 5: 'Flexo', 25302 values, engineering units: deg, no filters.
Digitals combined (event=16, d=8, c=4, b=2, a=1): 25302 values, .

-0.0008	-0.0015	-0.0008	-0.0015	78.7	31
0.0007	-0.0015	-0.0008	-0.0008	78.5	31
-0.0008	0	-0.003	0.0007	78.7	31
0	0	-0.0008	-0.0008	78.6	31
-0.0015	0	0.0007	-0.0015	78.7	31
0	0	-0.0008	-0.0015	78.5	31
-0.0008	-0.0008	0	-0.0023	78.7	31
-0.003	0	0	-0.0023	78.7	31
-0.0023	-0.0008	0.0007	-0.0015	78.5	31
-0.0008	-0.0015	-0.0008	-0.0015	78.5	31
-0.0008	-0.0015	-0.0008	-0.0015	78.8	31
-0.0015	0	-0.0015	-0.0015	78.6	31
0	0.0007	-0.0015	-0.0015	78.5	31
0.0007	-0.0023	-0.0008	-0.0015	78.9	31
0	-0.003	-0.0008	-0.0015	78.7	31
-0.0008	-0.0023	-0.0008	-0.0008	78.5	31
-0.0008	-0.003	-0.0015	-0.0008	78.6	31
-0.0015	-0.0015	-0.0008	0	78.8	31
-0.0023	-0.0008	-0.003	0.0007	78.7	31
0.0007	0	0	-0.0008	78.7	31
0.0007	-0.0008	0	0	78.5	31
0.0007	-0.0015	-0.0008	0	78.6	31
0.0022	-0.0008	-0.0008	-0.0008	78.3	31
0.0007	-0.0015	0.0007	0.0007	78.9	31
0.0015	-0.0015	0.0015	0.0007	78.4	31
0.0022	-0.0015	0	-0.0015	78.6	31
0	-0.0023	0	-0.0008	78.7	31
-0.0015	-0.0008	0	-0.0008	78.5	31
0	-0.0008	-0.0015	0.0007	79	31
0	-0.0015	0.0007	0.0007	78.5	31
0.0007	-0.0008	0.0007	-0.0015	78.7	31
0.0007	-0.0015	0.0022	-0.0008	78.7	31
-0.0008	-0.0008	0.0015	-0.003	78.5	31
0	0	0	-0.0008	78.6	31
-0.0008	0.0007	0	0	78.7	31
-0.0008	0.0007	0.0007	-0.0008	78.7	31
-0.0008	0	0.0007	0.0007	78.7	31
-0.0008	-0.0015	0	-0.0015	78.6	31
0	0	0.0007	-0.0008	78.8	31
0.0007	-0.0008	-0.0008	-0.0015	78.3	31
0.0015	-0.0023	0	-0.0008	78.7	31
-0.0015	-0.0008	-0.0008	-0.0008	78.6	31
-0.0015	-0.0008	-0.0015	-0.0015	78.6	31
-0.0008	-0.0015	-0.0008	-0.0015	78.9	31
-0.0008	-0.0008	-0.0015	-0.0015	78.7	31
-0.0008	0.0007	-0.0008	0	78.7	31
0.0007	0	-0.0015	-0.0015	78.8	31
0.0015	-0.0015	-0.0008	-0.0015	78.3	31
0.0007	-0.0015	-0.0015	-0.0015	78.9	31
-0.0008	-0.0023	0	-0.0015	78.7	31
0.0007	-0.0023	0.003	-0.0015	78.7	31
0.0007	-0.0008	0.0007	-0.0015	78.7	31
0	-0.0008	0	-0.0008	78.7	31
0.0007	-0.0023	0.0007	0	78.7	31
0.0007	-0.0015	0.0015	-0.0008	78.6	31
0.0007	-0.0023	-0.0008	-0.0015	78.7	31
0.0007	-0.0046	-0.0008	-0.0015	78.7	31
0.0007	-0.003	-0.0015	-0.0015	78.4	31
0.0007	-0.003	-0.0015	-0.0008	79	31
-0.0015	-0.0015	0.0007	0	78.6	31
-0.003	-0.0008	0	-0.0008	78.7	31
-0.0015	-0.0015	-0.0015	-0.0008	78.7	31
-0.0008	-0.0015	-0.0008	-0.0008	78.5	31
-0.0008	-0.0015	0.0015	-0.0008	78.7	31
0	-0.003	0.0007	-0.0023	78.5	31
0	-0.0015	0	-0.003	78.6	31
0.0007	-0.0008	0.0007	-0.0008	78.7	31
0	-0.0015	-0.0015	-0.0008	78.7	31
0	-0.0015	-0.0008	0	78.7	31
0.0007	-0.0015	0.0015	-0.0008	78.5	31
0.0007	-0.0015	0.0015	0.0007	78.7	31
0.0007	-0.0008	0.0007	0.0015	78.6	31
0.0007	-0.0008	-0.0008	0	78.4	31
0	-0.0008	-0.0015	0	78.7	31
0.0007	-0.0008	-0.0008	-0.0008	78.5	31
0.0015	-0.0015	-0.0008	-0.0015	78.6	31
0	-0.0015	-0.0023	-0.0023	78.7	31
-0.0015	-0.0023	-0.0008	-0.0015	78.4	31
-0.0015	-0.0015	-0.0015	-0.0015	78.7	31
-0.0015	-0.0015	-0.0023	-0.0015	78.7	31
-0.0008	-0.0008	-0.0015	0.0007	78.7	31
-0.0008	0.0007	-0.0015	0	78.5	31
0	-0.0008	-0.0008	-0.0015	78.5	31
-0.0015	-0.0008	-0.0015	0	78.7	31
-0.0008	-0.0008	-0.0008	0	78.6	31
-0.0008	-0.0008	0	-0.0015	78.7	31
-0.0015	0	0	-0.0008	78.7	31
-0.0015	-0.0008	0	-0.0015	78.5	31
-0.0023	-0.0015	0	-0.0015	78.7	31
-0.0023	-0.0015	-0.0008	-0.0008	78.7	31
-0.0008	-0.0023	-0.0015	-0.0008	78.5	31
-0.0008	-0.0008	0.0007	-0.0015	79	31
-0.0015	-0.0008	0	-0.0015	78.4	31
-0.0008	-0.0015	-0.0008	-0.0008	78.7	31
-0.0008	0	0	-0.0023	78.8	31
-0.0015	-0.0015	-0.0015	-0.003	78.7	31
0.0015	0.0007	-0.0015	-0.0023	78.8	31
-0.0008	0.0007	-0.0008	-0.0008	78.7	31
-0.0008	-0.0008	0.0007	-0.0015	78.7	31
0.0007	0.0007	0.0007	-0.0015	78.6	31
-0.0008	-0.0008	-0.0008	-0.0008	78.6	31
-0.0008	-0.0015	0.0007	-0.0023	78.7	31
-0.0008	-0.0023	0	-0.0023	78.3	31
0.0007	-0.0023	-0.0008	-0.0023	78.8	31
0	-0.0023	0	-0.0015	78.5	31
-0.0008	-0.0008	-0.0008	-0.0015	78.6	31
0	-0.0008	0.0007	-0.0015	78.7	31
0.0007	-0.0015	-0.0015	-0.0008	78.4	31
0.0007	0	-0.003	-0.0015	78.9	31
0.0007	-0.0008	-0.0008	-0.0015	78.5	31
0.0015	-0.0008	-0.0008	-0.0023	78.7	31
0	-0.0015	-0.0015	-0.0008	78.7	31
0.0007	-0.0015	-0.0008	-0.0015	78.4	31
0	-0.0015	-0.0008	-0.0015	78.5	31
-0.0015	-0.003	-0.0008	-0.0008	78.6	31
-0.0015	-0.003	0.0007	-0.0008	78.5	31
-0.0015	-0.0015	0.0015	-0.0008	78.5	31
-0.0008	-0.0038	0	-0.0008	78.5	31
-0.0023	-0.0015	-0.0008	-0.0008	79	31
-0.0008	-0.0008	0.0007	-0.0015	78.3	31
0.0007	-0.0015	-0.0008	0	78.8	31
-0.0008	-0.0008	0.0007	-0.0015	78.7	31
-0.0008	-0.0015	0.0022	-0.0015	78.4	31
-0.0008	-0.0008	0.0022	-0.0015	78.7	31
0.0007	-0.0008	0.0015	-0.0015	78.5	31
0	-0.0008	0.0007	-0.0008	78.5	31
0	0.0015	0	-0.0008	78.8	31
0.0007	0.0007	0.0015	-0.0015	78.4	31
-0.0008	0	0.0015	-0.0008	78.6	31
-0.0008	-0.0008	0.0015	-0.0008	78.5	31
0	-0.0008	0.0007	-0.0015	78.7	31
0	-0.0008	0.0015	-0.0008	78.8	31
0.0007	-0.0008	0.003	-0.0015	78.7	31
0	-0.0015	0.0015	-0.0023	78.7	31
0.0007	-0.0008	0.0015	-0.003	78.5	31
0	-0.0008	0.0022	-0.003	78.8	31
0.0015	-0.0008	0.0015	-0.003	78.8	31
0.0007	0.0007	0.0007	-0.003	78.5	31
-0.0008	-0.0015	0.0007	-0.0015	78.9	31
0.0015	-0.0015	0.0007	-0.0008	78.5	31
-0.0008	-0.003	0.0007	-0.0008	78.6	31
0	-0.0038	0.0015	-0.0023	78.7	31
0.0007	-0.0038	0.0007	-0.0015	78.4	31
0	-0.003	-0.0008	-0.0008	78.8	31
0.0007	-0.0015	0.0015	-0.0015	78.7	31
0.0007	-0.0023	-0.0008	-0.0008	78.6	31
0.0015	-0.003	-0.0008	-0.0008	78.5	31
0.0007	-0.003	-0.0008	-0.0008	78.7	31
-0.0008	-0.0015	-0.0015	-0.0008	78.7	31
0.0007	-0.0015	0.0007	0.0007	78.6	31
0.0007	-0.0015	-0.0008	0.0007	78.7	31
-0.0008	-0.0015	0.0007	-0.0008	78.6	31
0	-0.0015	-0.0008	-0.0008	78.5	31
0	-0.0015	-0.0015	-0.0008	78.8	31
0	0.0015	-0.0008	0.0007	78.5	31
0.0007	0.0007	-0.003	0.0022	78.6	31
0	-0.0008	-0.0008	0.0007	78.7	31
0.0007	-0.0008	-0.0008	-0.0008	78.6	31
0.0007	-0.003	-0.0015	0	78.7	31
0	-0.003	-0.0008	0.0007	78.7	31
0.0007	-0.0023	-0.0008	-0.0008	78.5	31
0.0007	-0.0008	-0.0008	0	78.6	31
-0.0015	-0.0008	-0.0015	-0.0008	78.7	31
-0.0015	-0.0008	-0.0015	-0.0008	78.7	31
-0.0008	0	-0.0015	0	78.5	31
-0.0008	0.0015	-0.003	0.0007	79	31
0.0015	-0.0008	-0.0015	0.0015	78.6	31
0.0007	-0.0008	0	-0.0008	78.7	31
-0.0008	0.0007	0.0007	-0.0015	78.9	31
0	0.0007	0.0007	-0.0015	78.3	31
-0.0008	-0.0008	-0.0008	-0.0015	78.7	31
0	-0.0015	-0.0015	0.0007	78.7	31
-0.0008	-0.0023	0	0	78.7	31
-0.0008	-0.003	0.0007	0	78.9	31
0.0007	-0.0023	0.0015	-0.0008	78.4	31
-0.0008	-0.0015	0.0022	-0.0008	78.9	31
-0.0015	0.0007	0.0007	-0.0015	78.8	31
-0.0008	0.0015	0.0007	-0.0008	78.7	31
-0.0015	-0.0008	0.0015	-0.0008	78.6	31
-0.0008	-0.0015	0.0015	-0.0008	78.7	31
-0.0015	-0.0023	0.0007	-0.0015	78.7	31
-0.0015	-0.0023	0.0007	0	78.6	31
-0.0008	-0.003	0.0007	-0.0008	78.6	31
-0.0015	-0.0015	0	0	78.8	31
-0.0015	-0.0023	0.0007	-0.0008	78.5	31
-0.0015	-0.0015	-0.0008	-0.0015	78.9	31
-0.0023	-0.0008	-0.0015	-0.0015	78.5	31
-0.0008	-0.0015	-0.0008	-0.0015	78.8	31
0.0007	-0.0015	-0.0015	0.0007	78.8	31
-0.0008	-0.003	-0.0015	-0.0008	78.5	31
0	-0.0015	-0.003	-0.0015	78.8	31
0.0007	0	-0.0008	-0.0015	78.5	31
-0.0008	0.0007	-0.0008	-0.0008	78.7	31
0	0.0007	-0.0008	-0.0008	78.8	31
0.0007	-0.0015	-0.0008	-0.0015	78.7	31
0.0022	-0.0023	-0.0015	-0.003	78.6	31
0.0015	-0.0023	0	-0.0023	78.5	31
0.0007	-0.0023	0.0007	-0.0008	78.8	31
0.0007	-0.0015	0	-0.0008	78.7	31
0	-0.0015	0	-0.0008	78.6	31
-0.0015	-0.0015	0.0015	-0.0015	79	31
-0.0015	0	0.0015	-0.0008	78.5	31
0.0007	0.0007	-0.0008	-0.0015	78.8	31
0.0007	-0.0008	0	-0.0015	78.8	31
0	-0.0015	-0.0008	0.0007	78.5	31
0.0007	-0.0015	-0.0015	0	78.9	31
0.0007	-0.0023	-0.0008	-0.0008	78.7	31
0	-0.0015	0	0	78.7	31
0.0007	-0.0015	-0.0008	0	78.7	31
0	-0.0015	-0.0015	-0.0008	78.7	31
-0.0015	-0.0008	-0.0008	-0.0008	78.7	31
0	-0.0008	-0.0015	0	78.7	31
0.0007	-0.0008	-0.0008	-0.0008	78.8	31
0	0	0	-0.0015	78.7	31
0.0007	-0.0008	0.0007	-0.0015	78.6	31
0.0015	-0.0008	0.0022	-0.0015	78.8	31
0.0007	-0.0008	-0.0008	0	78.6	31
0.0007	-0.0008	-0.0008	0	78.7	31
0	-0.0015	-0.0008	-0.0015	78.7	31
0.0007	-0.003	0.0007	0.0007	78.5	31
0.0015	-0.003	0	0.0007	79.1	31
0.0007	-0.003	0.0007	0	78.5	31
0.0007	-0.003	0.0007	0.0015	78.6	31
0.0007	-0.0008	0	0.0015	78.7	31
0	0	-0.0008	0.0007	78.7	31
0	0	-0.0008	0.0007	78.7	31
-0.0008	-0.0008	-0.0008	-0.0008	78.7	31
-0.0008	-0.003	-0.0008	-0.0008	78.7	31
0	-0.0023	0.0007	0.0007	78.6	31
0	-0.003	0.0007	0.0007	78.6	31
-0.0008	-0.003	0.0007	-0.0008	78.8	31
0	-0.0023	-0.0008	-0.0008	78.4	31
0.0007	-0.0023	-0.0008	-0.0015	78.8	31
-0.0008	-0.0015	0.0015	-0.0015	78.6	31
0.0015	-0.0015	0.0022	0	78.6	31
-0.0008	-0.0008	0.0015	-0.0008	78.9	31
-0.0008	-0.0008	-0.0008	-0.0008	78.3	31
-0.0015	0.0015	-0.0008	-0.0008	78.8	31
-0.0015	0.0007	0	0.0007	78.7	31
0	0	0	0.0007	78.5	31
-0.0015	0.0015	0	-0.0015	78.7	31
-0.0015	0	0.0007	-0.0023	78.5	31
-0.0015	-0.0015	0	-0.0015	78.6	31
-0.0015	-0.0008	-0.0023	-0.0015	78.6	31
-0.0008	-0.0023	-0.0008	-0.0015	78.5	31
-0.0008	-0.0023	0	-0.0008	78.7	31
0	-0.0015	0	-0.0008	78.6	31
0.0015	-0.0008	-0.0015	-0.0023	79	31
-0.0008	-0.0023	-0.0015	-0.0015	78.5	31
-0.0008	-0.003	0.0007	-0.0023	78.7	31
-0.0008	-0.0015	-0.0008	-0.0015	78.8	31
-0.0008	-0.0008	0.0007	-0.0015	78.5	31
-0.0008	-0.0015	-0.0015	-0.0015	78.6	31
-0.0008	-0.0023	-0.0008	-0.0023	78.7	31
0.0015	-0.0015	-0.0008	-0.0015	78.5	31
-0.0015	-0.0015	0	-0.0008	78.8	31
-0.0008	-0.0023	0	-0.0015	78.8	31
0.0007	-0.0008	0.0007	-0.0023	78.5	31
-0.0008	-0.0008	0.0007	-0.0015	78.6	31
0	0.0007	0.0007	-0.0023	78.8	31
0.0007	0.0007	0	-0.0008	78.6	31
0	-0.0008	-0.0015	0.0007	78.4	31
0.0007	-0.0008	-0.0008	0.0007	78.7	31
0.0015	-0.0008	-0.0015	0.0015	78.5	31
0.0007	-0.0008	0	0	78.7	31
-0.0008	-0.0015	0.0007	-0.0008	78.7	31
0.0007	-0.0008	0.0007	-0.0015	78.5	31
0.0007	-0.0008	0.0007	-0.0008	78.9	31
-0.0015	-0.0008	-0.0008	-0.0015	78.5	31
-0.0015	-0.0008	-0.0015	-0.0008	78.7	31
0	-0.0015	-0.0008	0	78.8	31
-0.0008	-0.0008	-0.0008	-0.0008	78.5	31
-0.0008	0	-0.0008	0	78.7	31
-0.0008	-0.0008	0.0007	-0.0008	78.6	31
-0.0008	-0.0023	0.0007	-0.0015	78.6	31
0	-0.0008	0.0007	-0.003	78.6	31
0.0015	0	0.0007	-0.0008	78.3	31
0.0015	-0.0023	-0.0008	-0.0015	78.9	31
0.0015	-0.0023	-0.0015	-0.0015	78.4	31
0.0007	-0.003	-0.0008	-0.0008	78.7	31
0.0007	-0.0015	0	0.0007	78.7	31
0.0007	0	0	0.0037	78.5	31
-0.0008	-0.0008	-0.0008	0.0007	78.8	31
0	-0.003	-0.0015	0.0015	78.5	31
-0.0015	-0.0038	0	0.0007	78.7	31
-0.003	-0.0023	-0.0015	0.0007	78.7	31
0.0007	-0.003	-0.0008	0.0007	78.5	31
0.0007	-0.003	-0.0008	0	78.7	31
-0.0008	-0.0008	0.0007	0.0007	78.6	31
0.0007	-0.0008	0.0015	0	78.6	31
0.0007	0	-0.0008	0.0007	78.7	31
0	-0.0015	0	-0.0008	78.8	31
0	-0.0015	0	-0.0023	78.7	31
0	-0.0008	0.0007	-0.003	78.5	31
-0.0008	-0.0015	0	-0.0023	78.9	31
-0.0008	-0.0038	-0.0015	-0.0015	78.5	31
-0.0015	-0.0038	-0.0008	-0.003	78.7	31
-0.0015	-0.0015	-0.0008	-0.0015	78.7	31
-0.0015	-0.0008	0	-0.003	78.5	31
0.0015	0	0	-0.003	78.8	31
0.0007	-0.0008	-0.0008	-0.003	78.6	31
0	-0.0015	0.0007	-0.003	78.6	31
0	-0.003	0	-0.003	78.8	31
-0.0008	-0.003	0	-0.0046	78.5	31
-0.0008	-0.0015	-0.0008	-0.003	78.6	31
0	-0.003	-0.0008	-0.0015	78.5	31
0.0007	-0.0023	-0.0008	-0.0015	78.6	31
0	-0.0015	-0.0008	-0.0008	78.5	31
0.0007	-0.0015	-0.0008	0.0007	78.5	31
0.0015	-0.0015	-0.0008	0.0007	78.7	31
0.0007	-0.0008	0.0007	-0.0008	78.7	31
0.0007	-0.0008	0	-0.0015	78.5	31
0.0007	0.0007	-0.0015	-0.0015	78.7	31
0.0007	0.0007	-0.0008	-0.0023	78.3	31
-0.0008	-0.0008	0.0015	-0.0015	78.7	31
-0.0008	0.0007	0.0007	-0.0008	78.6	31
-0.0008	-0.0015	0.0007	0	78.7	31
-0.0008	-0.0015	0.0007	0	78.7	31
0.0007	-0.0008	0.0007	0.0007	78.6	31
-0.0008	-0.0008	0	0.0007	78.7	31
-0.0008	-0.0015	0.0007	-0.0008	78.6	31
-0.0008	-0.0008	0.0015	-0.0008	78.7	31
-0.0008	-0.0023	0	0	78.7	31
-0.0008	-0.003	-0.0008	0.0007	78.5	31
0	-0.0015	0	0.0007	78.8	31
-0.0008	-0.003	-0.0008	-0.0015	78.5	31
-0.0008	-0.0023	-0.0015	-0.0008	78.7	31
-0.0008	-0.0015	-0.0015	-0.0008	78.8	31
-0.0015	-0.0008	-0.0015	-0.0008	78.4	31
-0.0008	0	-0.0015	-0.0015	78.9	31
0	-0.0008	0	-0.0015	78.6	31
-0.0008	0	0.0007	-0.0015	78.5	31
-0.0008	-0.0015	-0.0008	-0.0023	78.8	31
0	-0.0008	-0.0015	-0.0015	78.5	31
0.0007	0	0	-0.0008	78.6	31
0	-0.0015	0	-0.0008	78.7	31
0	0.0007	-0.0015	0.0007	78.7	31
-0.0008	0.0007	0.0007	-0.0008	78.6	31
-0.0008	0	-0.0008	-0.0008	78.6	31
-0.0008	-0.0008	0	-0.0015	78.8	31
0	-0.0015	0.0007	-0.0015	78.5	31
0.0007	-0.0015	-0.0008	-0.0015	78.8	31
-0.0008	-0.0015	-0.0015	-0.0015	78.7	31
-0.0008	-0.0015	-0.0008	-0.0008	78.5	31
-0.0008	-0.0015	0	0	78.7	31
-0.0008	-0.0008	-0.0008	-0.0008	78.6	31
-0.0015	0	0	-0.0008	78.4	31
-0.0008	0	0	-0.0015	78.7	31
0.0015	0.0007	-0.0008	-0.0015	78.4	31
-0.0008	-0.0023	0.0015	-0.0015	78.8	31
-0.0008	-0.003	0.0007	-0.0015	78.5	31
0	-0.0023	0.0007	-0.0008	78.7	31
0.0007	-0.0015	0.0015	0.0007	78.7	31
-0.0015	-0.003	0.0015	0.0015	78.7	31
-0.0008	-0.003	0.0007	0.0007	78.7	31
-0.0008	-0.003	0.0007	-0.0008	78.5	31
-0.0008	-0.0023	0.0007	-0.0008	78.6	31
-0.0008	-0.0008	0.0007	-0.0008	78.7	31
-0.0015	0.0007	0.0015	-0.0015	78.5	31
-0.0008	0.0007	0.0007	-0.0008	78.9	31
-0.0008	-0.0008	-0.0008	-0.0008	78.4	31
-0.0008	-0.0015	0	-0.0008	78.7	31
-0.0008	-0.003	-0.0008	-0.0008	78.6	31
-0.0015	-0.0008	-0.0008	-0.0015	78.5	31
-0.0015	0.0007	-0.0015	-0.0015	78.9	31
0	0	-0.0008	-0.0008	78.5	31
0.0007	-0.0008	0.0007	0.0007	78.7	31
0.0007	-0.0015	-0.0015	-0.0008	78.7	31
0.0015	0	0	-0.0023	78.6	31
-0.0015	0	0.0007	-0.0015	78.7	31
-0.003	0.0007	0.0007	-0.003	78.6	31
0	-0.0008	0	-0.0023	78.9	31
0.0007	-0.0015	0.0007	-0.0038	78.7	31
0.0022	-0.0015	0.0022	-0.003	78.7	31
0.0015	-0.0015	0	-0.003	78.8	31
0.0015	-0.0015	-0.0015	-0.0015	78.3	31
0	-0.0015	-0.0008	-0.0008	78.8	31
0	-0.0008	-0.0008	-0.0008	78.5	31
0.0007	-0.0023	-0.0008	0.0015	78.5	31
0	-0.0015	-0.0015	0	78.7	31
0.0007	-0.0015	-0.0008	-0.0008	78.5	31
0.0007	-0.0015	-0.0008	-0.0008	78.5	31
0.0015	0	-0.0008	-0.0008	78.7	31
0.0015	0	-0.0008	-0.0008	78.5	31
0.0015	0	-0.0015	-0.0015	78.7	31
0.0007	-0.0015	-0.0008	0	78.7	31
0.0007	-0.0015	-0.0008	0.0007	78.6	31
0.0022	-0.0008	0	0.0015	78.4	31
0.0007	-0.0008	-0.0008	0	78.7	31
0.0007	-0.0008	0.0007	-0.0015	78.7	31
0.0007	-0.0008	0.0015	-0.0008	78.4	31
-0.0008	-0.0008	0.0015	0.0007	78.7	31
0.0015	-0.0008	0.003	-0.0008	78.5	31
-0.0008	-0.0015	0.0007	0	78.4	31
-0.0023	0	0	0	78.8	31
0.0007	0	-0.0008	0	78.3	31
-0.0008	-0.0015	-0.003	0	78.6	31
-0.0008	-0.0008	-0.0015	-0.0015	78.5	31
0.0007	0.0007	-0.0023	-0.0015	78.6	31
0.0007	0.0007	-0.0008	-0.0015	78.6	31
0	0.0015	0	0	78.5	31
-0.0008	0.0015	0.0007	-0.0008	78.7	31
-0.0015	0	0.0007	-0.0015	78.5	31
-0.0015	0.0007	-0.0008	-0.0008	78.7	31
-0.003	0	-0.0015	-0.0008	78.7	31
-0.0023	-0.0008	-0.0008	0	78.3	31
-0.0008	-0.0015	0	-0.0008	78.9	31
-0.0015	-0.0015	0.0007	0	78.5	31
-0.0008	-0.0015	0.0007	-0.0015	78.6	31
-0.0008	-0.0008	0	-0.0008	78.9	31
-0.0008	-0.0015	0	-0.0015	78.3	31
-0.0008	-0.0015	-0.0008	-0.0015	78.7	31
-0.0015	-0.0023	-0.0008	-0.0008	78.5	31
-0.003	-0.0046	-0.0015	0	78.5	31
-0.0023	-0.0038	-0.0008	-0.0008	78.7	31
0.0007	-0.003	0.0007	-0.0008	78.6	31
-0.0008	-0.003	0.0015	0	78.5	31
-0.0008	-0.003	0.0015	-0.0008	78.7	31
0.0015	-0.003	0.0007	-0.0015	78.6	31
0.0022	-0.0023	0	-0.0008	78.5	31
0.0007	-0.0015	-0.0008	-0.0015	78.6	31
0.0015	-0.0015	-0.0008	-0.0015	78.7	31
0.0022	0	0	-0.0015	78.3	31
0.0015	0	-0.0008	-0.0008	78.7	31
0.0007	0	-0.0008	0.0015	78.7	31
0.0007	0	-0.0008	0.0007	78.5	31
0	-0.0008	-0.0008	0	78.7	31
0	-0.0008	-0.0008	0	78.5	31
0.0007	-0.0015	-0.0008	0.0007	78.4	31
0.0007	-0.0015	0	0.0015	78.7	31
-0.0008	-0.0015	-0.0008	0.0007	78.4	31
-0.0015	0	-0.0008	0	78.5	31
0.0007	-0.0015	-0.0008	-0.0008	78.6	31
0.0015	-0.003	-0.0008	-0.0008	78.5	31
0	-0.0015	0	-0.0008	78.5	31
-0.0008	-0.0015	0	0.0007	78.5	31
-0.0023	-0.0015	-0.0008	0	78.7	31
-0.003	-0.0015	0	-0.0008	78.5	31
-0.0023	-0.0023	0.0007	0.0015	78.6	31
-0.0008	-0.0015	0.0022	0.0007	78.7	31
0.0015	-0.003	0.0015	-0.0008	78.3	31
0.0007	-0.0038	0	-0.0008	78.8	31
-0.0023	-0.0015	0.0015	-0.0008	78.4	31
-0.0015	0	0.0022	0	78.6	31
-0.0008	-0.0015	0.0015	-0.0015	78.6	31
0.0007	-0.0008	0.0007	-0.0015	78.3	31
0.0007	-0.0008	-0.0008	-0.0015	78.7	31
0	-0.0015	0	-0.0023	78.8	31
0.0007	-0.0015	0.0015	-0.0023	78.6	31
0.0015	-0.0023	0.0015	-0.003	78.6	31
0.0015	-0.0015	0.0015	-0.0023	78.5	31
-0.0008	-0.0015	0.0007	-0.003	78.8	31
-0.0015	0.0007	0	-0.003	78.4	31
-0.0008	0.0007	0	-0.0023	78.7	31
0.0007	-0.0023	-0.0015	-0.0023	78.5	31
0.0015	-0.0015	-0.0008	-0.0015	78.5	31
0.0007	-0.0008	0	0.0007	78.7	31
0.0007	0.0007	-0.0008	-0.0008	78.4	31
0.0007	-0.0008	-0.0008	-0.0008	78.6	31
0.0007	-0.003	-0.0008	-0.0008	78.6	31
0.0007	-0.003	-0.0008	-0.0015	78.4	31
-0.0008	-0.0023	-0.0008	-0.0008	78.6	31
0.0007	-0.0015	-0.0008	-0.0023	78.7	31
0.0015	-0.0015	-0.0008	-0.0015	78.5	31
-0.0008	-0.003	0	-0.0015	78.4	31
-0.0023	-0.0023	-0.0008	-0.0023	78.5	31
-0.0015	-0.0023	0.0007	-0.003	78.7	31
-0.0015	-0.0015	0.0015	-0.0015	78.2	31
-0.0008	-0.0023	-0.0008	-0.0015	78.7	31
-0.0008	-0.0015	-0.0008	-0.0015	78.5	31
0.0007	-0.0008	-0.0008	-0.0008	78.4	31
0	-0.0015	-0.0015	0.0007	78.5	31
-0.0015	-0.0008	-0.0008	0.0007	78.4	31
-0.0008	0	-0.0008	-0.0015	78.5	31
-0.0008	0.0007	-0.0008	-0.0015	78.7	31
-0.0008	-0.0008	-0.0008	-0.0015	78.3	31
-0.0015	-0.0015	0	-0.0015	78.7	31
0.0015	-0.0015	-0.0008	-0.0015	78.5	31
0.003	-0.0015	0	-0.0008	78.4	31
0.0007	-0.0015	0	-0.0015	78.5	31
-0.0008	-0.0015	-0.0015	-0.0015	78.5	31
-0.0008	-0.0008	-0.0008	-0.0015	78.7	31
-0.0008	-0.0023	-0.0008	-0.0015	78.5	31
-0.0008	-0.0023	-0.0008	-0.0008	78.6	31
-0.0008	-0.0015	0	-0.0008	78.6	31
-0.0008	-0.0015	0	-0.0008	78.6	31
0.0007	0	-0.0008	0	78.7	31
0.0007	0.0007	-0.0015	0.0007	78.3	31
-0.0008	0.0007	0	-0.0015	78.7	31
-0.0015	0.0015	-0.0008	-0.0008	78.5	31
0.0007	0.0007	-0.0008	-0.0023	78.4	31
0	0.0007	0.0007	-0.003	78.9	31
-0.0008	0.0007	0.0007	-0.0015	78.3	31
-0.0008	-0.0008	0.0015	-0.0008	78.8	31
0.0007	-0.0015	0.0022	-0.0008	78.5	31
0.0015	-0.0015	0.0015	-0.0008	78.5	31
0.0015	0	0.0015	-0.0015	78.5	31
0.0007	0.0007	-0.0008	-0.0015	78.6	31
-0.0008	-0.0008	-0.0008	-0.0008	78.6	31
-0.0008	-0.0023	0	-0.0008	78.5	31
-0.0008	-0.0023	0	0	78.5	31
-0.0015	-0.003	0.0007	-0.0015	78.7	31
-0.0015	-0.003	-0.0015	-0.0015	78.2	31
-0.0015	-0.0008	-0.0008	0.0007	78.7	31
-0.0023	-0.0015	-0.0008	0.0007	78.5	31
-0.0008	-0.0008	-0.0008	0.0015	78.4	31
-0.0008	0.0007	0	0.0015	78.6	31
-0.0008	-0.0015	-0.0008	0.0015	78.4	31
0.0007	-0.0008	0	0	78.5	31
0.0007	-0.0008	0.0022	0	78.7	31
0.0007	-0.0015	0.003	-0.0008	78.5	31
0.0007	-0.003	0.003	-0.0008	78.6	31
-0.0008	-0.003	0.0015	-0.0008	78.6	31
-0.0008	-0.0008	0	-0.0008	78.5	31
0	-0.0015	-0.0008	-0.0008	78.3	31
-0.0008	0	-0.0008	-0.0015	78.6	31
-0.0008	0	-0.0008	-0.0008	78.5	31
0.0007	-0.0008	-0.0008	0	78.5	31
0.0007	0	0.0007	0.0015	78.6	31
0.0015	0.0007	0.0007	0.0007	78.4	31
0.0015	0	0	0.0015	78.5	31
0	-0.0015	-0.0008	0.0015	78.7	31
0.0007	-0.0008	-0.0015	0.0015	78.3	31
0	-0.003	-0.0015	0.0022	78.7	31
-0.0015	-0.0008	-0.0008	0.0007	78.5	31
-0.0008	0.0007	-0.0008	0	78.3	31
-0.003	-0.0008	-0.0015	0.0007	78.5	31
-0.0008	-0.0008	0.0007	-0.0008	78.7	31
0.0007	-0.003	0	-0.0008	78.6	31
0	-0.0015	0	0.0007	78.5	31
0.0007	-0.0015	0.0015	0.0007	78.5	31
0.0007	-0.0008	0	-0.0015	78.6	31
0	0	0.0007	0	78.3	31
-0.0008	-0.0008	0.0015	-0.0008	78.8	31
-0.0015	-0.0008	0	-0.0015	78.4	31
-0.0015	-0.0008	0.0007	-0.0015	78.6	31
0.0007	0	-0.0008	-0.003	78.7	31
0.0007	-0.0008	-0.0015	-0.0023	78.3	31
0.0015	-0.0015	-0.0008	-0.0015	78.9	31
0.0015	-0.0023	0	-0.0015	78.4	31
-0.0008	-0.0038	0.0007	-0.0015	78.6	31
0.0007	-0.0023	-0.0008	-0.0008	78.7	31
0.0007	-0.0015	-0.0008	-0.0008	78.5	31
-0.0008	-0.003	-0.0008	0	78.7	31
0.0007	-0.0015	-0.0008	0.0007	78.5	31
-0.0008	-0.0023	0.0007	0	78.6	31
0.0007	-0.0023	-0.0008	-0.0023	78.5	31
0	-0.0023	-0.0008	-0.003	78.6	31
-0.0015	-0.0023	0	-0.0015	78.6	31
0	-0.0023	-0.0008	-0.0008	78.2	31
-0.0008	-0.0015	-0.0015	-0.0008	78.7	31
-0.0015	-0.0015	-0.0008	-0.0023	78.4	31
-0.0015	-0.0015	-0.0008	-0.0015	78.4	31
-0.0015	-0.0015	-0.0008	-0.0015	78.6	31
0	-0.0015	-0.0008	-0.0015	78.5	31
0	-0.0023	-0.0015	-0.0015	78.6	31
-0.0008	-0.0038	0	-0.0015	78.6	31
-0.0008	-0.003	0	-0.0023	78.3	31
0	-0.0008	-0.0015	-0.003	78.4	31
0.0015	0	-0.0008	-0.0008	78.4	31
-0.0008	0.0015	-0.0008	-0.0015	78.5	31
-0.0008	0.0015	-0.0008	-0.003	78.5	31
0.0007	-0.0008	0	-0.0038	78.6	31
0	-0.0015	0.0007	-0.003	78.7	31
-0.0008	-0.0008	-0.0008	-0.003	78.4	31
-0.0008	-0.0008	0	-0.0023	78.6	31
0	-0.0008	-0.0008	-0.0015	78.5	31
-0.0008	-0.0023	-0.0008	0	78.3	31
0.0007	-0.0015	0.0007	0.0007	78.8	31
0.0007	-0.0015	-0.0008	0.0007	78.3	31
0.0007	-0.0015	-0.0015	0.0007	78.7	31
0.0007	-0.0008	-0.0008	-0.0008	78.4	31
0.0007	-0.003	-0.0008	0.0007	78.6	31
0.0015	-0.0023	-0.0015	-0.0008	78.7	31
0.0007	-0.0015	-0.0008	-0.0015	78.5	31
0.0007	-0.0015	0.0007	-0.0008	78.7	31
0.0015	-0.0008	0	-0.0008	78.5	31
0.0007	-0.0008	0.0007	0.0007	78.6	31
-0.0008	0.0007	0	0.0015	78.6	31
0.0007	0	0	-0.0008	78.3	31
0	-0.0015	-0.0008	-0.0015	78.7	31
-0.0015	-0.0015	0	0.0007	78.4	31
-0.0008	0	-0.0015	-0.0008	78.7	31
-0.0015	0.0007	-0.003	-0.003	78.5	31
-0.0015	-0.0008	-0.0015	-0.0015	78.5	31
-0.0015	-0.0015	-0.0008	-0.0015	78.7	31
-0.0015	-0.003	-0.0023	-0.0015	78.4	31
-0.0015	-0.0046	-0.0008	-0.0008	78.6	31
-0.003	-0.003	-0.0008	0	78.6	31
-0.0015	-0.0015	-0.0008	0	78.4	31
-0.0008	-0.003	0.0007	-0.0008	78.5	31
-0.0015	-0.0015	-0.0008	-0.0008	78.5	31
-0.0015	0	0.0015	0.0007	78.6	31
-0.0008	-0.0008	0.0015	0.0007	78.5	31
-0.0015	-0.0015	-0.0008	0	78.5	31
-0.0015	-0.0015	0	-0.0008	78.7	31
-0.0008	-0.0015	0.0007	0	78.3	31
-0.0015	-0.0008	0.0007	0	78.8	31
0	0.0007	0.0007	-0.0008	78.5	31
0.0007	0	0.0007	-0.0008	78.5	31
-0.0015	0.0007	0.0015	-0.0038	78.7	31
-0.0008	0.0015	0.0007	-0.003	78.5	31
-0.0015	-0.0008	0	-0.0015	78.7	31
-0.0008	0	0.0007	-0.0008	78.7	31
0.0007	-0.0015	0	-0.0008	78.4	31
0	-0.0023	0	-0.0015	78.6	31
0.0015	-0.0008	-0.0008	-0.0015	78.5	31
0.0015	-0.0015	0.0007	-0.0008	78.6	31
0.0007	0	0.0007	-0.0008	78.5	31
-0.0008	0.0007	-0.0015	-0.003	78.7	31
-0.0015	0.0015	0	-0.0015	78.7	31
0	0.0015	-0.0008	-0.0008	78.4	31
-0.0015	0.0022	-0.0015	-0.0015	78.7	31
-0.0015	0.0007	-0.0008	-0.0023	78.5	31
-0.0015	-0.0008	-0.0008	-0.0023	78.4	31
-0.0015	-0.0008	-0.0008	-0.0008	78.7	31
-0.0008	-0.0008	-0.0008	-0.0008	78.4	31
-0.0008	-0.0015	0.0015	-0.0008	78.7	31
-0.0008	-0.0015	0	-0.0023	78.6	31
-0.0008	-0.003	0.0007	-0.003	78.5	31
0.0007	-0.0046	0.0015	-0.0015	78.7	31
0.0007	-0.0038	0	-0.0015	78.6	31
0.0007	-0.0023	0.0015	-0.003	78.6	31
0.0007	-0.0023	0.0022	-0.0015	78.5	31
0.0022	-0.0023	0.003	-0.003	78.5	31
0.0015	-0.0015	0.0022	-0.0023	78.6	31
0	-0.0015	0.003	-0.0015	78.3	31
0.0015	-0.0046	0.0022	-0.0015	78.7	31
0.0015	-0.0046	0.0015	-0.0008	78.5	31
0.0007	-0.0023	0.0022	0	78.5	31
0.0007	-0.0008	0.0007	-0.0008	78.7	31
0.0015	0	0.0007	-0.0015	78.2	31
0.0015	-0.0015	-0.0008	-0.003	78.7	31
0.0015	-0.0008	-0.003	-0.0023	78.4	31
0.0007	-0.0008	-0.0008	-0.0008	78.4	31
0.0007	-0.0008	-0.0008	-0.0008	78.6	31
0.0015	0.0007	-0.0008	0	78.4	31
0.0007	0	0.0015	0	78.4	31
0.0007	-0.0008	0.0007	-0.0008	78.4	31
0.0015	-0.0015	0.0007	0	78.7	31
0	-0.0015	-0.0008	-0.0008	78.5	31
-0.0008	-0.0008	-0.0008	-0.0008	78.5	31
-0.0008	-0.0015	-0.003	-0.0008	78.7	31
0.0007	-0.0023	-0.0023	-0.0008	78.3	31
0.0015	-0.0015	-0.0015	0.0007	78.7	31
0.0007	-0.0015	-0.0015	0.0007	78.6	31
-0.0008	-0.003	-0.0008	0.0007	78.5	31
-0.0015	-0.003	0.0007	-0.0008	78.7	31
-0.0008	-0.003	0.0007	0	78.5	31
0	-0.0015	0.0015	0.0015	78.4	31
0	-0.003	0.0015	-0.0008	78.7	31
0.0015	-0.0023	-0.0008	-0.0008	78.3	31
0.0015	-0.0015	0.0022	0.0007	78.9	31
0.0007	-0.0015	0.0007	0.0015	78.6	31
0.0007	-0.0023	0	0	78.6	31
0.0007	-0.003	0	0	78.5	31
0.0007	-0.003	0	0.0007	78.6	31
0.0007	-0.0008	0	0.0007	78.7	31
0.0007	0	-0.0015	0.0007	78.5	31
0	0	0	0.0007	78.5	31
-0.0015	0.0015	0.0007	0.0007	78.7	31
0	-0.0008	0.0007	0.0007	78.4	31
0.0007	-0.0015	0	0.0015	78.7	31
-0.0008	-0.0015	0	0	78.3	31
-0.0008	-0.0023	0.0007	-0.0015	78.6	31
-0.0008	-0.0008	0.0015	-0.0015	78.7	31
-0.0015	-0.0008	0.0015	0	78.3	31
-0.0015	0	-0.0008	-0.0008	78.7	31
-0.0023	-0.0015	-0.0008	-0.0015	78.3	31
-0.0015	-0.003	-0.0008	-0.0008	78.5	31
-0.0008	0	-0.0008	-0.0023	78.5	31
-0.0015	-0.0008	0.0007	-0.0015	78.7	31
-0.0015	-0.0023	-0.0008	-0.0023	78.4	31
-0.0023	-0.0008	-0.0008	-0.0038	78.3	31
0.0007	-0.0015	0	-0.0038	78.8	31
0.0007	0	-0.0008	-0.003	78.4	31
-0.0008	-0.0008	0	-0.0053	78.6	31
0	0	0.0007	-0.0053	78.6	31
0	0.0007	-0.0008	-0.0015	78.4	31
0.0007	-0.0008	-0.0008	-0.0008	78.7	31
0	-0.0008	-0.0008	-0.0008	78.3	31
-0.0008	-0.0015	-0.0015	-0.0008	78.7	31
0	0	-0.003	-0.0015	78.7	31
-0.0008	0.0007	-0.0015	-0.0008	78.4	31
0	0.0007	0	-0.0008	78.9	31
0	-0.0008	0	-0.0015	78.5	31
0.0007	-0.0015	0	0	78.5	31
0.0007	-0.0015	0	0	78.6	31
0.0007	-0.003	-0.0008	0	78.5	31
0.0015	-0.0015	-0.0008	0.0007	78.6	31
0.0022	-0.0015	0	0.0007	78.3	31
0.0007	-0.0015	-0.0015	-0.0008	78.8	31
-0.0015	-0.0015	-0.0015	-0.0015	78.4	31
-0.003	-0.003	0.0007	-0.0008	78.6	31
-0.0015	-0.003	0	0.0007	78.7	31
-0.0008	-0.0038	-0.0008	0	78.4	31
-0.0015	-0.0023	-0.0015	0.0015	78.6	31
-0.0008	-0.0015	0.0007	0.0007	78.7	31
0	-0.0015	0.0007	-0.0008	78.4	31
0.0015	0.0007	-0.0015	0.0015	78.9	31
-0.0008	0	-0.0015	0.0015	78.5	31
-0.0015	0.0007	-0.0008	0.0022	78.7	31
-0.0015	0	-0.0008	0.0007	78.6	31
-0.0023	-0.003	0	-0.0008	78.5	31
-0.003	-0.003	0	-0.0015	78.3	31
-0.0008	-0.003	-0.0008	-0.0008	78.7	31
-0.0015	-0.003	-0.0008	-0.0008	78.7	31
-0.0023	-0.0023	-0.0015	-0.0015	78.4	31
0.0007	-0.0023	-0.0008	-0.0008	78.7	31
0.0007	-0.0015	-0.0008	-0.0008	78.7	31
0	-0.0008	-0.0008	0	78.5	31
-0.0015	-0.0008	-0.0008	0	78.7	31
-0.0015	-0.0008	-0.0015	-0.0008	78.5	31
-0.0015	-0.0008	0.0015	-0.0008	78.6	31
-0.0008	0	0.0007	0.0007	78.6	31
0.0015	-0.0008	0	0.0007	78.3	31
0	-0.0015	0.0015	0.0007	78.7	31
0.0007	-0.003	0.0015	-0.0008	78.5	31
-0.0008	-0.0023	0.0007	-0.0008	78.5	31
-0.0008	-0.0015	-0.0008	-0.0015	78.6	31
-0.0008	-0.003	0	-0.0015	78.7	31
-0.0008	-0.0023	0.0015	-0.0015	78.8	31
0.0007	-0.0015	0.003	-0.0015	78.3	31
0.0015	-0.0008	0.0015	-0.0015	78.7	31
0.0007	0.0007	0.0015	-0.0015	78.6	31
0.0015	0	0.0007	-0.0008	78.7	31
0.0015	0.0007	-0.0008	-0.0015	78.7	31
0.0015	-0.0008	-0.0008	-0.0008	78.4	31
0	-0.0008	0	-0.0015	78.7	31
0	0.0007	0.0007	-0.0015	78.5	31
0	0.0007	-0.0008	-0.0008	78.6	31
-0.0015	0	0	-0.0008	78.7	31
0.0015	-0.0023	-0.0008	-0.0008	78.5	31
0.0015	-0.0015	-0.0015	-0.0015	78.5	31
0.0007	-0.003	-0.0008	-0.0008	78.7	31
0.0007	-0.0015	-0.0015	-0.0008	78.5	31
0.0007	0.0007	-0.0008	-0.0008	78.5	31
0.0007	-0.0015	0.0015	0	78.4	31
0.0015	-0.0008	0.0015	-0.0015	78.7	31
0.0015	-0.0023	0.0007	-0.0015	78.5	31
-0.0008	-0.0008	-0.0023	-0.0008	78.7	31
-0.0008	-0.0008	-0.0015	-0.0023	78.5	31
-0.0015	-0.0015	-0.0023	-0.0008	78.4	31
-0.0015	-0.0008	-0.0023	-0.0008	78.7	31
-0.0008	-0.0008	-0.0008	-0.0008	78.5	31
0.0007	-0.0008	-0.0015	-0.0015	78.5	31
-0.0008	-0.0015	-0.0015	-0.0015	78.7	31
0.0007	-0.0008	0.0015	-0.0015	78.4	31
0.0022	-0.0008	0.0015	-0.0023	78.6	31
0	-0.003	0.0015	-0.0015	78.6	31
0.0015	-0.0023	0.0007	-0.0015	78.7	31
0.0015	-0.003	-0.0015	-0.0015	78.5	31
0.0007	-0.0015	-0.0015	-0.0015	78.7	31
0.0007	0.0007	-0.0008	-0.0008	78.7	31
0	0.0007	0.0007	0	78.4	31
-0.0008	-0.0015	0.0007	-0.0008	78.7	31
-0.0008	-0.0015	0.0007	-0.0008	78.8	31
0.0007	-0.0015	0	0.0007	78.5	31
-0.0008	-0.0023	0	-0.0015	78.7	31
-0.0008	-0.0015	0	-0.0008	78.5	31
-0.0008	-0.0023	0.0007	-0.0015	78.7	31
-0.0008	-0.0015	0	0	78.7	31
-0.0008	-0.0008	-0.0023	-0.0008	78.4	31
-0.0008	0.0007	-0.0015	-0.0008	78.8	31
-0.0008	0.0007	-0.0023	0.0015	78.5	31
-0.0015	0	-0.0015	0.0007	78.6	31
-0.0008	-0.0008	0.0015	0.0007	78.7	31
-0.0015	-0.0008	0.0022	0.0007	78.7	31
-0.0015	-0.0015	0.0022	0.0007	78.7	31
0.0007	0	0.0015	0.0007	78.5	31
0	0.0015	0.0007	0	78.9	31
-0.0008	0.0007	0.0007	-0.0008	78.5	31
-0.0008	-0.0008	-0.0015	-0.0015	78.7	31
0.0007	-0.0015	-0.0008	-0.0008	78.6	31
0.0007	-0.0008	-0.0015	0.0007	78.6	31
-0.0008	0	-0.0015	0.0007	78.8	31
-0.0008	-0.0015	0.0007	0	78.5	31
-0.0015	-0.0008	0.0007	-0.0015	78.7	31
-0.0008	-0.0015	0.0015	-0.0008	78.6	31
0	-0.003	0	-0.0008	78.7	31
-0.0008	-0.0008	0	-0.0023	78.5	31
0	0.0015	0.0007	-0.003	78.7	31
0	0.0015	-0.0008	-0.0023	78.6	31
0	0.0007	-0.0008	-0.003	78.7	31
0	-0.0008	-0.0008	-0.0015	78.6	31
0.0007	-0.0008	-0.0015	-0.0023	78.7	31
-0.0008	-0.0015	-0.003	-0.0046	78.3	31
0	-0.0008	-0.0015	-0.0023	78.9	31
0.0015	0.0007	-0.0015	-0.0023	78.5	31
0.0007	-0.0015	-0.003	-0.0008	78.6	31
0.0015	-0.0015	-0.0015	0.0015	78.6	31
0.0007	-0.0008	0	0	78.5	31
0.0007	-0.0015	-0.0015	-0.0008	78.7	31
-0.0008	-0.0015	-0.0008	-0.0008	78.7	31
-0.0008	-0.0015	-0.0023	0.0015	78.5	31
-0.0015	-0.0015	-0.0015	0.0015	78.8	31
0.0007	-0.0008	0.003	0.003	78.6	31
0.0007	-0.0023	0.0015	0.0007	78.5	31
0	-0.003	0.0015	-0.0008	78.7	31
-0.0008	-0.0046	0.0007	0.0007	78.6	31
-0.0015	-0.003	0.0007	0.0007	78.5	31
0.0007	-0.003	0.0015	0.0015	78.7	31
0.0007	-0.0046	0.0007	0.0015	78.8	31
0.0015	-0.0015	0.003	0.0007	78.5	31
0.0007	-0.0023	0.0015	0.0007	78.7	31
-0.0015	-0.003	0.0007	-0.0008	78.7	31
-0.0008	-0.0015	0	-0.0015	78.5	31
-0.0023	-0.0008	0	-0.0008	78.8	31
-0.0015	-0.0015	0.0015	-0.0015	78.5	31
-0.0008	-0.003	0	-0.003	78.8	31
-0.003	-0.003	-0.0008	-0.0015	78.8	31
-0.0015	-0.0046	0.0007	-0.0015	78.4	31
0.0007	-0.003	-0.0008	-0.0023	78.6	31
-0.0008	-0.003	0	-0.0023	78.6	31
0	-0.003	-0.0008	-0.003	78.7	31
-0.0008	-0.0015	0	-0.0046	78.7	31
-0.0008	-0.0015	0.0007	-0.003	78.6	31
0.0007	-0.0008	-0.0015	-0.0023	78.9	31
0.0007	-0.0008	0.0015	-0.0015	78.3	31
0.0007	0	0.0007	-0.0015	78.8	31
0.0007	-0.0008	0	-0.0015	78.6	31
0	-0.0023	0.0015	0.0007	78.5	31
-0.0008	-0.0023	0	0.0007	78.8	31
0	-0.0015	0.0007	-0.0008	78.5	31
0	-0.0015	0.0015	-0.0015	78.7	31
-0.0015	-0.0008	0.0007	-0.0015	78.7	31
0.0007	-0.0008	-0.0008	-0.0008	78.5	31
0.0007	0	-0.0015	0	78.8	31
-0.0008	-0.0008	-0.0008	-0.0008	78.7	31
-0.0008	-0.0023	-0.0008	0	78.6	31
-0.0015	-0.0015	-0.0015	-0.0008	78.7	31
-0.0015	0.0007	-0.0015	-0.0008	78.7	31
0.0007	0.0015	0	0.0007	78.9	31
0.0007	0	-0.0008	0.0007	78.5	31
0.0007	0.0007	-0.0015	0.0015	78.9	31
-0.0023	0.0007	-0.0008	0.0007	78.7	31
-0.0008	0.0007	-0.0008	0.0007	78.7	31
-0.0008	0.0015	-0.0008	0.0007	78.7	31
-0.0008	0.0007	-0.0008	-0.0008	78.4	31
0.0007	0.0015	0.0007	-0.0008	78.8	31
-0.0008	0	0	-0.0008	78.7	31
-0.0008	-0.0008	-0.0015	-0.0015	78.3	31
0.0007	-0.0015	-0.0008	-0.0015	78.8	31
0.0015	-0.003	-0.0015	-0.0015	78.4	31
0.0007	-0.0008	-0.0008	-0.0015	78.6	31
0.0007	-0.0023	0	-0.0023	78.7	31
0.0007	-0.0015	0.0007	-0.0015	78.7	31
0.0007	-0.0008	0.0007	-0.0008	78.5	31
0	-0.0015	-0.0015	-0.0008	78.5	31
0	-0.0008	0	-0.0008	78.7	31
0.0015	-0.0008	0.0007	-0.0008	78.5	31
0.0007	-0.0015	0.0007	0	78.6	31
0.0007	-0.0015	0.0015	-0.0023	78.9	31
0.0015	-0.0008	0	-0.0023	78.4	31
0.0015	-0.0008	0.0007	-0.0015	78.9	31
0	-0.0015	0	-0.003	78.7	31
0	-0.003	-0.0015	-0.0015	78.6	31
-0.0008	-0.0015	-0.0015	-0.0015	78.8	31
0	-0.0008	0.0007	-0.0023	78.4	31
0.0015	-0.0015	0.0015	-0.0008	78.8	31
0.0007	-0.003	-0.0015	-0.0008	78.6	31
0.0015	-0.003	-0.0015	-0.0008	78.5	31
-0.0015	-0.0015	0	-0.0008	78.8	31
-0.0008	-0.0015	0	0	78.6	31
-0.0015	-0.0023	0.0007	-0.0015	78.8	31
-0.0023	-0.0015	0	-0.0015	78.5	31
0	-0.0023	-0.0008	-0.0015	78.6	31
-0.0015	-0.003	0.0015	-0.0015	78.7	31
-0.0023	-0.0046	0.0015	-0.0015	78.4	31
-0.0015	-0.003	0.0007	-0.0015	78.9	31
-0.0008	-0.0015	0.0015	-0.0015	78.5	31
0	-0.0008	-0.0008	-0.0015	78.7	31
0	0	-0.0008	-0.0008	78.7	31
0.0007	-0.0008	-0.003	-0.0015	78.4	31
0	-0.0023	-0.0015	-0.0015	78.6	31
-0.0008	-0.0015	-0.0008	-0.0008	78.7	31
0.0007	-0.0023	-0.0015	0	78.7	31
0.0015	-0.003	-0.0008	-0.0008	78.5	31
0.0007	0	-0.0015	-0.0015	78.6	31
-0.0008	-0.0015	-0.0008	-0.0015	78.7	31
-0.0015	0	0	-0.0015	78.5	31
-0.003	-0.0008	0.0015	-0.0015	78.7	31
-0.003	-0.0008	0.0015	-0.0015	78.7	31
-0.0008	-0.0008	0	0.0015	78.5	31
-0.0008	-0.0008	0.0015	0.0007	78.7	31
-0.0008	-0.0008	-0.0008	-0.0008	78.7	31
0	-0.003	-0.0008	0.0007	78.6	31
-0.0008	-0.003	0	0.0007	78.7	31
-0.0008	-0.003	-0.0015	0.0015	78.5	31
-0.0008	-0.003	-0.0008	0.0007	79	31
-0.0015	-0.0015	-0.0008	-0.0008	78.5	31
-0.0008	-0.003	0.0007	-0.0008	78.5	31
0.0007	-0.003	0.0007	0.0007	78.7	31
0.0007	-0.003	0.0015	0.0007	78.7	31
0	-0.0023	0.0015	0	78.7	31
-0.0008	-0.0008	0.0022	0	78.5	31
0	-0.0008	0.0007	-0.0008	78.7	31
0.0015	0.0007	0	-0.0008	78.7	31
0.0007	0	0	-0.0023	78.5	31
0.0007	0.0007	0.0007	-0.0015	78.9	31
0.0015	0.0015	0.0007	-0.0008	78.4	31
0.0007	-0.0008	0.0007	-0.0008	78.5	31
0.0015	-0.0008	-0.0008	-0.0008	78.7	31
0.0007	-0.0008	-0.0015	0	78.5	31
0	-0.0008	0.0007	0	78.7	31
0.0007	-0.0008	0.0007	-0.0008	78.4	31
0	-0.0015	-0.0015	-0.0008	78.7	31
-0.0008	-0.0008	0	-0.0008	78.6	31
-0.0023	0	-0.0008	-0.0015	78.7	31
-0.0046	-0.0015	-0.0008	-0.0015	78.4	31
-0.003	-0.003	-0.0008	-0.0015	78.5	31
-0.0015	-0.0023	-0.0015	-0.0015	78.7	31
-0.0015	-0.0015	-0.0023	-0.0008	78.7	31
-0.0008	-0.0008	-0.0008	-0.0015	78.5	31
-0.0015	-0.0008	-0.0023	-0.0023	78.7	31
-0.0015	0	-0.0008	-0.0015	78.2	31
-0.0015	0.0007	-0.0008	-0.0008	78.7	31
-0.0015	-0.0008	-0.0008	-0.0015	78.6	31
-0.0015	-0.0015	0.0015	-0.0015	78.5	31
-0.0015	-0.0008	0	-0.0015	78.7	31
-0.0015	-0.0023	0.0007	-0.0015	78.7	31
-0.003	-0.0023	0.0007	-0.003	78.5	31
-0.003	-0.0015	0.0007	-0.003	78.8	31
-0.003	-0.0008	-0.0008	-0.0008	78.5	31
-0.0008	0.0007	-0.0015	-0.0015	78.5	31
0.0007	-0.0008	0	-0.0015	78.7	31
0	0.0007	-0.0008	-0.0008	78.5	31
0	0	0.0007	-0.0015	78.3	31
0.0007	-0.0008	0.0015	-0.0008	78.5	31
0.0015	0	-0.0008	0.0007	78.7	31
0.0015	-0.0008	-0.0008	0.0007	78.5	31
0.0007	-0.0008	-0.0008	-0.0008	78.5	31
0.0007	-0.0008	0	-0.0008	78.6	31
0.0015	-0.0008	0.0007	-0.0008	78.4	31
0.0007	-0.0008	0.0007	-0.0023	78.7	31
0.0015	-0.0008	0.0007	-0.0015	78.5	31
0.0015	-0.0015	0.0007	-0.0015	78.5	31
0.0007	-0.0008	0	-0.0008	78.7	31
0.003	-0.0015	0.0007	0.0007	78.3	31
0.0022	-0.0023	0.0007	-0.0008	78.5	31
0.003	-0.0008	0	0.0007	78.5	31
0.0037	-0.0038	0	0	78.6	31
0.003	-0.003	-0.0015	0	78.4	31
0.003	-0.0023	-0.0015	-0.0008	78.3	31
0.0015	-0.0015	-0.0008	-0.0023	78.7	31
0.0007	-0.0023	-0.0015	-0.0015	78.3	31
-0.0008	-0.0046	-0.0015	-0.003	78.5	31
-0.0008	-0.0038	0	-0.003	78.5	31
0	-0.0046	0	-0.0015	78.3	31
-0.0008	-0.003	0.0015	-0.0015	78.7	31
-0.0015	-0.0008	0.0015	-0.0008	78.5	31
-0.0008	-0.0015	0.0007	0	78.3	31
-0.0023	-0.0008	0.0007	0.0007	78.6	31
-0.0015	-0.0008	-0.0015	-0.0015	78.4	31
-0.0008	0	-0.0008	-0.0008	78.4	31
-0.0008	0.0007	0.0015	-0.0008	78.7	31
-0.0008	0.0007	0	0	78.5	31
-0.0008	-0.0008	-0.0008	0.0015	78.6	31
-0.0008	-0.0015	0.0015	0	78.5	31
-0.0008	-0.003	0.0015	0.0007	78.7	31
-0.0008	-0.003	0.0007	0.0007	78.3	31
0.0007	-0.003	-0.0015	-0.0008	78.5	31
0.0007	-0.0023	-0.0015	-0.0015	78.5	31
0.0007	-0.0023	0	-0.0015	78.2	31
0.0007	-0.0023	-0.0015	-0.0015	78.6	31
-0.0008	-0.0015	-0.0023	-0.0015	78.5	31
-0.0008	-0.0015	-0.003	-0.0008	78.3	31
0	-0.0015	0	-0.0008	78.7	31
0.0015	-0.0008	-0.0008	-0.0015	78.2	31
0.0015	0	-0.0008	-0.0023	78.6	31
0.0007	0	0.0007	-0.0008	78.5	31
0.0007	0.0015	-0.0015	-0.0015	78.6	31
0.0007	0.0022	-0.0008	-0.003	78.4	31
0.0007	0.0015	-0.0015	-0.0015	78.5	31
0.0007	-0.0008	0.0007	-0.0023	78.4	31
-0.0008	-0.0015	0.003	-0.0023	78.4	31
-0.0008	-0.0015	0.0007	-0.0008	78.3	31
-0.0008	-0.0008	0.0015	-0.0008	78.5	31
0.0007	-0.0008	0.0007	-0.0008	78.2	31
0.0007	0	0.0007	-0.0023	78.5	31
0.0007	-0.0008	0.0007	-0.0023	78.5	31
0.0007	-0.0008	0.0007	-0.0008	78.3	31
0	-0.0008	-0.0008	-0.0008	78.5	31
-0.0008	-0.0015	-0.003	-0.0015	78.2	31
0.0007	0	-0.0008	0.0007	78.4	31
-0.0015	0.0007	0	0	78.5	31
-0.0023	0	0	0	78.3	31
-0.0008	0.0007	0.0007	-0.0008	78.3	31
-0.0015	-0.0008	-0.0015	-0.0015	78.5	31
-0.0008	-0.0015	-0.0015	-0.0015	78.3	31
0	-0.0008	0.0007	-0.0015	78.2	31
0	0.0007	0.0007	-0.0008	78.2	31
-0.0015	-0.0008	0.0015	0	78.7	31
-0.0015	-0.003	0.0015	-0.0008	78.3	31
0	-0.003	0.0015	-0.003	78.5	31
-0.0008	-0.0023	0	-0.0008	78.4	31
0	-0.0015	-0.0008	-0.0008	78.2	31
0	-0.0008	-0.0008	-0.0008	78.4	31
-0.0008	-0.0023	0	0.0007	78.4	31
0.0007	-0.003	0	-0.0008	78.2	31
0.0015	-0.003	-0.0008	-0.0008	78.5	31
0.0015	-0.003	0	-0.0008	78.2	31
0.003	-0.0015	0	-0.0008	78.5	31
0.0007	-0.0015	-0.0008	0	78.4	31
0	-0.003	-0.0008	0.0007	78.2	31
0.0007	-0.0008	0	0.0015	78.3	31
-0.0008	-0.0008	0.0007	0.0015	78.4	31
-0.0015	-0.0015	-0.0015	0.0007	78.4	31
-0.0023	-0.0008	-0.0008	0	78.3	31
-0.0008	-0.0015	-0.0008	-0.0008	78.1	31
-0.0008	0.0007	-0.0008	-0.0008	78.4	31
-0.0008	-0.0015	-0.0008	-0.0015	78.2	31
0.0007	-0.003	-0.0015	-0.0008	78.5	31
-0.0015	-0.0015	-0.0008	-0.0008	78.2	31
-0.0015	-0.0023	0	-0.0015	78.2	31
-0.0015	-0.003	0.0007	-0.0015	78.4	31
-0.0023	-0.0023	0.0015	-0.0015	78.1	31
-0.0008	-0.0008	0.0015	-0.0023	78.3	31
-0.0008	-0.0008	0.0015	-0.003	78.2	31
-0.0023	0.0015	0.0007	-0.0015	78.3	31
-0.0008	0	-0.0008	-0.0015	78.2	31
0.0007	-0.0015	0.0015	-0.0015	78.2	31
0	0.0007	0.0007	0	78.4	31
-0.0008	0	0	0.0007	78.1	31
-0.0008	0	-0.0008	0.0015	78.3	31
0.0007	-0.0015	-0.0015	0	78.3	31
0.0015	-0.0015	-0.0008	0.0007	78.1	31
0	-0.0008	0	-0.0008	78.4	31
0.0015	-0.0015	0.0015	-0.0015	78.3	31
0.0007	-0.0023	0.0007	-0.0015	78.3	31
0.0015	-0.0008	-0.0008	-0.0008	78.3	31
0.003	0.0007	0	-0.0008	78.1	31
0.0015	0.0015	0	0	78.3	31
0.0007	0	0.0015	0.0007	78.3	31
0	-0.0008	0.0015	0	78.1	31
0.0007	-0.0008	0.003	0.0007	78.3	31
-0.0008	-0.0015	0.0007	-0.0008	78.3	31
-0.0008	-0.0015	-0.0008	0	78.3	31
-0.0008	-0.003	0.0015	0.0007	78.2	31
-0.0015	-0.0015	0.0007	0.0007	78.3	31
-0.0008	-0.003	0	0.0007	78.2	31
0	-0.0015	-0.0008	0.0007	78.1	31
-0.0008	-0.0008	-0.0008	0.0007	78.3	31
-0.0008	-0.0008	-0.003	0	78.2	31
-0.0008	-0.0015	-0.0046	0.0007	78.1	31
-0.0008	-0.003	-0.003	0	78.5	31
-0.0008	-0.0015	-0.0023	-0.0015	78.1	31
-0.0023	-0.0015	-0.003	-0.0008	78.3	31
-0.0008	-0.0015	-0.003	-0.0015	78.2	31
0.0007	-0.0015	-0.0008	-0.0023	78.2	31
0	-0.0015	-0.0008	-0.0023	78.3	31
0	-0.0008	-0.0008	-0.003	78.3	31
-0.0015	0	-0.0015	-0.003	78.2	31
0.0007	-0.0015	-0.0015	-0.003	78.4	31
0.0007	-0.0015	-0.0008	-0.0015	78.3	31
-0.0008	-0.0008	-0.0008	-0.0008	78.3	31
-0.0008	0	-0.0008	-0.0023	78	31
-0.0008	-0.0008	0	-0.0008	78.4	31
-0.0008	-0.0008	0.0007	-0.0023	78	31
-0.0023	-0.0008	0.0007	-0.0015	78.2	31
-0.003	-0.0008	0	-0.0023	78.3	31
-0.0008	-0.003	-0.0023	-0.0023	77.9	31
-0.0023	-0.003	-0.003	0	78.3	31
-0.0015	-0.0046	-0.0015	-0.0008	78	31
0	-0.0023	-0.0008	0	78.1	31
-0.0008	-0.0015	0.0015	-0.0015	78.3	31
0.0007	-0.0015	-0.0008	-0.0008	78.2	31
0.0007	-0.0008	-0.0015	-0.0015	78.3	31
-0.0008	-0.0015	-0.0008	-0.0038	78.2	31
0	0.0007	-0.0015	-0.0015	78.1	31
-0.0008	0.0007	-0.0015	-0.0008	78.2	31
-0.0008	-0.0008	0.0007	-0.0008	78	31
-0.0008	-0.0015	0.0015	-0.0015	78.3	31
0.0015	-0.0023	0.0007	-0.0008	78.2	31
0	-0.0015	0.0007	-0.0008	78.2	31
0.0007	-0.0015	0.0007	-0.0015	78.3	31
0.0007	-0.0008	0.003	0.0007	78.1	31
-0.0008	-0.0038	0.003	0.0007	78.3	31
0.0015	-0.0038	0.0015	0.0007	78.2	31
0.0007	-0.0008	0.0015	0	78.1	31
-0.0008	0	0.0015	-0.0008	78.5	31
0.0022	0	0.003	-0.0008	78	31
0.0022	-0.0015	0.0007	-0.0015	78.3	31
0.0007	-0.0015	-0.0008	-0.0015	78.2	31
0.0015	-0.0015	0.0007	-0.0015	78.3	31
-0.0008	-0.0023	0.0007	-0.0015	78.1	31
0.0007	-0.0008	0.0007	-0.0008	78.1	31
0.0015	0.0007	-0.0008	-0.0015	78.4	31
0.0007	-0.0008	-0.0008	-0.0023	78.2	31
0.0007	-0.0008	0.0007	-0.0008	78.1	31
-0.0008	0	0.0015	-0.0015	78.3	31
0	0	0.0015	-0.0015	77.9	31
0	-0.0008	0	-0.0015	78.3	31
0	-0.0008	0.0007	-0.0008	78.2	31
0.0007	-0.0008	0	-0.0008	78.1	31
0.0007	0	0	-0.0008	78.4	31
-0.0008	-0.0008	0.0007	0	78.1	31
0.0015	0	0.0022	-0.0015	78.4	31
0.0015	0.0007	0.0007	-0.0008	78.2	31
0.0007	-0.0008	-0.0008	0.0007	78.3	31
0.0007	-0.0015	-0.0008	0	78.3	31
0.0007	-0.0038	-0.0015	-0.0008	78.1	31
0.0007	-0.0046	0	-0.0015	78.4	31
-0.0008	-0.0046	-0.0008	-0.0008	78.2	31
0	-0.0038	-0.0008	-0.0015	78.2	31
-0.0008	-0.0015	-0.0008	-0.003	78.5	31
-0.0015	-0.0046	-0.0008	-0.0015	78	31
-0.0015	-0.0053	-0.0008	0	78.3	31
-0.0038	-0.0046	0	-0.0008	78.3	31
-0.003	-0.0038	0	-0.0015	78.1	31
-0.0015	-0.003	0.0007	-0.0008	78.3	31
-0.0008	-0.0023	0	-0.0008	78.3	31
0.0007	-0.0015	-0.0023	-0.0008	78.1	31
-0.0008	-0.0008	-0.0008	-0.0008	78.5	31
-0.0008	-0.0015	-0.0008	0.0007	78.1	31
-0.0008	-0.0015	-0.0015	0	78.3	31
-0.0008	0	0	-0.0008	78.2	31
0.0007	0.0015	-0.0008	0	78.3	31
-0.0008	0	-0.0015	0	78.2	31
-0.0015	-0.0008	-0.0008	0.0007	78.2	31
-0.0008	0.0007	-0.0015	0.0007	78.3	31
0.0007	0.0007	0	-0.0008	78.1	31
0	0	0.0007	0	78.1	31
-0.0015	0.0007	0	0	78.5	31
-0.0008	0	-0.0008	-0.0008	78.1	31
-0.0008	-0.0008	-0.0015	-0.0008	78.4	31
-0.0015	0.0007	-0.0008	-0.0015	78.2	31
-0.0015	-0.0008	0	-0.0008	78.2	31
-0.0008	-0.0008	0	0	78.5	31
0	-0.0015	0.0007	-0.0008	78	31
-0.0008	-0.003	0.0007	-0.0008	78.3	31
-0.0008	-0.003	-0.0008	-0.0015	78.3	31
-0.0015	-0.0015	-0.0015	-0.0015	78.2	31
0.0015	0	0.0007	-0.0008	78.3	31
0.0015	-0.0008	0.0022	0.0007	78.1	31
0.0015	0	0	-0.0008	78.5	31
-0.0008	-0.0008	0	-0.0015	78.2	31
-0.0008	-0.0015	-0.0008	-0.0015	78.3	31
0.0007	-0.0015	-0.0023	-0.0015	78.3	31
-0.0015	0.0007	0	-0.0015	78.1	31
0	0.0015	0	0	78.6	31
-0.0008	0.0015	0.0007	-0.0015	78.2	31
-0.0015	0.0007	0	-0.0015	78.5	31
-0.0015	-0.0008	0.0007	-0.0008	78.5	31
0.0007	-0.0008	0.0015	-0.0023	78.2	31
0.0022	-0.0015	0.0007	-0.0015	78.5	31
0.0015	-0.0015	0.003	-0.0008	78.4	31
0.0015	-0.0015	0.0015	-0.0008	78.3	31
0.0015	-0.0023	0.0007	-0.0008	78.2	31
0.0015	-0.0015	0.0007	-0.0008	78.4	31
0.0007	-0.0015	-0.0008	-0.0015	78.6	31
0	-0.0015	0.0007	0	78.1	31
-0.0008	-0.0008	0	0	78.4	31
0.0007	0	0.0007	0.0007	78.3	31
0.0015	-0.0015	-0.0008	0.0007	78.3	31
-0.0008	-0.003	-0.0015	-0.0023	78.3	31
0	-0.0023	-0.003	-0.0008	78.3	31
-0.0008	-0.003	-0.0046	-0.0008	78.3	31
-0.0008	-0.0015	-0.003	-0.0015	78.5	31
-0.0008	-0.0008	-0.0023	-0.0008	78.1	31
-0.0023	-0.003	-0.0015	-0.0015	78.5	31
-0.0008	0	-0.003	-0.0008	78.3	31
-0.0015	-0.0008	-0.0015	0.0007	78.5	31
-0.0015	-0.0008	-0.0008	0.0015	78.2	31
-0.0008	0	0	0.0015	78.3	31
-0.0015	-0.0008	0	0.0007	78.3	31
-0.0015	0	-0.0015	-0.0008	78.3	31
-0.003	-0.0015	0.0007	-0.0015	78.3	31
-0.0023	-0.0008	0	0	78.4	31
-0.0015	-0.0015	-0.0008	0	78.2	31
-0.0008	-0.0015	-0.0008	0.0007	78.7	31
-0.0015	-0.0015	0.0015	0	78.3	31
-0.0008	-0.0015	0.0015	-0.0008	78.3	31
-0.0008	0	0.0007	-0.003	78.4	31
-0.0008	-0.0023	0.0007	-0.003	78.2	31
0	-0.0015	-0.0015	-0.0008	78.6	31
0.0007	-0.0023	-0.0015	-0.0015	78.2	31
0.0015	-0.003	-0.0015	-0.0015	78.3	31
0.0007	-0.0023	-0.0008	-0.0015	78.4	31
0.0007	-0.0015	0.0007	-0.0008	78.5	31
-0.0008	0	0.0015	-0.0008	78.5	31
-0.0015	-0.0015	0.0007	-0.0008	78.2	31
0	0	-0.0008	-0.0008	78.7	31
-0.0008	-0.0015	0.0007	-0.0008	78.3	31
0.0007	-0.0023	0.0015	0.0007	78.4	31
-0.0008	-0.0008	0.0007	-0.0008	78.6	31
-0.0008	-0.0015	0.0007	-0.0008	78.2	31
0	-0.0023	0.0007	-0.0015	78.6	31
-0.0008	-0.0015	0	-0.0008	78.4	31
-0.0008	-0.0015	0	-0.0008	78.4	31
-0.0015	-0.0023	-0.0008	-0.003	78.5	31
0	-0.0015	0	-0.0015	78.4	31
-0.0008	-0.003	0.0007	-0.0008	78.3	31
-0.0008	-0.003	-0.0015	-0.0008	78.6	31
0.0007	-0.0015	-0.0008	0	78.3	31
0.0015	-0.0015	0.003	0	78.4	31
0.0015	-0.0023	0.0007	-0.0008	78.3	31
0.0007	-0.0023	0.0007	-0.0008	78.6	31
0	-0.0015	0.0015	0	78.4	31
-0.0008	-0.0008	0.0007	-0.0008	78.5	31
-0.0008	-0.0008	0	-0.0015	78.5	31
0.0007	-0.0023	-0.0015	-0.0008	78.3	31
0.0007	-0.0015	-0.0023	-0.0023	78.5	31
0.0015	-0.0015	-0.0008	-0.0023	78.6	31
0.0007	-0.0008	-0.0008	-0.0038	78.3	31
-0.0008	-0.0023	-0.0008	-0.0023	78.7	31
-0.0008	-0.003	0.0007	-0.0008	78.5	31
-0.0008	-0.0015	-0.0008	-0.0008	78.5	31
0.0007	-0.0008	-0.0015	0.0007	78.6	31
0	0.0007	-0.0015	0.0007	78.3	31
0	0	-0.0015	0	78.6	31
0.0015	-0.0015	-0.0023	-0.0008	78.5	31
-0.0008	-0.0015	-0.0008	-0.0008	78.5	31
-0.0008	0.0015	0.0007	0.0007	78.4	31
-0.0015	0.0015	0	-0.0008	78.4	31
-0.0008	0.0007	0.003	-0.0008	78.7	31
-0.0008	0.0007	0.0022	-0.0008	78.3	31
-0.0008	-0.0008	0.0015	-0.0008	78.7	31
-0.0008	-0.0015	0.0015	-0.0008	78.6	31
-0.0015	-0.0008	-0.0008	0	78.3	31
-0.0008	-0.0008	0.0007	0.0007	78.7	31
-0.003	-0.0015	0.0007	-0.0008	78.4	31
-0.0015	-0.0015	0.0007	-0.0015	78.7	31
0.0007	-0.0015	-0.0008	-0.0008	78.7	31
0.0007	-0.0015	-0.0008	-0.0015	78.3	31
0.0007	-0.0015	-0.0015	-0.0015	78.5	31
0	-0.0008	-0.0008	-0.0023	78.5	31
0.0007	-0.003	0.0015	-0.0015	78.6	31
0	-0.0038	0.0015	-0.003	78.5	31
0.0007	-0.0008	0.0015	-0.003	78.4	31
0.0015	-0.0008	0.0007	-0.0008	78.8	31
0.0007	-0.0015	0.0007	-0.0008	78.5	31
0.0015	0.0015	0.0007	-0.0008	78.6	31
0.0007	-0.0008	-0.0008	-0.0008	78.6	31
-0.0008	-0.0015	-0.0008	0	78.5	31
0.0007	-0.0015	-0.0015	0.0007	78.5	31
0.0015	-0.003	-0.0015	0	78.5	31
0.0015	-0.0015	-0.0008	0.0007	78.3	31
-0.0008	-0.003	0.0007	0.0007	78.7	31
-0.0008	-0.003	-0.0008	-0.0015	78.5	31
0	-0.0015	-0.0008	-0.0015	78.6	31
-0.0008	-0.0008	0	-0.0008	78.5	31
-0.0008	-0.0008	-0.0015	-0.0015	78.6	31
0.0007	-0.0008	-0.0015	-0.0015	78.5	31
0.0007	0	-0.0015	-0.0015	78.5	31
0	-0.0015	-0.0008	-0.0015	78.6	31
0.0007	-0.0008	0.0007	-0.0015	78.5	31
0.0007	-0.0015	0.0007	-0.0015	78.4	31
0.0007	-0.0008	0.0007	-0.0008	78.7	31
0.0007	0	-0.0008	-0.0023	78.4	31
-0.0008	-0.0008	-0.0008	-0.0015	78.6	31
-0.0008	-0.0008	0	-0.0008	78.7	31
-0.0015	-0.0015	0	-0.0015	78.4	31
-0.0015	-0.0008	0	0	78.7	31
-0.0015	0	0	0.0007	78.5	31
-0.0015	0.0007	0.0007	0	78.7	31
-0.0023	0.0022	0.0007	-0.0015	78.7	31
-0.0008	0.0007	0.0007	-0.0008	78.5	31
-0.0008	0.0007	0.0015	-0.0015	78.6	31
-0.0008	0	0.0007	-0.0038	78.7	31
0	0	-0.0008	-0.003	78.7	31
-0.0008	0	0	-0.003	78.5	31
0	-0.0008	-0.0008	-0.0015	78.5	31
-0.0008	-0.0015	0.0007	-0.0015	78.7	31
-0.0015	-0.0023	0	-0.0015	78.4	31
0	-0.0023	-0.0023	-0.0008	78.6	31
-0.0015	-0.003	0.0007	-0.0008	78.5	31
-0.0008	-0.003	0.0007	-0.0015	78.5	31
0.0007	-0.003	0.0007	-0.0015	78.7	31
0.0007	-0.0038	-0.0008	-0.0008	78.5	31
0.0007	-0.003	-0.0008	0.0007	78.5	31
0	-0.0015	0.0007	0.0007	78.9	31
0	-0.0008	0.0015	0.0007	78.4	31
-0.0008	-0.0008	0.0007	0.0007	78.6	31
-0.0008	0	0.0022	0.0007	78.7	31
0.0007	0.0015	0.0007	0.0015	78.6	31
0.0015	0.0015	-0.0008	0.0015	78.6	31
-0.0015	0.0007	0.0007	0	78.6	31
0	-0.0015	0.0007	-0.0008	78.7	31
0.0015	-0.0015	0.0007	0.0007	78.5	31
0.0022	-0.0023	-0.0023	0	78.7	31
0.0015	-0.0023	-0.0023	0	78.7	31
0	-0.0015	-0.0023	-0.0008	78.5	31
0.0007	0	-0.0023	-0.0015	78.8	31
-0.0015	0	-0.0008	-0.0008	78.4	31
-0.0008	-0.0015	-0.0008	0	78.6	31
0.0007	-0.0023	0.0007	0.0015	78.7	31
0.0007	-0.0015	0	0	78.4	31
0.0007	-0.003	0.0007	-0.0008	78.9	31
-0.0008	-0.0046	0.0007	-0.0015	78.7	31
-0.0008	-0.0046	-0.0015	-0.0008	78.6	31
-0.0008	-0.003	-0.0008	-0.0008	78.7	31
-0.0008	-0.0046	-0.0015	-0.0023	78.7	31
-0.0008	-0.0046	-0.0023	-0.0015	78.9	31
-0.0015	-0.0015	-0.003	-0.0023	78.3	31
-0.0023	-0.0008	-0.0015	-0.0023	78.7	31
-0.0008	-0.0015	-0.003	-0.0008	78.6	31
0	-0.003	-0.0015	-0.0023	78.5	31
-0.0008	-0.003	0.0007	-0.0023	78.9	31
-0.0015	-0.003	0.0007	-0.0015	78.4	31
-0.0008	-0.0015	0.0015	-0.0015	78.7	31
-0.0008	-0.0008	-0.0008	-0.0008	78.7	31
-0.0015	0	0.0007	-0.0038	78.4	31
-0.0015	-0.0008	0.0007	-0.0046	78.7	31
-0.0008	-0.0015	0.0007	-0.0015	78.7	31
-0.0015	-0.0008	-0.0008	-0.0015	78.5	31
-0.0015	0.0015	-0.003	-0.0008	78.5	31
0.0007	0	-0.0008	0.0007	78.7	31
0	0	-0.0008	0.0015	78.6	31
0.0015	0.0007	-0.0008	0.0015	78.4	31
0	-0.0008	-0.0008	0.0015	78.7	31
-0.0015	-0.0015	-0.0008	-0.0008	78.6	31
0	-0.0023	0.0007	0.0007	78.6	31
-0.0015	-0.0008	0.0007	0	78.8	31
-0.0008	0.0007	0.0015	-0.0008	78.6	31
0.0007	-0.0023	0.0007	0.0007	78.7	31
0.0022	-0.0023	0	0.0015	78.7	31
0.0022	-0.003	-0.0008	0.0007	78.4	31
0	-0.003	-0.0015	-0.0008	78.7	31
0.0015	-0.0023	0.0015	-0.0008	78.6	31
0.0007	-0.003	0.0007	0	78.5	31
0	-0.0023	-0.0008	-0.0015	78.7	31
0.0015	-0.0015	0	-0.0015	78.6	31
0.0007	-0.0008	-0.0008	-0.0015	78.7	31
-0.0008	-0.0023	0	-0.003	78.5	31
-0.0008	-0.003	0.0015	-0.0015	78.6	31
0	-0.0046	0.0007	-0.0008	78.7	31
-0.0008	-0.0038	0.0015	-0.0015	78.5	31
0.0007	-0.0023	-0.0008	-0.0008	78.8	31
0.0007	-0.0023	-0.0008	-0.0008	78.5	31
-0.0008	-0.0008	-0.0008	-0.0015	78.7	31
0.0015	0.0007	-0.0015	-0.0008	78.7	31
0.0007	0.0007	0	-0.0015	78.4	31
-0.0015	0	0	-0.0023	78.8	31
-0.0008	-0.0015	-0.0008	-0.0023	78.7	31
-0.0008	-0.003	0	-0.0023	78.5	31
-0.0008	-0.003	-0.0015	-0.0023	78.8	31
0.0007	-0.0008	-0.0015	-0.0008	78.7	31
0.0007	0.0007	-0.0008	-0.0008	78.7	31
-0.0015	-0.0008	-0.0015	-0.0015	78.6	31
-0.0008	-0.0015	-0.0008	-0.0015	78.7	31
0	-0.0015	-0.0008	-0.003	78.7	31
-0.0008	-0.003	-0.0008	-0.0015	78.6	31
0	-0.0015	-0.0008	-0.0023	78.9	31
0	-0.0015	-0.0008	-0.0015	78.5	31
-0.0015	0	-0.0015	0	78.8	31
-0.0015	0.0015	0.0007	-0.0008	78.9	31
0	0.0015	0.0007	-0.0008	78.5	31
0	0.0015	0.0007	-0.0015	78.7	31
-0.0008	0.0007	-0.0008	-0.0015	78.7	31
0.0015	0.0007	-0.0008	0	78.6	31
0.0015	0	0.0007	0	79	31
0	0.0007	0.0007	0.0007	78.5	31
0.0015	-0.0008	0.0007	0	78.6	31
0	0	0.0007	-0.0015	78.6	31
0.0007	-0.0015	0.0022	-0.0023	78.7	31
0	-0.0015	0.0007	-0.0015	78.6	31
0.0007	-0.0008	-0.0015	-0.0008	78.5	31
0.0007	-0.0023	-0.0008	-0.003	78.8	31
0.0015	-0.0008	0	-0.0015	78.6	31
0.0007	-0.0023	-0.0008	-0.0015	78.5	31
0.0007	-0.0023	-0.0015	-0.0015	78.9	31
-0.0008	-0.0008	-0.0008	-0.0008	78.4	31
-0.0015	0.0007	-0.0008	0	78.8	31
0	0	0.0007	-0.0008	78.7	31
-0.0015	-0.0015	0.0007	-0.0008	78.6	31
-0.0008	-0.0008	0.0015	0	78.8	31
0.0007	-0.0015	0.003	-0.0015	78.4	31
0.0022	-0.0023	0.0015	-0.0015	78.7	31
0.0007	-0.0023	0.0007	0	78.7	31
-0.0023	-0.0023	0.0007	-0.0008	78.7	31
-0.0008	-0.003	0.0022	-0.0008	78.6	31
0	-0.0015	0	0.0007	78.5	31
0.0007	-0.0008	0.0007	-0.0023	79	31
0	-0.0008	0.0007	-0.0023	78.5	31
-0.0015	0	0.0007	-0.0008	78.6	31
-0.0015	0	0.0007	-0.0008	78.8	31
-0.0023	-0.0008	-0.0008	-0.0015	78.5	31
-0.0023	-0.0015	0.0007	-0.0015	78.9	31
-0.0015	-0.003	-0.0008	-0.0015	78.7	31
-0.0008	-0.003	-0.0008	0	78.7	31
-0.0008	-0.0023	0.0015	0.0007	78.7	31
0.0015	-0.0008	0.0015	-0.0015	78.5	31
0.0015	-0.0015	0.0007	-0.0008	78.6	31
-0.0008	-0.0015	0.0015	0	78.7	31
0	0	0.0015	-0.0015	78.7	31
0.0007	-0.0015	0	-0.0008	78.6	31
0	0.0007	0.0007	-0.0008	78.7	31
0.0007	-0.0008	0.0007	-0.0015	78.9	31
-0.0008	-0.003	-0.0008	0.0007	78.5	31
-0.0008	-0.003	-0.0015	-0.0008	78.6	31
-0.0008	-0.0023	-0.0008	-0.0015	78.7	31
-0.0008	0.0007	-0.0008	0	78.6	31
-0.0015	-0.0008	-0.0023	0	78.8	31
-0.0008	-0.0008	-0.0023	0	79	31
0.0007	-0.0008	-0.0008	0	78.6	31
0.0015	-0.0015	-0.0008	0.0015	78.9	31
0.0007	-0.0015	0	0.0007	78.5	31
0	-0.0023	0.0022	-0.0008	78.7	31
0	-0.0023	0.0007	-0.0015	78.7	31
-0.0008	-0.003	0.0007	-0.0015	78.7	31
0	-0.003	0	-0.0008	78.6	31
0	-0.0015	-0.0015	-0.0015	78.6	31
0	-0.0015	0.0007	-0.0015	78.6	31
0.0007	-0.0008	0	-0.0023	78.7	31
0.0007	0.0007	-0.0008	-0.0008	78.6	31
-0.0008	0	-0.0015	0.0007	78.9	31
-0.0015	0.0007	-0.0015	0.0007	78.5	31
-0.0015	0	-0.0008	0.0007	78.9	31
-0.0008	-0.0008	-0.0008	0.0015	78.7	31
0.0007	-0.0008	-0.0008	0.0007	78.7	31
0.0015	-0.0015	-0.0015	-0.0008	78.8	31
0.003	-0.0023	-0.0008	0	78.5	31
0.0007	-0.0023	-0.0008	-0.0015	78.9	31
-0.0008	-0.0015	-0.0015	-0.0015	78.7	31
0	-0.0015	0	-0.0008	78.6	31
-0.0008	-0.0008	-0.0015	-0.0015	78.7	31
0.0007	0.0007	-0.003	-0.0015	78.7	31
0	0	-0.0023	-0.0015	78.7	31
0	0.0007	-0.0015	-0.0015	78.7	31
0	0.0015	-0.0008	-0.003	78.7	31
-0.0015	0.0015	0.0007	-0.0023	78.8	31
0.0007	0.0007	-0.0008	-0.0008	78.6	31
0.0015	0	-0.0008	-0.0008	78.9	31
0.0007	-0.0015	0	-0.0008	78.5	31
0.0007	-0.0015	0	-0.0008	78.7	31
0.0007	-0.0015	0	-0.0008	78.7	31
0.0015	-0.003	0.0007	-0.0008	78.5	31
0.0015	-0.0023	0.0007	-0.0008	78.8	31
0.0015	-0.0015	-0.0008	0	78.8	31
0.0015	-0.0008	-0.0008	-0.0008	78.6	31
0.0007	-0.0008	-0.0008	0.0007	79	31
0	-0.0015	-0.0008	-0.0008	78.6	31
-0.0008	-0.0015	0.0007	0	78.7	31
-0.0008	0.0007	0	0	78.7	31
-0.0008	0	0	-0.0015	78.8	31
-0.0015	-0.0008	0	-0.0008	78.7	31
0	-0.0008	0.0007	-0.0008	78.9	31
0.0007	-0.0015	0.0007	-0.0015	78.7	31
0.0007	0.0007	0.0015	0.0007	78.7	31
0.0007	-0.0008	0.0007	0.0007	78.7	31
0.0007	-0.0015	0.0007	-0.0008	78.7	31
0.0007	-0.0015	0.0007	-0.0015	78.7	31
-0.0008	-0.003	0	-0.0008	78.9	31
-0.0015	-0.0015	0.0007	-0.0008	78.5	31
-0.0008	-0.0015	-0.0008	-0.0015	78.9	31
-0.0008	-0.0053	0.0007	-0.0015	78.6	31
0.0007	-0.0053	-0.0008	-0.003	78.7	31
-0.0008	-0.003	0	-0.003	78.7	31
-0.0008	-0.0023	0.0015	-0.003	78.7	31
0	-0.0046	0.0007	-0.003	78.8	31
-0.0015	-0.0046	0.0007	-0.003	78.7	31
-0.0015	-0.003	0	-0.0023	78.8	31
-0.0008	-0.0038	-0.0015	-0.0008	78.7	31
-0.0008	-0.003	-0.0015	-0.0008	78.5	31
-0.0023	-0.0015	-0.0008	-0.0008	78.9	31
-0.0015	-0.0046	-0.0008	-0.0008	78.7	31
-0.0008	-0.0053	0.0007	0.0007	78.8	31
-0.0015	-0.0046	0.0007	0	78.8	31
-0.0023	-0.0046	0	-0.0008	78.5	31
-0.0023	-0.003	-0.0015	0.0007	78.8	31
0	-0.0038	-0.0023	0	78.7	31
-0.0008	-0.003	-0.0008	-0.0015	78.7	31
-0.0008	0	-0.0015	-0.0015	78.9	31
-0.0008	-0.0015	0.0007	-0.0015	78.7	31
-0.0008	-0.0023	0.0007	-0.0008	78.7	31
0.0015	-0.003	0.0007	0	78.7	31
0.0007	-0.003	0.0015	0	78.9	31
-0.0008	-0.0008	0	0.0007	78.7	31
0	-0.0015	0.0007	0.0007	78.5	31
0.0015	-0.0015	0.0007	0.0007	79	31
0.0015	0.0007	0.0007	0	78.6	31
0.0015	0.0022	0.0007	0.0007	78.8	31
0.0007	0.0015	-0.0008	0.0007	78.7	31
0.0007	0.0007	-0.0008	0.0007	78.7	31
0.0007	0.0015	0	0.0007	78.8	31
-0.0008	0	0.0007	0.0015	78.7	31
0.0007	-0.0015	0.0015	0.0007	78.8	31
-0.0008	-0.0008	0.0015	0.0015	78.9	31
-0.0008	0.0007	0	0.0015	78.5	31
-0.0023	0	0	0.0007	78.6	31
-0.0015	0.0007	0.0015	0.0007	78.7	31
-0.0015	0.0007	0.0007	-0.0008	78.6	31
-0.0015	-0.0023	0	-0.0008	78.7	31
-0.0015	-0.0008	-0.0015	-0.0015	78.5	31
-0.0008	0.0007	-0.0015	-0.0015	78.8	31
-0.0008	0.0007	0.0015	-0.0008	78.6	31
-0.0008	0	-0.0008	-0.0023	78.6	31
-0.0015	0	0	-0.0023	78.9	31
-0.0015	-0.0008	0.0022	-0.003	78.5	31
-0.0015	-0.0015	0.0015	-0.0015	78.9	31
0	-0.003	0.0022	-0.0015	78.6	31
0.0007	-0.0008	0.0015	-0.0015	78.7	31
0.0015	0.0007	0	-0.0008	78.7	31
0.0015	0	-0.0008	-0.0015	78.4	31
0	-0.0008	0.0007	-0.003	78.7	31
0	-0.0008	-0.0008	-0.0015	78.7	31
-0.0008	-0.0008	-0.0015	-0.0008	78.7	31
0	-0.0008	-0.0023	-0.0015	78.7	31
0.0015	-0.0008	-0.0015	-0.0015	78.7	31
-0.0008	0	-0.0008	-0.0015	78.8	31
-0.0008	0	-0.0015	0.0007	78.6	31
-0.0008	-0.0008	-0.0008	0.0007	78.7	31
0.0007	-0.0015	0.0007	-0.0008	78.7	31
0	0.0007	-0.0015	-0.0008	78.7	31
-0.0008	0.0015	-0.003	-0.0023	78.9	31
0	0	-0.003	-0.0008	78.6	31
-0.0015	0.003	-0.0038	-0.0008	78.7	31
-0.0015	0.003	-0.0008	-0.003	78.7	31
-0.0015	0.0007	-0.0015	-0.0015	78.6	31
-0.0008	-0.0008	-0.0015	-0.0008	78.7	31
0.0007	-0.0008	0.0007	-0.0008	78.7	31
0.0015	-0.0008	-0.0008	-0.0008	78.9	31
0.0015	-0.0015	0.0007	0.0007	78.6	31
0.0015	-0.0015	0	-0.0015	78.7	31
0.0015	-0.0008	-0.0008	-0.003	78.8	31
0.0015	-0.0015	0.0007	-0.0015	78.5	31
0.0007	-0.003	0.0015	-0.0023	78.8	31
0.0007	-0.003	-0.0008	-0.0015	78.7	31
-0.0008	-0.0015	-0.0008	-0.0008	78.5	31
-0.0008	-0.0015	0.0007	-0.0015	78.7	31
-0.0008	-0.0008	-0.0008	-0.0015	78.6	31
0	-0.0015	0	-0.003	78.6	31
0.0007	-0.0038	-0.0008	-0.0046	78.8	31
0.0007	-0.0023	-0.0008	-0.0015	78.6	31
0.0007	-0.0023	-0.0015	-0.0015	78.8	31
0.0015	-0.003	-0.0015	-0.0015	78.7	31
0	-0.0008	-0.0015	-0.0015	78.7	31
-0.0015	-0.0015	-0.0015	-0.0038	78.7	31
-0.0015	-0.0008	-0.0008	-0.003	78.7	31
-0.0008	0	0	-0.0015	78.7	31
0	0	0.0015	-0.0008	78.5	31
-0.0008	0.0007	0.0015	-0.0008	78.6	31
0	0.0007	0	-0.0008	78.6	31
0	-0.0008	-0.0008	-0.0008	78.5	31
0	0	-0.0008	0.0007	78.8	31
0.0015	0	0.0007	0.0015	78.4	31
0	-0.0008	0	0.0015	78.7	31
-0.0015	-0.003	-0.0008	0.0007	78.7	31
0	-0.0008	-0.0008	0.0007	78.5	31
0.0007	0	-0.0008	0.0007	78.8	31
-0.0008	-0.0023	-0.0015	0.0007	78.5	31
-0.0008	-0.0015	0	0.0007	78.7	31
0	-0.0008	0.0007	0	78.7	31
-0.0008	-0.0015	0.0007	0.0007	78.7	31
-0.0008	-0.0008	-0.0008	0.0015	78.7	31
-0.0015	-0.0015	0	0	78.7	31
-0.0023	-0.0023	0	-0.0008	78.7	31
-0.0015	-0.003	0.0007	-0.0008	78.6	31
-0.0008	-0.003	-0.0008	-0.0015	78.5	31
0	-0.0008	0.0007	-0.0015	78.9	31
0	-0.0015	0.0022	-0.0008	78.4	31
-0.0008	-0.0008	0.0015	-0.0008	78.6	31
-0.0015	-0.0008	0.0007	-0.0015	78.7	31
-0.0015	-0.0023	0.0007	0	78.6	31
-0.0008	-0.0023	0.0007	0	78.7	31
0	-0.003	0.0015	-0.0015	78.7	31
0	-0.0015	0.0015	-0.0008	78.5	31
0	-0.0015	0.0015	-0.0015	78.7	31
-0.0008	-0.0023	0.0015	-0.0008	78.6	31
-0.0008	0.0007	0.0022	-0.0015	78.7	31
-0.0008	0.0007	0	-0.0015	78.7	31
-0.0008	0.0007	-0.0008	-0.0015	78.8	31
-0.0015	0.0007	-0.0008	-0.003	78.5	31
-0.0015	-0.0008	-0.0008	-0.0015	78.5	31
0.0007	-0.0015	0.0007	-0.0015	78.8	31
0.0015	-0.0015	0.0015	-0.003	78.7	31
-0.0008	-0.0015	0.0007	-0.0008	78.6	31
0.0007	-0.0015	-0.0008	-0.0008	78.9	31
0.0007	-0.0008	0.0007	0	78.5	31
-0.0008	-0.0008	0.0007	0	78.9	31
0	-0.0015	-0.0008	-0.0023	78.4	31
0.0007	-0.0008	0	-0.0008	78.6	31
0	-0.0008	-0.0008	-0.0015	78.7	31
-0.0008	-0.0015	0.0015	-0.003	78.4	31
-0.0008	-0.0015	-0.0008	-0.0008	78.6	31
0	-0.003	-0.0008	-0.0008	78.7	31
0.0007	-0.003	0.0015	-0.0015	78.6	31
0.0007	-0.0023	-0.0008	0	78.6	31
0.0007	-0.003	-0.0008	-0.0008	78.5	31
0.0007	-0.003	-0.0015	-0.0023	78.8	31
0.0007	-0.0015	-0.0015	-0.0023	78.4	31
0.0007	-0.0008	-0.0015	-0.0023	78.7	31
-0.0008	-0.0015	-0.0015	-0.0015	78.7	31
-0.0008	-0.0008	-0.0015	-0.0015	78.3	31
0	0.0007	-0.0015	-0.0023	78.8	31
-0.0008	0.0007	-0.0023	-0.0015	78.4	31
0	-0.0015	-0.0015	-0.0015	78.5	31
0.0007	-0.0023	-0.0008	-0.0015	78.7	31
0.0007	-0.003	-0.0015	0.0007	78.5	31
0.0007	-0.003	-0.0015	0.0015	78.7	31
0.0007	-0.003	-0.0023	0.0007	78.5	31
0.0007	-0.0008	-0.0008	0	78.7	31
0.0015	0.0015	-0.0008	-0.0008	78.6	31
0.0007	-0.0008	-0.0008	-0.0008	78.5	31
0.0007	-0.0008	0.0007	-0.0008	78.8	31
0	0	0	0	78.4	31
0.0015	-0.0015	0.0007	0	78.7	31
0.0015	-0.0015	0.003	0	78.7	31
0.0007	-0.0023	0.0007	-0.0008	78.5	31
0.0007	-0.003	0.0007	-0.0015	78.7	31
-0.0008	-0.0015	0.0007	0	78.6	31
0.0007	-0.0023	0.0007	-0.0008	78.5	31
0.0007	-0.003	-0.0008	0	78.6	31
0	-0.0015	-0.0015	0.0007	78.3	31
-0.0008	-0.0015	-0.0008	-0.0008	78.7	31
-0.0015	-0.0015	0	-0.0008	78.6	31
-0.0038	-0.0015	0.0007	-0.003	78.7	31
-0.003	-0.0023	-0.0008	-0.0023	78.5	31
-0.0008	-0.0008	-0.0008	-0.0015	78.5	31
-0.0023	-0.0015	-0.0008	-0.0015	78.6	31
-0.0015	-0.0015	0.0007	-0.0008	78.4	31
-0.0008	-0.0008	0.0015	-0.0008	78.6	31
0.0015	0	0.0007	-0.0023	78.7	31
0.0007	-0.0008	0	-0.003	78.4	31
-0.0015	-0.003	-0.0008	-0.0023	78.7	31
-0.0008	-0.003	0	-0.0015	78.4	31
-0.0015	-0.0046	-0.0008	-0.0015	78.7	31
-0.0015	-0.003	-0.0015	-0.003	78.5	31
0.0007	-0.0015	-0.0023	-0.0015	78.3	31
-0.0008	-0.0023	-0.0023	0	78.8	31
-0.0015	-0.0015	0.0007	-0.0008	78.6	31
0	-0.0008	0.0022	-0.0008	78.7	31
-0.0023	0.0007	-0.0008	0.0007	78.5	31
-0.0046	0.0007	-0.0008	0.0007	78.5	31
-0.0015	0.0015	0	0	78.5	31
-0.0023	0.0007	-0.0008	-0.0008	78.5	31
-0.0008	0.0015	0	-0.0015	78.7	31
0	0	-0.0015	-0.0008	78.6	31
0.0007	-0.0008	-0.0015	0	78.4	31
0.0007	-0.0015	-0.0015	-0.0015	78.7	31
0.0007	-0.0023	0.0007	-0.0008	78.2	31
0.0015	-0.0008	0.0022	-0.0008	78.6	31
0.0007	-0.0008	0.0015	-0.0015	78.5	31
-0.0008	0	0.0015	-0.0008	78.3	31
-0.0015	-0.0008	-0.0008	-0.0008	78.6	31
-0.0008	-0.0015	-0.0015	0	78.4	31
-0.0008	-0.0015	-0.0023	-0.0008	78.5	31
-0.0015	-0.0008	-0.0015	-0.0008	78.7	31
-0.0008	-0.0015	-0.0008	0	78.6	31
0.0007	-0.0008	-0.0015	-0.0008	78.5	31
0.0007	-0.0015	-0.0008	0	78.5	31
0.0007	-0.003	0.0007	-0.0008	78.7	31
0	-0.0015	-0.0008	-0.0008	78.4	31
0.0007	-0.003	0.0007	0.0007	78.3	31
-0.0015	-0.0015	0.0007	0	78.6	31
-0.0008	0	-0.0008	-0.0008	78.4	31
-0.0008	-0.0015	0	-0.0015	78.4	31
0.0007	-0.0015	0.0007	-0.0015	78.5	31
0.0007	-0.003	0.0007	-0.0008	78.2	31
0	-0.0015	0.0007	-0.0023	78.7	31
0.0007	-0.0008	0.0022	-0.0015	78.5	31
0.0007	-0.0023	0.0022	-0.0008	78.5	31
0.0015	-0.003	0.0015	-0.0008	78.5	31
0.0022	-0.0015	0.0007	0.0015	78.5	31
0.0015	-0.0015	0.0007	0.0015	78.5	31
0.0007	-0.003	-0.0008	0.0015	78.5	31
-0.0008	-0.0023	-0.0015	0.0007	78.5	31
0	-0.003	-0.0008	0.0007	78.4	31
-0.0015	-0.0015	-0.003	0	78.4	31
-0.0015	-0.0015	-0.0015	0.0007	78.7	31
-0.0008	-0.0023	-0.0015	0.0007	78.3	31
-0.0008	-0.0008	0.0007	-0.0008	78.6	31
0	-0.0015	0.0015	0.0007	78.3	31
-0.0008	-0.0015	0.0015	0.0007	78.4	31
-0.0015	0	0	0.0007	78.6	31
-0.0008	0.0007	-0.0015	0.0007	78.2	31
0	-0.0008	-0.0008	0.0007	78.5	31
-0.0008	-0.0008	-0.0008	0	78.5	31
-0.0008	-0.0008	0.0007	-0.0015	78.2	31
0.0007	-0.0015	-0.0015	-0.003	78.6	31
0.0015	-0.0008	-0.0015	-0.0015	78.6	31
0.0007	-0.0015	-0.0008	-0.0015	78.5	31
-0.0015	-0.0008	-0.0015	-0.0008	78.5	31
0.0007	0	-0.0015	-0.0008	78.5	31
0.0007	-0.0008	-0.0008	-0.0015	78.5	31
-0.0015	-0.0008	-0.0008	0.0007	78.2	31
-0.0008	-0.0008	-0.0015	0	78.6	31
0.0007	-0.0008	-0.0008	-0.0008	78.3	31
-0.0008	0	0	-0.0015	78.4	31
-0.0015	-0.0008	-0.0015	-0.0023	78.6	31
0.0007	-0.0008	-0.0008	-0.0015	78.3	31
-0.0008	-0.0008	0.0007	-0.0008	78.4	31
-0.0008	-0.0015	0.0007	-0.0015	78.5	31
0.0007	-0.0008	0	-0.0015	78.2	31
-0.0008	-0.0008	0	-0.0015	78.7	31
0.0007	0.0007	0.0015	-0.0015	78.3	31
0.0007	0.0007	0.0015	0	78.4	31
0.0015	-0.003	0.0007	0	78.5	31
0.0007	-0.0023	0.0007	-0.0023	78.5	31
0	-0.0015	-0.0008	-0.0023	78.4	31
0	-0.0008	0	-0.003	78.2	31
-0.0008	0.0007	0.0007	-0.0015	78.6	31
0.0007	0.0007	0.0007	0	78.4	31
0.0007	-0.0008	0	-0.0015	78.4	31
0	-0.0015	0.0007	-0.003	78.5	31
0.0007	-0.0008	0.0022	-0.0023	78.2	31
0	-0.0023	0.0015	-0.0008	78.6	31
-0.0008	-0.0008	0.0007	-0.0015	78.3	31
0.0007	-0.0015	0.0007	-0.0015	78.3	31
0	-0.0038	0.0007	-0.0015	78.6	31
0.0007	-0.003	0.0007	-0.0015	78.3	31
0.0015	-0.0046	0.0007	-0.0008	78.3	31
-0.0015	-0.0015	0.0007	-0.0015	78.3	31
-0.0015	-0.003	0	-0.0023	78.3	31
-0.0038	-0.0015	0	-0.0008	78.4	31
-0.003	-0.0008	0	0	78.2	31
-0.0023	-0.0015	-0.0008	-0.0008	78.7	31
-0.003	-0.0008	0.0015	-0.0008	78.2	31
-0.0008	-0.0015	-0.0008	-0.0008	78.5	31
-0.0023	-0.0008	-0.0008	-0.0008	78.6	31
-0.0015	-0.0008	-0.0015	-0.0008	78.2	31
-0.0008	-0.0015	-0.003	-0.003	78.7	31
0.0007	-0.0023	-0.0015	-0.003	78.3	31
0.0022	-0.0015	-0.0023	-0.0015	78.3	31
0.0015	-0.0008	-0.0008	-0.0008	78.5	31
0.0015	-0.0023	-0.0015	0.0007	78.3	31
0.0007	-0.003	-0.0023	0.0007	78.5	31
0.0007	-0.003	-0.0008	0.0007	78.4	31
0.0007	-0.0015	-0.0015	0.0007	78.4	31
0.0015	-0.0008	-0.0008	-0.0008	78.5	31
0.0007	0	0	-0.0008	78.4	31
-0.0008	-0.0008	0.0022	0.0007	78.6	31
-0.0015	-0.0008	0.0007	0.0007	78.3	31
-0.0008	0	-0.0008	0.0015	78.4	31
0	0.0007	-0.0008	0.003	78.4	31
-0.0008	-0.0015	-0.0008	0.0015	78.2	31
0	-0.0015	-0.0008	0.0015	78.6	31
-0.0008	0	-0.0015	-0.0008	78.3	31
-0.0008	-0.0008	0.0015	-0.0008	78.3	31
0	-0.0015	0.0007	0	78.6	31
-0.0008	-0.0023	0.0015	0	78.2	31
0	-0.0015	0.0022	-0.0008	78.4	31
0.0007	-0.0008	0.0015	-0.0015	78.5	31
0.0015	0	0.0015	-0.0008	78.5	31
0.0007	-0.0015	0.0007	0.0007	78.3	31
0.0015	-0.0038	0.0007	-0.0023	78.5	31
0.0007	-0.0023	0.0015	-0.0038	78.4	31
0.0007	-0.0015	0.0015	-0.003	78.4	31
0.0015	-0.0015	0.0015	-0.0015	78.3	31
-0.0008	-0.0008	0.0022	-0.0023	78.6	31
-0.0008	-0.0015	0.0007	-0.0015	78.1	31
0	-0.0008	0	0	78.5	31
-0.003	-0.0015	0	-0.0008	78.4	31
-0.0015	-0.0015	0	0.0007	78	31
0	-0.0015	-0.0015	-0.0008	78.5	31
0.0007	-0.0015	-0.0008	-0.0015	78.1	31
-0.0008	0.0007	0.0007	-0.0015	78.5	31
-0.0015	-0.0008	0	-0.0015	78.5	31
-0.0008	0	0.0007	-0.003	78.3	31
-0.0008	0.0015	-0.0023	-0.0023	78.5	31
0	-0.0008	-0.0008	-0.0015	78.5	31
0	-0.0008	-0.0008	-0.0008	78.3	31
0	-0.0008	-0.0023	-0.0008	78.3	31
0.0007	0	-0.0015	-0.0008	78.2	31
0.0007	-0.0008	-0.0015	-0.0008	78.6	31
-0.0008	-0.0008	-0.0015	-0.0015	78.1	31
-0.0008	-0.0008	-0.0015	-0.0008	78.4	31
0.0015	0	-0.0008	-0.0008	78.4	31
0.0007	-0.0015	0	-0.0008	78.5	31
-0.0015	-0.003	0.0007	-0.0015	78.5	31
-0.0008	-0.0023	0	0	78.3	31
0	-0.0015	0	0.0007	78.2	31
0.0007	-0.0015	0.0007	-0.0008	78.6	31
0.0015	-0.0015	-0.0008	-0.0008	78.1	31
0.0007	-0.0023	0.0007	-0.0015	78.5	31
-0.0008	-0.003	0.0007	-0.0008	78.3	31
-0.0008	-0.0023	-0.0008	0	78.3	31
-0.0015	-0.0008	-0.0015	0	78.5	31
-0.0015	0.0007	-0.0015	-0.0008	78.3	31
-0.0015	0.0015	-0.0015	0.0007	78.6	31
-0.0008	-0.0015	-0.0008	-0.0008	78.2	31
-0.0008	-0.0015	-0.0015	-0.0008	78.2	31
-0.0008	-0.0008	-0.0015	-0.0008	78.6	31
-0.0008	-0.0023	-0.0008	-0.0015	78.1	31
-0.0008	-0.003	0.0007	-0.0023	78.5	31
-0.0008	-0.003	0	-0.0046	78.3	31
-0.0015	-0.003	0.0015	-0.0015	78.2	31
-0.0015	-0.0008	0.003	-0.0008	78.5	31
-0.0015	0.0007	0.003	-0.0008	78.3	31
-0.0008	-0.0015	0.0015	-0.0015	78.5	31
-0.0008	-0.0015	0.0015	-0.0008	78.4	31
-0.0015	-0.0008	0.0007	0	78.4	31
0	-0.003	-0.0023	0	78.4	31
0	-0.0015	-0.003	-0.0008	78.3	31
-0.0008	-0.0015	-0.003	-0.0008	78.4	31
0.0015	-0.0008	-0.0046	0	78.2	31
0.0022	-0.0008	-0.0023	-0.0008	78.5	31
0.0007	-0.003	-0.0008	-0.0008	78.5	31
-0.0008	-0.003	-0.0008	-0.0015	78.2	31
0	-0.0023	0.0007	-0.0008	78.6	31
0.0015	-0.0023	0	-0.0008	78.2	31
0.0007	-0.003	-0.0015	0	78.3	31
0.0007	-0.0008	0	-0.0008	78.7	31
0.0015	0.0007	-0.0015	-0.0023	78.2	31
0.0022	-0.0015	-0.0008	-0.0015	78.4	31
-0.0008	-0.0015	0.0007	0	78.4	31
-0.0008	-0.0015	0.0022	-0.003	78.2	31
-0.0015	-0.0008	0.0015	-0.0023	78.4	31
-0.0015	0	0.0015	-0.0015	78.5	31
-0.0008	-0.0015	0.003	-0.0008	78.3	31
-0.0015	-0.0008	0.0007	-0.0008	78.3	31
-0.0015	-0.0008	0	-0.0015	78.4	31
-0.0023	-0.0008	-0.003	-0.0008	78.4	31
0	-0.0015	-0.0023	-0.0023	78.3	31
0.0007	-0.0023	-0.0008	-0.0015	78.2	31
-0.0008	-0.0015	0	-0.0015	78.4	31
0.0007	-0.0015	0	-0.0015	78.2	31
0	-0.003	-0.0008	0	78.6	31
0	-0.0046	0	-0.0008	78.2	31
-0.0008	-0.003	-0.0015	-0.0015	78.4	31
-0.0008	-0.0008	-0.0023	-0.0015	78.3	31
0.0007	-0.0008	-0.0015	-0.0023	78.2	31
0.0007	-0.0015	0.0007	-0.0015	78.4	31
0.0007	-0.0008	0	-0.0008	78.4	31
0	-0.0008	-0.0015	0	78.3	31
0	0.0007	0	-0.0008	78.3	31
0	0.0007	0.0007	-0.0008	78.3	31
-0.0008	-0.0015	0.0007	-0.0008	78.4	31
0.0022	-0.0008	0.0015	-0.0008	78.2	31
0.0015	0.0007	0.0015	-0.0008	78.6	31
-0.0008	-0.0008	0.0007	0.0007	78.3	31
0.0007	-0.0008	0	0.0007	78.3	31
0.0022	0.0015	-0.0008	-0.0008	78.5	31
0.0015	0.0015	0	-0.0008	78	31
0.0007	0.0015	0.0007	0	78.5	31
0.0007	0	0.0015	0.0007	78.3	31
0	-0.0015	0.0022	-0.0008	78.2	31
0	-0.0015	0.0007	-0.0008	78.5	31
0.0007	-0.003	0.0015	0	78.4	31
0.0007	-0.0023	0.0007	-0.0008	78.4	31
0	-0.0015	0.0007	0.0007	78.4	31
-0.0015	-0.0008	0	-0.0008	78.5	31
-0.0008	0.0007	-0.0008	-0.0015	78.5	31
0	0.0007	0.0007	-0.0015	78.2	31
-0.0015	-0.0008	0	-0.0015	78.7	31
-0.0008	0.0007	0.0007	-0.0015	78.2	31
0.0007	-0.0008	-0.0008	-0.0015	78.4	31
-0.0008	0.0007	-0.0008	-0.0008	78.5	31
-0.0008	-0.0008	-0.0008	-0.0008	78.3	31
0	-0.0015	-0.003	-0.0015	78.4	31
-0.0008	-0.0008	0.0007	-0.0015	78.5	31
-0.0008	-0.0015	0	-0.0008	78.4	31
-0.0015	0.0007	0.0015	-0.0015	78.5	31
0.0007	0	0.0015	-0.0023	78.2	31
0.0007	0	0.0015	-0.0008	78.2	31
-0.0008	0	-0.0008	0.0007	78.3	31
0.0007	-0.0015	-0.003	0	78.4	31
0	0	-0.0015	-0.0008	78.4	31
0	-0.0008	-0.0015	-0.003	78.3	31
0	-0.003	-0.0008	-0.0015	78.5	31
0	-0.003	-0.0015	-0.0008	78.2	31
0.0007	-0.0023	-0.0008	-0.0015	78.3	31
0.0007	-0.0015	-0.0008	0.0007	78.6	31
0	-0.0015	-0.0008	0.0007	78.3	31
-0.0015	-0.0023	0.0007	0	78.7	31
-0.0008	-0.0023	0.0022	0	78.5	31
-0.0015	-0.0008	0.0015	0.0007	78.3	31
-0.0023	-0.0008	0.0007	-0.0008	78.6	31
-0.0023	-0.0015	0	0.0007	78.3	31
-0.0015	-0.0015	-0.0008	0.0007	78.5	31
-0.0008	-0.0008	-0.0008	0.0015	78.4	31
-0.0008	-0.0023	0	0.0015	78.4	31
-0.0008	-0.003	-0.0015	-0.0008	78.4	31
-0.0023	-0.003	-0.0015	0	78.5	31
-0.0023	-0.003	-0.0008	-0.0023	78.5	31
-0.0015	-0.0023	-0.0008	-0.0015	78.3	31
0.0007	-0.0015	-0.0008	-0.0015	78.3	31
0.0007	-0.0015	-0.0008	-0.0023	78.7	31
0.0007	0.0007	-0.0015	-0.0008	78.2	31
0	0	-0.0008	-0.0008	78.4	31
-0.0008	-0.0008	-0.0015	-0.0023	78.6	31
-0.0008	-0.0015	-0.0015	-0.0015	78.3	31
-0.0008	-0.003	-0.0015	-0.0008	78.5	31
0	-0.003	0.0007	-0.0015	78.5	31
0	-0.0046	0.0007	-0.0008	78.3	31
0	-0.0038	-0.0023	-0.0008	78.5	31
-0.0008	-0.0038	0	-0.0008	78.5	31
-0.0008	-0.0015	0.0007	0	78.5	31
-0.0015	0.0007	-0.0008	-0.0008	78.3	31
-0.0008	-0.0008	-0.0008	-0.0015	78.6	31
0.0007	-0.0023	-0.0015	-0.003	78.3	31
0.0015	-0.003	0.0007	-0.0023	78.3	31
0.0007	-0.0023	0.0015	-0.003	78.6	31
0.0007	-0.0008	0.0007	-0.0008	78.4	31
-0.0008	-0.0023	0.0007	-0.0008	78.3	31
0.0015	-0.0015	0	-0.0015	78.7	31
0.0015	-0.0008	0.0007	-0.0008	78.2	31
0.0015	-0.0015	0.0007	-0.0008	78.6	31
0	-0.0015	0.0007	-0.0008	78.5	31
-0.0008	-0.0023	-0.0008	0	78.2	31
0	0	0	0	78.6	31
0	0.0007	0	-0.0015	78.2	31
0.0007	-0.0008	0.0007	-0.0015	78.4	31
0.0007	0	-0.0008	-0.0015	78.3	31
0.0007	-0.0008	-0.0008	-0.0008	78.4	31
0.0007	-0.0015	0	-0.0008	78.6	31
0.0007	-0.0008	-0.0008	-0.0008	78.3	31
0	-0.0008	0	0	78.6	31
0.0007	-0.0008	0.0015	-0.0015	78.3	31
0.0007	0.0007	0.0007	-0.0015	78.3	31
-0.0008	-0.0008	0.0007	-0.0008	78.7	31
-0.0008	-0.0008	-0.0008	-0.0015	78.3	31
0	0	-0.0038	0	78.5	31
0	-0.0015	-0.003	-0.0008	78.6	31
0.0007	-0.0008	-0.0008	0	78.2	31
0.0015	-0.0015	0.0007	-0.0008	78.5	31
0.0022	-0.0008	0.0015	-0.0008	78.5	31
0.0007	-0.0015	-0.0008	-0.0008	78.3	31
0.0007	-0.0023	-0.0015	-0.0008	78.4	31
-0.0008	-0.0015	-0.0015	-0.0015	78.5	31
0	-0.0008	0	0	78.4	31
0	-0.0008	0	0	78.3	31
0	-0.0008	-0.0008	0	78.5	31
0.0007	-0.0015	0.0007	0.0007	78.5	31
0	-0.0015	0.0007	0.0007	78.3	31
-0.0008	-0.0015	0	0.0007	78.5	31
-0.0008	-0.0008	0.0015	-0.0008	78.4	31
-0.0008	-0.0015	0.0015	0.0007	78.4	31
-0.0008	-0.0015	0	0	78.7	31
0	-0.0015	-0.0008	-0.0015	78.3	31
-0.0015	-0.003	-0.0008	-0.0015	78.6	31
0.0007	-0.0023	-0.0015	-0.0023	78.5	31
-0.0008	-0.0015	0.0007	-0.0015	78.3	31
-0.0015	-0.0015	0.0007	-0.0015	78.6	31
-0.0008	-0.0008	0.0007	-0.0023	78.5	31
-0.0015	-0.003	0.0007	-0.003	78.4	31
0	-0.0008	0.0007	-0.003	78.5	31
0.0007	-0.0023	0.0022	-0.0015	78.5	31
0	-0.003	0.0007	-0.0023	78.7	31
0	-0.003	0.0007	-0.0008	78	31
-0.0008	-0.0023	0.0015	-0.0008	78.6	31
-0.0008	0	0.0007	-0.0008	78.2	31
-0.0008	-0.0015	0.0007	-0.0008	78.3	31
-0.0008	-0.0015	0.0015	-0.0015	78.5	31
-0.0008	0	-0.0008	-0.0008	78.2	31
-0.0008	0.0007	-0.0008	-0.0008	78.7	31
0.0007	0	-0.0008	-0.0015	78.5	31
0.0007	-0.0008	-0.0015	-0.0008	78.3	31
-0.0008	-0.003	0.0007	-0.0008	78.5	31
-0.0008	-0.0015	-0.0008	-0.0008	78.3	31
-0.0008	-0.0015	-0.0015	0	78.3	31
-0.0015	-0.0008	0.0007	0	78.5	31
-0.0015	0.0007	0.0007	0.0007	78.5	31
0	-0.0015	0.0015	0.0007	78.2	31
0.0007	0.0007	-0.0008	0.0007	78.3	31
0.0007	0.0015	0	-0.0008	78.6	31
-0.0008	-0.0008	0.0015	-0.0015	78.3	31
0	0	-0.0008	-0.0023	78.4	31
-0.0008	-0.0008	-0.0008	-0.003	78.5	31
0.0007	-0.0008	-0.0038	-0.0015	78.2	31
0.0007	-0.0008	-0.003	-0.0015	78.4	31
0.0007	-0.0008	-0.0008	-0.003	78.4	31
0.0007	-0.0015	-0.0015	-0.003	78.3	31
-0.0015	-0.0008	-0.0015	-0.0008	78.6	31
0.0007	-0.0015	-0.003	-0.0008	78.3	31
0	-0.0015	-0.0023	-0.0008	78.4	31
-0.0008	-0.0008	-0.0015	0	78.4	31
0.0007	-0.0008	-0.0023	0	78.3	31
0.0007	-0.0008	-0.0015	0	78.3	31
0.0007	-0.0008	-0.0008	-0.0008	78.3	31
0.0015	-0.0015	0	-0.0008	78.5	31
0.0015	-0.0023	-0.0008	-0.0008	78.4	31
0	-0.0015	-0.0008	-0.0008	78.4	31
0.0007	-0.003	0.0007	-0.0008	78.7	31
0.0007	-0.0023	0.0015	-0.0008	78.2	31
0.0007	-0.0008	0.0007	-0.0008	78.6	31
0.0015	-0.0023	0	-0.0038	78.5	31
0.0007	-0.0008	0.0007	-0.0023	78.2	31
-0.0008	0	-0.0008	-0.0023	78.6	31
-0.0015	0.0007	0.0007	-0.0015	78.2	31
-0.0015	0.0007	0.0015	-0.0008	78.5	31
-0.0015	-0.0008	0.0007	-0.0015	78.4	31
0	-0.0015	-0.0008	0	78.3	31
0.0007	-0.0008	-0.0008	0.0007	78.3	31
-0.0008	0.0007	-0.0015	0.0007	78.3	31
-0.0008	0	-0.0015	-0.0008	78.6	31
-0.0015	0.0007	0.0007	0.0007	78.3	31
-0.0015	0.0007	0.0015	0.0007	78.4	31
-0.003	-0.0015	0.0007	0	78.5	31
-0.0015	-0.0023	0.0015	0	78.2	31
0.0007	-0.003	0.0007	0.0007	78.5	31
0.0007	-0.0038	0	0.0022	78.3	31
0.0007	-0.0038	-0.0023	0.0007	78.3	31
-0.0008	-0.0046	-0.0046	0.0007	78.5	31
0	-0.0023	-0.0008	-0.0008	78.2	31
0.0015	-0.0015	-0.0008	0.0007	78.4	31
0.0015	-0.003	-0.0008	0.0007	78.5	31
0.0007	-0.0015	0.0007	-0.0015	78.3	31
-0.0023	-0.0008	0.003	-0.0015	78.4	31
-0.0015	-0.0008	0.0015	-0.0008	78.4	31
-0.0008	-0.0008	0.0007	-0.0008	78.5	31
0.0007	-0.0008	-0.0008	-0.0008	78.2	31
0.0007	-0.0015	0.0007	-0.0008	78.5	31
0.0007	-0.0008	0.003	-0.0008	78.5	31
0.0015	0.0007	0.003	0	78.3	31
-0.0008	0.0007	0.0022	-0.0015	78.3	31
0.0007	0	0.0015	-0.0015	78.6	31
0.0015	-0.0008	0.0022	-0.003	78.3	31
0.0007	-0.0015	0.0015	-0.0015	78.7	31
0.0015	-0.0015	0.0007	0.0007	78.3	31
0.0015	-0.0015	0.0007	-0.0008	78.6	31
-0.0008	-0.0008	-0.0008	0.0007	78.5	31
0.0007	-0.0015	0.0015	0	78.3	31
0.0007	-0.0008	0.0015	0.0007	78.5	31
0.0015	-0.0015	0.0007	0.0007	78.5	31
0.0007	0	0.0015	0	78.5	31
0	-0.0008	-0.0008	0	78.4	31
0	-0.003	-0.0008	-0.0008	78.3	31
0.0007	-0.0008	0	-0.0008	78.7	31
0.0007	-0.0015	0.0007	-0.0023	78.2	31
-0.0008	-0.0008	0.0007	-0.003	78.5	31
-0.0008	0.0007	0.0015	-0.003	78.5	31
-0.0008	-0.0008	0.0037	-0.0023	78.3	31
-0.0008	-0.0008	0.0015	-0.0023	78.7	31
-0.0015	0	0.0015	-0.0015	78.2	31
-0.0023	-0.0015	0.0015	-0.0015	78.5	31
-0.0015	-0.003	0	-0.0015	78.6	31
0	-0.003	0	-0.0008	78.2	31
-0.0015	-0.0023	-0.0008	-0.0008	78.5	31
-0.0015	-0.0008	-0.0008	-0.0015	78.5	31
-0.0015	0	-0.0008	-0.0015	78.4	31
-0.0008	-0.0008	-0.0008	-0.0015	78.4	31
-0.0008	-0.0008	-0.003	-0.0015	78.5	31
-0.003	-0.0008	-0.003	-0.003	78.6	31
-0.0023	-0.0015	-0.0015	-0.0023	78.3	31
-0.0038	-0.0008	-0.0023	-0.0008	78.7	31
-0.0015	-0.0008	-0.0023	-0.0008	78.4	31
0.0007	-0.003	-0.0015	-0.0015	78.4	31
-0.0008	-0.0038	-0.0008	-0.003	78.5	31
-0.0008	-0.0023	-0.0008	-0.003	78.4	31
-0.0008	-0.0015	0.0007	-0.0015	78.2	31
-0.0015	-0.0015	0	-0.0008	78.5	31
0	-0.0008	-0.0015	0	78.2	31
0.0007	-0.0023	-0.0008	0	78.7	31
0.0007	-0.0015	0	-0.0008	78.3	31
0.0007	-0.0015	-0.0008	0	78.5	31
0.0007	-0.0023	-0.0008	-0.0008	78.4	31
0.0015	-0.0015	0	-0.0015	78.5	31
0.0022	-0.0038	-0.0008	-0.0015	78.5	31
0.0022	-0.003	-0.0008	-0.0015	78.4	31
0.0015	-0.003	-0.0008	-0.003	78.4	31
0.0015	-0.0038	0	-0.0038	78.5	31
0.0007	-0.003	0.0007	-0.003	78.2	31
-0.0008	-0.003	-0.0008	-0.0023	78.6	31
0.0015	-0.003	0.0015	-0.0008	78.3	31
0.0015	-0.0023	0.003	0.0015	78.3	31
0.0007	-0.0015	0.0022	0	78.5	31
0.0015	-0.0015	0.0015	0.0022	78.3	31
0.0007	-0.0015	-0.0008	0.0022	78.7	31
0.0015	0.0007	-0.0008	0.0007	78.3	31
0.0015	0.0007	0.0015	0	78.5	31
0.0007	0	0.0007	-0.0008	78.4	31
0.0007	0	0	-0.0008	78.4	31
-0.0015	0	-0.0008	0	78.4	31
-0.0023	-0.0008	-0.0008	0.0007	78.3	31
-0.0015	-0.0015	-0.0008	0.0007	78.5	31
0.0007	-0.0023	-0.0015	0	78.6	31
0.0007	-0.0023	-0.0015	0.0007	78.3	31
0	-0.0015	-0.0015	0.0007	78.6	31
0.0007	0	-0.0008	0.0007	78.2	31
0	0.0007	-0.0008	-0.0008	78.5	31
-0.0008	0	0.0007	-0.0008	78.5	31
0	-0.0008	0	-0.0015	78.4	31
-0.0015	0	-0.0008	-0.0015	78.4	31
-0.0015	0	0	-0.0015	78.5	31
-0.0008	-0.0008	0.0007	-0.0015	78.3	31
-0.0008	-0.0008	0	0	78.4	31
-0.0008	0.0007	-0.0008	-0.0015	78.4	31
-0.0008	-0.0008	0.0007	-0.003	78.5	31
-0.0008	-0.0015	-0.0015	-0.003	78.3	31
-0.0008	-0.0015	-0.0015	-0.003	78.5	31
-0.0023	-0.0023	-0.0015	-0.0023	78.3	31
-0.0008	-0.0015	-0.0008	-0.003	78.3	31
-0.0015	0	-0.0008	-0.0046	78.5	31
-0.003	-0.0008	0.0007	-0.003	78.3	31
-0.0015	-0.0015	0	-0.0023	78.3	31
-0.0008	0.0007	-0.0008	-0.0015	78.6	31
0.0007	-0.0008	0.0007	-0.0015	78.2	31
0.0007	-0.0023	-0.0008	-0.0015	78.7	31
0	-0.0023	-0.0008	0	78.3	31
0.0015	-0.0023	-0.0008	0.0007	78.3	31
0.0022	-0.003	0.0007	0.0015	78.6	31
0.0007	-0.003	-0.0015	0.0007	78.2	31
0.0007	-0.0023	-0.003	0.0015	78.4	31
0	-0.0008	0	0	78.3	31
-0.0008	-0.0008	0.0007	-0.0008	78.3	31
-0.0008	-0.0008	0	0	78.5	31
-0.0008	-0.0008	-0.0015	-0.0008	78.3	31
0	-0.0008	-0.003	-0.0008	78.6	31
0.0007	-0.0008	-0.0015	0.0007	78.3	31
0	-0.0015	-0.0008	0.0007	78.2	31
-0.0008	-0.0015	-0.0008	0	78.7	31
-0.0008	-0.0015	-0.0015	0.0007	78.3	31
0	-0.003	0	-0.0008	78.6	31
0.0007	-0.0038	0.0015	-0.0008	78.4	31
0	-0.0015	0.0007	-0.0008	78.5	31
0.0007	0.0007	0.0007	-0.0008	78.6	31
0	0.0007	0	0	78.3	31
0	-0.0008	-0.0008	0.0007	78.2	31
0.0007	-0.0008	-0.0008	-0.0008	78.5	31
-0.0015	-0.0023	-0.003	-0.003	78.5	31
0.0007	-0.003	-0.0015	-0.0015	78.5	31
-0.0008	-0.0023	0.0007	-0.0015	78.3	31
-0.0015	-0.003	0.0007	-0.0015	78.7	31
-0.0008	0.0007	0.0015	0.0007	78.3	31
-0.0008	0.0007	-0.0008	-0.0008	78.4	31
0.0007	0	0	0	78.7	31
0	-0.0015	0.0007	-0.0008	78.2	31
0.0007	-0.0046	-0.0008	-0.0008	78.4	31
0.0015	-0.0023	-0.0008	-0.0015	78.4	31
0.0007	-0.003	0.0007	-0.0015	78.2	31
-0.0008	-0.0015	-0.0008	-0.0008	78.6	31
-0.0008	-0.0008	0.0007	-0.0008	78.2	31
-0.0008	-0.0023	-0.0008	0	78.5	31
-0.0008	-0.0015	-0.0015	-0.0008	78.5	31
-0.0008	-0.0015	0	-0.0015	78.5	31
-0.0015	0	-0.0008	0.0007	78.3	31
-0.0015	-0.0015	0	0.0007	78.5	31
-0.0023	-0.003	0.0015	0	78.6	31
-0.0015	-0.0015	0.0007	0.0007	78.4	31
-0.0023	-0.003	0.0007	-0.0008	78.3	31
-0.0008	-0.0015	0.0015	-0.0008	78.7	31
0.0007	0.0007	-0.0008	-0.0008	78.2	31
0.0007	0.0007	0.0007	-0.0015	78.7	31
0.0007	0	0.0007	-0.0015	78.3	31
-0.0008	0	0.0007	-0.0015	78.2	31
0	0.0007	0.0022	-0.0008	78.7	31
0.0015	-0.0008	0.0007	-0.0008	78.2	31
0.0007	-0.0008	0.0007	0.0007	78.5	31
0.0007	-0.0015	-0.0008	0	78.3	31
0.0007	-0.0008	0.0007	-0.0015	78.3	31
0	0	0.0015	-0.0015	78.4	31
-0.0008	-0.0008	0.0007	-0.0008	78.4	31
0.0007	-0.0008	0.0007	-0.0008	78.4	31
0.0007	-0.0015	-0.0008	0.0007	78.2	31
0.0007	-0.0015	-0.0008	-0.0008	78.6	31
0.0015	-0.0015	-0.0008	-0.0015	78.4	31
0.0007	-0.0015	-0.0015	-0.0015	78.3	31
-0.0008	-0.0008	-0.0008	-0.0008	78.7	31
-0.0008	-0.0046	-0.0008	-0.0008	78.2	31
-0.0023	-0.003	-0.0015	0	78.5	31
-0.0008	-0.0023	-0.0008	-0.0015	78.5	31
0.0015	-0.0015	0.0007	-0.0038	78.2	31
0	-0.0008	-0.0008	-0.0023	78.5	31
-0.0015	-0.0023	-0.0008	-0.0015	78.5	31
-0.0008	-0.0015	0.0007	-0.0015	78.3	31
-0.0008	-0.0008	0.0007	-0.0015	78.5	31
-0.0008	0.0007	0.0007	-0.0008	78.5	31
0.0007	0.0022	-0.0008	0.0007	78.4	31
0.0007	-0.0008	0	-0.0008	78.3	31
-0.0008	-0.0008	-0.0008	-0.0008	78.5	31
-0.0015	0.0007	-0.0008	-0.0008	78.3	31
-0.0008	0.0007	-0.0008	0.0007	78.4	31
-0.0015	0.0007	-0.0008	0.0015	78.6	31
-0.0015	0.0007	0.0007	0	78.4	31
-0.0008	-0.0008	0.0007	0.0015	78.4	31
-0.0015	-0.0008	-0.0008	0.0015	78.7	31
-0.0008	-0.0008	0.0007	-0.0015	78.1	31
0.0015	-0.0015	0	-0.0008	78.5	31
0	-0.0008	0	-0.0008	78.3	31
-0.0008	0	0.0015	-0.0008	78.3	31
0.0007	0	-0.0008	-0.0008	78.4	31
0.0007	-0.0008	0	-0.0008	78.4	31
0.0007	0.0007	0.0007	0	78.5	31
0.0007	-0.0008	-0.0008	-0.0008	78.5	31
-0.0008	-0.0023	-0.0008	-0.0008	78.5	31
0	-0.003	0	0.0007	78.4	31
0	-0.0038	-0.0008	-0.0008	78.5	31
0.0007	-0.0015	0.0007	-0.0015	78.7	31
0.0007	-0.0023	0.0022	-0.0023	78.3	31
-0.0008	-0.0008	0.0015	-0.003	78.7	31
0	-0.0008	0.0037	-0.0015	78.5	31
0.0007	-0.0015	0.0022	-0.0023	78.4	31
-0.0015	-0.0008	0.0007	-0.0023	78.6	31
-0.0015	-0.003	0.0007	-0.0023	78.3	31
-0.003	-0.003	-0.0015	-0.003	78.5	31
-0.0015	-0.0023	-0.0008	-0.003	78.4	31
-0.0008	-0.003	0.0007	-0.0015	78.4	31
0.0007	-0.0008	0	-0.0015	78.4	31
0.0022	-0.0015	0.0007	-0.0015	78.4	31
0.0015	-0.0023	-0.0008	-0.0015	78.5	31
0.0007	-0.003	-0.0008	0	78.5	31
0.0015	-0.0023	0	0.0007	78.6	31
0.0007	-0.0015	0	-0.0008	78.5	31
0	-0.0015	-0.0008	-0.003	78.4	31
-0.0008	-0.0023	0	-0.0015	78.7	31
-0.0008	-0.0015	0	0.0007	78.3	31
-0.0015	-0.0023	-0.0008	0.0007	78.5	31
-0.0015	-0.0015	-0.0008	-0.0008	78.5	31
0	-0.0015	-0.0008	-0.0015	78.3	31
-0.0008	-0.003	0	-0.0008	78.7	31
-0.0008	-0.0015	0.0007	-0.0008	78.4	31
-0.0008	-0.0015	0.0022	-0.0008	78.4	31
-0.0008	-0.0015	0.0007	-0.0008	78.6	31
-0.0008	-0.0015	0	-0.0015	78.4	31
0	-0.0008	0.0015	-0.0023	78.6	31
0.0015	-0.0015	0.0007	-0.0038	78.4	31
0.0007	-0.0023	-0.0015	-0.003	78.7	31
0.0007	-0.0015	-0.0023	-0.0015	78.4	31
0.0007	-0.0015	-0.0008	0.0007	78.6	31
0.0015	-0.0008	0	0.0022	78.6	31
0.0007	-0.0008	0	0.0015	78.4	31
-0.0008	0.0007	0	0.0007	78.6	31
0.0007	-0.0008	-0.0015	0.0007	78.5	31
-0.0008	-0.0008	0	-0.0008	78.5	31
-0.0008	0	0.0015	-0.0015	78.7	31
0.0015	-0.0008	0	-0.0008	78.1	31
0.0015	0	-0.0008	-0.0015	78.7	31
0.0007	0.0007	0.0007	-0.0015	78.4	31
0	-0.0023	0.0007	-0.0008	78.3	31
-0.0008	-0.0008	-0.0008	-0.0008	78.5	31
0.0007	0	-0.0015	-0.0008	78.5	31
0.0007	0.0007	-0.003	-0.0015	78.6	31
0.0007	0.0015	-0.003	-0.0015	78.5	31
-0.0008	0.0007	-0.0008	-0.0008	78.4	31
-0.0008	-0.0008	0	0.0007	78.6	31
-0.0008	-0.0015	-0.0008	0	78.3	31
-0.0023	-0.0015	-0.0015	-0.0015	78.7	31
-0.0008	-0.003	-0.0015	-0.0008	78.6	31
-0.0008	-0.0015	-0.0008	-0.0015	78.6	31
-0.0015	-0.0015	0.0007	-0.0008	78.6	31
-0.0015	0	0	-0.0023	78.4	31
-0.0008	0.0015	-0.0008	-0.0015	78.7	31
0	0.0007	-0.0015	-0.0008	78.4	31
-0.0015	-0.0008	-0.0015	-0.0008	78.5	31
-0.0008	-0.0023	-0.0023	-0.0015	78.7	31
-0.0008	-0.0015	-0.0015	-0.0015	78.5	31
0.0007	-0.0008	-0.0015	-0.0015	78.6	31
0.0015	-0.0015	-0.0015	-0.0015	78.5	31
0.0015	-0.0023	0	-0.0008	78.7	31
0	-0.003	0.0007	-0.0008	78.3	31
0.0007	-0.0015	0	0.0007	78.5	31
0.0007	0	-0.0008	0.0007	78.7	31
-0.0008	-0.0008	0.0007	0.0007	78.3	31
0	-0.0008	0	0.0022	78.7	31
0	-0.0015	0	-0.0008	78.5	31
-0.0008	-0.0023	0.0015	0.0015	78.5	31
-0.0008	-0.003	0	0.0007	78.7	31
-0.0008	-0.003	0.0007	0.0007	78.6	31
0	-0.0015	0	-0.0008	78.6	31
0.0007	-0.003	0.0015	-0.0008	78.7	31
0.0007	-0.0023	0.0007	-0.0008	78.5	31
-0.0008	-0.0008	-0.0008	-0.0008	78.6	31
0.0015	-0.0008	-0.0008	-0.0008	78.6	31
0.0015	-0.0008	-0.0015	-0.0015	78.6	31
0.0007	-0.0008	-0.003	-0.0015	78.6	31
0	-0.0015	0	-0.0023	78.7	31
-0.0008	-0.003	0.0015	-0.0015	78.7	31
-0.0008	-0.003	0.003	-0.003	78.7	31
-0.0008	-0.003	0.003	-0.003	78.7	31
0	-0.0038	0.0015	-0.0015	78.8	31
-0.0008	-0.003	-0.0008	-0.0015	78.4	31
-0.003	-0.0015	0.0007	-0.0008	78.7	31
-0.0023	-0.0015	0.0015	0	78.6	31
-0.0008	-0.0008	0	0	78.7	31
-0.0015	-0.0008	-0.0008	-0.0008	78.7	31
-0.0015	0	-0.0015	0	78.5	31
-0.003	-0.0008	-0.0015	0	78.7	31
-0.0008	-0.0008	-0.0008	0.0007	78.6	31
0.0007	0.0007	-0.0008	0.0015	78.7	31
0.0007	-0.0008	-0.0015	0	78.7	31
0.0007	0	-0.0023	0	78.5	31
-0.0008	-0.0008	-0.0008	0.0007	79	31
0.0007	-0.0008	0	-0.0008	78.4	31
0.0007	-0.0008	0.0007	-0.003	78.8	31
-0.0008	0.0007	0.003	-0.003	78.6	31
-0.0015	0.0007	0.0022	-0.003	78.4	31
-0.0008	-0.0015	0	-0.0023	78.9	31
-0.0008	-0.0038	-0.0015	-0.0008	78.5	31
-0.0008	-0.0023	-0.003	-0.0015	78.7	31
0.0007	-0.0008	-0.0046	0.0007	78.7	31
0	-0.0015	-0.0046	0.0007	78.5	31
0.0015	-0.0008	-0.0023	0	78.7	31
0.0007	0	-0.0015	-0.0015	78.9	31
0.0007	0	-0.0008	-0.0015	78.7	31
0	-0.0008	-0.0015	-0.003	78.6	31
0	0	0	-0.003	78.7	31
-0.0008	0	0.0022	-0.0023	78.9	31
-0.0015	0.0015	0.0007	-0.0008	78.5	31
0.0007	0.0007	0.0015	-0.0008	79	31
0	0	0.0007	-0.0023	78.6	31
0.0015	0.0007	-0.0015	0	78.6	31
0.0022	-0.003	0.0007	-0.0008	78.8	31
0.0022	-0.0023	0.0015	0.0007	78.7	31
0.0022	-0.0023	0.0015	0.0007	78.7	31
0.0007	-0.003	0.0007	-0.0008	79	31
0.0015	-0.0008	0	-0.0008	78.5	31
0	-0.0008	0.0007	-0.003	78.8	31
0	0	0.0007	-0.0015	78.6	31
0	-0.0008	-0.0008	-0.003	78.7	31
-0.0008	-0.0008	-0.0008	-0.003	78.7	31
-0.0008	-0.0008	0.0007	-0.0015	78.9	31
-0.0008	-0.0008	0.0015	0	78.9	31
-0.0015	-0.0008	0.0015	-0.0008	78.6	31
-0.0008	-0.0015	0.0015	0	78.7	31
-0.0008	-0.0015	0.0015	0	78.7	31
0.0015	-0.0015	0.0015	-0.0015	78.6	31
0.0015	-0.0008	-0.0008	0.0007	78.9	31
0.0007	-0.0015	0.0007	-0.0008	78.6	31
0.0007	-0.0015	0.0015	-0.0008	78.8	31
-0.0015	-0.0015	0.0015	-0.0008	78.7	31
-0.0015	-0.0008	0.0007	-0.0008	78.6	31
0.0007	-0.0008	-0.0008	-0.0008	78.8	31
-0.0008	-0.0015	0.0015	-0.0008	78.5	31
0	-0.0008	0	0	78.9	31
0	-0.0015	-0.0008	-0.0015	78.6	31
-0.0008	-0.0015	0	-0.0015	78.7	31
-0.0008	-0.0008	-0.0008	-0.003	78.8	31
-0.0008	0	0.0015	-0.0023	78.7	31
0.0007	-0.0015	0.0015	-0.0015	78.9	31
0.0007	-0.0015	0.0007	-0.0015	78.7	31
0	0.0007	0.0015	-0.0023	78.8	31
0	-0.0015	0.0007	-0.0008	79	31
0	-0.0015	0.0007	0.0015	78.7	31
-0.0015	0	0.0015	0	79	31
-0.0015	-0.0008	0	-0.0008	78.7	31
-0.0008	-0.0008	0	0	78.7	31
-0.0015	-0.0008	0	0.0015	78.8	31
-0.0008	-0.0015	0	0.0015	78.5	31
-0.0008	-0.0008	0	0	78.7	31
0	-0.003	0	-0.0008	78.7	31
-0.0008	-0.0015	-0.0008	-0.0015	78.7	31
-0.0015	-0.0015	-0.0015	-0.0038	78.8	31
-0.0008	-0.0038	-0.0015	-0.003	78.8	31
0.0007	-0.0023	-0.0015	-0.0015	78.8	31
-0.0008	-0.0023	-0.0023	-0.0015	78.5	31
-0.0008	-0.0015	-0.0008	-0.0015	78.7	31
-0.0008	-0.0008	-0.0008	-0.0015	78.8	31
-0.0008	0	-0.0008	-0.0023	78.5	31
-0.0015	-0.0008	-0.0008	-0.0015	78.9	31
-0.0008	-0.0023	-0.003	0	78.7	31
0.0007	-0.0015	-0.0023	-0.0008	78.7	31
0	-0.0015	-0.0015	-0.0008	79	31
0	-0.0008	-0.0015	0.0007	78.6	31
0.0007	-0.0008	-0.0038	0.0007	78.8	31
0	-0.003	-0.003	-0.0008	78.7	31
0.0007	-0.0023	-0.003	-0.0015	78.5	31
0.0015	-0.0038	-0.003	-0.0023	78.7	31
0.0015	-0.003	-0.0015	-0.0008	78.7	31
0.0015	-0.0023	0.0007	-0.0008	78.7	31
0.0015	-0.0023	0.0007	-0.0008	78.7	31
0.0015	-0.0015	-0.0008	-0.0015	78.7	31
-0.0008	-0.003	0	-0.0015	78.9	31
0	-0.0008	0.0007	0	78.5	31
-0.0015	-0.0008	-0.0008	0	78.8	31
-0.0023	-0.0008	-0.0008	0.0015	78.7	31
-0.003	0.0007	-0.0015	0.0007	78.7	31
-0.003	0.0007	-0.0015	0.0007	78.9	31
-0.0015	-0.0015	-0.0008	0.0007	78.7	31
-0.0015	-0.0008	-0.0008	-0.0008	78.8	31
-0.0015	-0.0008	0.0007	0.0007	78.9	31
0	-0.0015	0.0007	0.0007	78.6	31
-0.0008	-0.0015	0	0.0015	78.7	31
-0.0008	-0.0015	-0.0008	0.0007	78.7	31
0.0015	-0.0023	0.0007	-0.0008	78.6	31
0.0022	-0.0015	0.0007	0	78.8	31
0.0015	-0.0008	-0.0008	0	78.9	31
0.0015	0	0.0007	-0.0008	78.9	31
0.0007	-0.0008	0.0007	-0.0008	78.6	31
-0.0008	-0.0023	0.0015	-0.0008	78.8	31
0.0007	-0.0008	0.0022	-0.0015	78.5	31
0.0007	-0.0015	0.0015	-0.0015	78.7	31
0.0015	-0.003	0.0022	-0.0015	78.8	31
0.0015	-0.003	0.003	-0.0008	78.6	31
0.0007	-0.003	0.0022	-0.0015	78.8	31
-0.0008	-0.0023	0.0015	-0.0023	78.8	31
0	-0.0015	0.0015	0.0007	78.5	31
0	-0.0008	0.0022	0.0007	79	31
0.0007	-0.0008	0.0015	0.0015	78.6	31
0.0007	-0.0008	0.0007	0	78.8	31
-0.0015	-0.0015	-0.0008	-0.0023	78.7	31
-0.003	0.0015	0.0007	-0.0008	78.7	31
-0.0015	0.0007	0	-0.0015	78.7	31
-0.0015	0	-0.0023	-0.0008	78.6	31
-0.0015	0.0007	-0.0015	-0.0008	78.7	31
-0.0015	-0.0008	-0.0008	-0.0023	78.7	31
-0.0023	-0.0008	-0.0008	-0.0015	78.7	31
-0.0023	0.0007	0.0007	-0.0023	78.7	31
-0.003	0.0015	-0.0008	-0.0015	78.5	31
-0.003	0.0007	-0.0008	-0.0015	79	31
-0.0015	0.0007	-0.0015	-0.0015	78.6	31
-0.0015	-0.0008	-0.0015	-0.0015	78.6	31
-0.0015	-0.0008	-0.0015	-0.0023	78.7	31
-0.0008	-0.0008	-0.0015	-0.003	78.5	31
0.0007	-0.0023	-0.0008	-0.003	78.7	31
0	-0.0008	-0.0008	-0.0023	78.7	31
-0.0015	-0.0015	-0.0008	-0.003	78.7	31
0	-0.0023	-0.003	-0.0023	78.7	31
0.0007	-0.0015	-0.0023	-0.0008	78.7	31
0.0007	-0.0015	-0.0023	-0.0008	79	31
0.0007	-0.0008	0	0.0007	78.6	31
0	-0.0023	0.0007	0.0007	78.8	31
0.0007	-0.003	-0.0008	-0.0008	78.6	31
0.0007	-0.0015	0.0015	-0.0015	78.8	31
0	-0.0015	0.0015	-0.0015	79	31
0.0007	-0.0008	0.0015	0.0007	78.4	31
0.0015	-0.0015	0.0015	0.0007	78.9	31
0	0	0.0007	-0.0008	78.6	31
0.0015	0.0007	0.0007	0.0007	78.7	31
0.0007	0.0007	0.0007	0.0015	78.8	31
-0.0008	0.0007	-0.0008	-0.0008	78.7	31
-0.0015	-0.0008	-0.0008	-0.0008	78.6	31
-0.0023	-0.0015	0.0007	0	78.6	31
-0.0008	-0.0046	0.0007	-0.0008	78.6	31
-0.0008	-0.0038	-0.0008	-0.0008	78.7	31
0.0007	-0.0015	0.0007	-0.0015	78.4	31
0	-0.003	0.0007	-0.0015	78.8	31
-0.0008	-0.0015	0.0007	-0.0015	78.3	31
-0.0008	-0.0008	0.0007	-0.0023	78.7	31
-0.0015	-0.0015	0.0007	-0.0015	78.7	31
-0.0015	-0.0008	0.0007	-0.0008	78.5	31
-0.0023	-0.0008	0.0007	0	78.7	31
0	-0.0015	0.0007	-0.0008	78.7	31
0	-0.0023	0.0015	-0.0008	78.5	31
0	-0.0015	0.0007	0	78.7	31
0.0007	-0.0015	-0.0008	-0.0015	78.5	31
-0.0008	-0.0015	-0.0015	-0.0008	78.6	31
0.0007	-0.0008	-0.0015	-0.0008	78.7	31
0.0007	-0.0015	-0.0015	-0.0015	78.7	31
0.0007	-0.003	-0.003	-0.0023	78.7	31
0	-0.0023	-0.0015	-0.0015	78.7	31
-0.0008	-0.0015	-0.0015	-0.0023	78.8	31
0.0007	-0.0015	-0.0008	-0.0023	78.5	31
0.0007	-0.0008	-0.0008	-0.0015	78.7	31
-0.0015	-0.0008	-0.0008	-0.0008	78.7	31
0	-0.0023	0.0007	-0.0008	78.5	31
0.0015	-0.0008	0	-0.0008	78.8	31
0.0007	-0.0008	-0.0015	-0.0015	78.6	31
0	-0.003	-0.0015	-0.0015	78.8	31
0	-0.0008	-0.0023	0.0007	78.7	31
0.0007	-0.0015	-0.0008	0	78.6	31
-0.0008	-0.0023	-0.0008	-0.0008	78.8	31
-0.0015	-0.0008	-0.0023	-0.0015	78.7	31
-0.0008	-0.0008	-0.0015	-0.003	78.5	31
-0.0015	0	-0.0015	-0.003	78.7	31
-0.0015	-0.0008	-0.0015	-0.0038	78.7	31
-0.0008	-0.0015	-0.0008	-0.003	78.7	31
-0.0008	-0.0015	-0.0008	-0.0015	78.5	31
-0.0008	-0.0015	-0.0015	-0.0015	78.7	31
0	-0.0023	0	-0.0023	78.5	31
0.0007	-0.0023	-0.0008	-0.0038	78.7	31
0.0007	-0.0015	-0.0008	-0.0015	78.7	31
0.0007	-0.003	0.003	0	78.5	31
-0.0008	-0.003	0.0022	-0.0008	78.7	31
-0.0008	-0.003	0.0015	-0.0008	78.5	31
0.0015	-0.0015	0.0022	0.0007	78.7	31
0.003	-0.0008	0.0022	0.003	78.7	31
0.0007	0.0007	0.0022	0.003	78.4	31
0.0007	0.0007	0.0015	0.0015	78.6	31
0.0015	0.0007	0.003	0.0022	78.5	31
0.0015	0.0022	0.0015	0.003	78.7	31
0.0022	0	0.0007	0.0007	78.5	31
0.0015	-0.0015	-0.0008	-0.0008	78.7	31
0.0007	-0.0015	-0.0008	0.0007	78.5	31
0.0015	-0.0015	0.0015	0.0007	78.5	31
0.0015	-0.0038	-0.0015	0	78.7	31
0.0015	-0.0053	-0.0015	0	78.4	31
0.0015	-0.0053	0	-0.0015	78.7	31
0.0015	-0.0053	0	-0.0015	78.7	31
0.0007	-0.003	0.0007	0	78.5	31
-0.0008	-0.003	0.0007	-0.0023	78.9	31
-0.0015	-0.0015	0.0007	-0.0008	78.5	31
-0.003	0	0.0007	-0.0008	78.5	31
-0.0023	0	0.0007	-0.003	78.7	31
-0.0015	-0.0015	0.0007	-0.0023	78.5	31
-0.0038	-0.0015	0	-0.0023	78.5	31
-0.0008	-0.0015	-0.0008	-0.0023	78.6	31
0.0015	-0.0008	-0.0015	-0.0053	78.6	31
0.0007	-0.0015	-0.0008	-0.0068	78.5	31
0.0007	-0.0008	-0.0008	-0.0053	78.7	31
0.0007	-0.0008	-0.003	-0.006	78.7	31
0.0022	-0.0008	-0.003	-0.0046	78.4	31
0.003	-0.0008	-0.003	-0.0038	78.5	31
0.0037	-0.0015	-0.0008	-0.0015	78.7	31
0.003	0	-0.0015	-0.0008	78.4	31
-0.0015	-0.0008	-0.0008	0.0007	78.7	31
-0.0135	-0.0015	0.0015	0.0015	78.5	31
-0.021	-0.0008	0.0022	0.0037	78.4	31
-0.006	-0.003	0.0045	0.0052	78.6	31
0.003	-0.003	0.0045	0.0052	78.4	31
0.0007	0	0.0045	0.006	78.6	31
0.0045	0.0015	0.0045	0.0052	78.7	31
0.003	0.0007	0.003	0.0052	78.7	31
0.003	0	0.003	0.003	78.5	31
0.0022	-0.0008	0.0007	0.0007	78.7	31
0.003	0	-0.0015	0.0015	78.7	31
0.0045	-0.0008	-0.0015	-0.0008	78.3	31
0.0022	-0.0015	-0.0038	-0.0015	78.7	31
0.0007	-0.0023	-0.0053	-0.0015	78.5	31
-0.0015	-0.003	-0.0075	-0.003	78.7	31
-0.003	-0.003	-0.0083	-0.0015	78.7	31
-0.0046	-0.003	-0.006	-0.0015	78.4	31
-0.0053	-0.003	-0.0053	-0.0015	78.8	31
-0.0075	-0.0023	-0.0015	-0.0023	78.5	31
-0.0105	-0.0008	-0.0008	-0.003	78.6	31
-0.0091	0.0015	-0.0008	-0.0023	78.7	31
0.0045	0.0015	-0.0008	-0.0023	78.5	31
0.0225	0.0015	-0.003	-0.0023	78.5	31
0.0292	0.0022	-0.0053	-0.0015	78.6	31
0.0315	0	-0.0046	-0.0023	78.7	31
0.0307	-0.0015	-0.0053	-0.0023	78.6	31
0.0322	-0.0023	-0.0083	-0.0023	78.4	31
0.0405	-0.0038	-0.0053	-0.003	78.7	31
0.0547	-0.0038	-0.0008	-0.003	78.3	31
0.069	-0.0068	0.0052	-0.0015	78.6	31
0.0607	-0.0053	0.0105	-0.0008	78.6	31
0.0142	-0.003	0.0127	0.0015	78.3	31
-0.0668	0	0.0195	0.0022	78.5	31
-0.135	0.003	0.024	0.0015	78.5	31
-0.123	0	0.0217	0.0015	78.5	31
-0.0683	0.0015	0.0217	0.0015	78.9	31
-0.0293	0.0015	0.021	0.0015	78.4	31
-0.0173	-0.0008	0.018	-0.0008	78.7	31
-0.0128	-0.0015	0.012	-0.0008	78.6	31
-0.0091	-0.0008	0.003	0.0007	78.5	31
-0.0091	-0.0015	-0.0053	-0.0008	78.3	31
-0.0015	-0.003	-0.0165	-0.0015	78.5	31
-0.0023	-0.0015	-0.024	-0.003	78.7	31
-0.0008	-0.003	-0.0293	-0.0046	78.5	31
-0.003	-0.003	-0.0315	-0.003	78.6	31
-0.0046	-0.003	-0.027	-0.0038	78.7	31
-0.0015	-0.003	-0.015	-0.0023	78.5	31
-0.0015	-0.0015	-0.006	-0.0023	78.7	31
0.0015	-0.0015	0.0007	-0.0015	78.5	31
0.0037	-0.0008	0.006	0.0007	78.3	31
0.006	-0.0015	0.0045	0.0007	78.7	31
0.003	-0.0015	0.0022	0.0007	78.3	31
0.0045	-0.0015	0.0015	0.0015	78.7	31
0.0052	-0.0015	0.0015	0.0015	78.6	31
0.0052	-0.0008	0	0.0007	78.4	31
0.0067	0.0007	0.0007	0.0007	78.5	31
0.0052	0	0.0022	0	78.5	31
0.0052	-0.0015	0.0007	-0.0015	78.6	31
0.0082	-0.0008	0.003	-0.0015	78.3	31
0.0105	-0.003	0.003	-0.003	78.6	31
0.012	-0.0015	0.0015	-0.0023	78.8	31
0.0127	-0.0008	0.003	-0.0023	78.4	31
0.0105	-0.0015	0.0022	-0.0038	78.7	31
0.009	-0.0008	0.0037	-0.0015	78.5	31
0.0067	-0.0023	0.003	-0.003	78.6	31
0.0052	-0.0008	0.003	-0.003	78.7	31
0.0045	0	0.0045	-0.0015	78.5	31
0.003	-0.0008	0.0045	-0.0008	78.4	31
0.0022	-0.0008	0.0007	0.0007	78.7	31
0.0022	-0.0023	0.0007	0.0015	78.7	31
0.003	-0.0015	-0.0008	0.0007	78.5	31
0.0015	-0.0015	-0.0008	-0.0008	78.7	31
0.0007	-0.0015	0.0007	-0.0008	78.8	31
-0.0023	0.0015	-0.0008	-0.0008	78.6	31
-0.006	0.003	-0.0008	0.0007	78.7	31
-0.0083	0.0007	-0.0015	0	78.6	31
-0.0105	-0.0008	-0.0015	-0.003	78.4	31
-0.0083	0.0007	-0.0015	-0.003	78.6	31
-0.0083	0.0007	-0.0038	-0.0023	78.7	31
-0.0091	0.0015	-0.0046	-0.0015	78.3	31
0.003	0.0015	-0.0068	-0.0008	78.7	31
0.042	0.0022	-0.0075	-0.0023	78.5	31
0.069	0.0015	-0.0083	-0.0046	78.6	31
0.0675	-0.0008	-0.0068	-0.0046	78.5	31
0.0682	-0.0023	-0.0083	-0.0053	78.5	31
0.0675	-0.003	-0.0083	-0.0053	78.7	31
0.0727	-0.0046	-0.0083	-0.0068	78.5	31
0.0877	-0.0053	-0.0075	-0.0046	78.5	31
0.102	-0.003	-0.003	-0.0023	78.5	31
0.0885	-0.0023	0.0045	-0.0008	78.5	31
0.0037	-0.003	0.0127	-0.0008	78.7	31
-0.1381	-0.0023	0.018	0.0007	78.4	31
-0.2723	-0.003	0.0202	0.0007	78.9	31
-0.2475	-0.0023	0.0195	0.0015	78.6	31
-0.0938	-0.0008	0.0142	0.003	78.5	31
-0.0368	0.0007	0.0097	0.0037	78.8	31
-0.0308	0.003	0.0052	0.0045	78.3	31
-0.0135	0.003	0.0045	0.0052	78.7	31
-0.0195	0.0022	0.0022	0.0052	78.6	31
-0.0091	0.0045	0.0007	0.0015	78.5	31
-0.0068	0.0015	0.0007	-0.0008	78.6	31
-0.0038	0	-0.0023	0.0007	78.6	31
0.0015	0.0007	-0.003	-0.0008	78.6	31
0.0022	0.0015	-0.0046	0.0007	78.5	31
0.0052	0.0022	-0.0053	0	78.5	31
0.0052	0.0015	-0.0053	0.0007	78.6	31
0.0067	0.0007	-0.006	0.0022	78.3	31
0.0022	0	-0.0053	0.0015	78.7	31
0.0022	-0.003	-0.0046	-0.0008	78.5	31
0.0007	-0.003	-0.0046	-0.0015	78.5	31
-0.0008	-0.0023	-0.0053	0	78.6	31
0.0007	-0.003	-0.0053	-0.0008	78.3	31
0.0022	-0.0008	-0.0068	-0.0008	78.6	31
0.0067	-0.0008	-0.0075	-0.0015	78.6	31
0.0105	-0.0008	-0.0075	-0.003	78.3	31
0.0195	-0.0023	-0.0053	-0.003	78.9	31
0.024	-0.003	-0.003	-0.003	78.5	31
0.0262	-0.0008	-0.0015	-0.0015	78.6	31
0.0277	-0.0015	-0.0015	-0.003	78.5	31
0.0292	-0.0038	-0.0023	-0.0046	78.5	31
0.0307	-0.0046	0.0007	-0.0046	78.7	31
0.033	-0.003	0.003	-0.0023	78.4	31
0.0322	-0.0015	0.0052	-0.003	78.6	31
0.0232	-0.0046	0.0082	-0.003	78.5	31
0.0157	-0.0023	0.009	-0.0015	78.4	31
0.0045	-0.0015	0.0082	-0.0023	78.7	31
-0.0046	0	0.0067	-0.0023	78.3	31
-0.0008	0.0007	0.0045	-0.0023	78.6	31
0.003	-0.0008	0.0052	-0.0015	78.7	31
0.0022	0.0015	0.0045	0.0015	78.4	31
-0.003	0.0007	0.003	0.0015	78.6	31
-0.0046	0.0015	0.0022	0.0015	78.4	31
-0.0053	0.0015	0	0.0015	78.5	31
-0.0083	0.0022	-0.003	0.0007	78.7	31
-0.0068	0.0022	-0.0046	-0.0008	78.4	31
-0.0053	0.0015	-0.0046	-0.0015	78.5	31
-0.0046	0.0022	-0.0068	-0.0008	78.4	31
-0.003	0.0022	-0.0068	-0.0015	78.7	31
-0.003	0.0015	-0.0083	-0.0015	78.5	31
-0.003	0.0015	-0.0083	-0.0008	78.5	31
0	0.0015	-0.0046	-0.0023	78.7	31
0.003	-0.0008	-0.003	-0.0008	78.2	31
0.0045	0.0007	-0.0046	-0.0015	78.5	31
0.0015	0.0015	-0.006	0	78.6	31
0	0.0007	-0.0046	0	78.3	31
-0.003	0.0015	-0.0038	-0.003	78.7	31
0.0007	0.0007	-0.003	-0.0038	78.5	31
0.0127	0	0	-0.003	78.4	31
0.012	-0.0008	0.0015	-0.0015	78.4	31
-0.0023	0.0007	0.0022	-0.0023	78.3	31
-0.0195	0	0.0037	-0.0015	78.4	31
-0.0256	-0.0015	0.0045	-0.0008	78.2	31
-0.0091	-0.0015	0.003	0	78.7	31
0.0142	-0.0015	0.0037	0	78.4	31
0.0225	-0.0008	0.0045	-0.0015	78.3	31
0.009	0.0007	0.003	-0.0008	78.5	31
0.0097	-0.0008	0.0037	-0.0008	78.4	31
0.0075	0.0007	0.0045	-0.0008	78.4	31
-0.0218	0.0015	0.003	-0.0023	78.7	31
-0.0308	0.0022	0.0037	-0.0015	78.1	31
-0.0181	0.0015	0.0022	-0.0015	78.7	31
-0.0165	0.0007	0.0022	-0.0015	78.3	31
-0.0173	0.0015	0	-0.0015	78.3	31
-0.0165	0.0015	-0.003	-0.0023	78.6	31
-0.0181	0.0022	-0.0015	-0.0008	78.4	31
-0.0143	0.0015	-0.003	-0.0015	78.4	31
-0.0105	0.0015	-0.003	-0.0015	78.5	31
-0.0046	0.0022	-0.0015	0.0007	78.4	31
0.0015	0.003	-0.0015	0	78.4	31
0.0075	0.003	0	-0.0008	78.2	31
0.0142	-0.0008	0.0015	-0.0015	78.6	31
0.0157	-0.0015	0.0007	-0.0015	78.2	31
0.015	-0.0008	-0.0008	-0.0008	78.4	31
0.0157	-0.0015	0.0015	-0.0008	78.4	31
0.0157	-0.0008	0.0045	-0.0008	78.2	31
0.015	-0.0008	0.0045	-0.0008	78.5	31
0.0127	0.0007	0.0045	0.0015	78.1	31
0.0105	0.0007	0.0045	0.0015	78.3	31
0.0067	-0.0008	0.0037	0.0007	78.3	31
0.0037	0.0015	0.0015	0.0015	78.2	31
0.0007	0.0037	-0.0015	0.0007	78.4	31
-0.0008	0.0045	-0.003	0.0007	78.4	31
-0.0023	0.0052	-0.0015	0.0015	78.3	31
-0.0038	0.0045	-0.0023	-0.0008	78.2	31
-0.0038	0.0037	-0.0046	-0.0008	78.1	31
-0.0053	0.0045	-0.0046	0.0007	78.5	31
-0.0053	0.0015	-0.0046	0	78	31
-0.0083	0.0022	-0.0015	0	78.4	31
-0.0083	0.003	-0.0023	-0.0008	78.4	31
-0.0083	0.0015	-0.0023	-0.0008	78.1	31
-0.0091	0.0007	0.0007	0.0007	78.4	31
-0.0083	0.0007	0.0007	0.0015	78.2	31
-0.0083	0.0015	0.0007	0	78.1	31
-0.0068	-0.0008	-0.0023	0.0007	78.3	31
-0.0091	-0.0008	-0.0015	0	77.8	31
-0.0128	-0.0008	-0.0008	0.0007	78.2	31
-0.0128	-0.0015	-0.003	0	78.1	31
-0.0068	-0.0008	-0.003	-0.003	78.2	31
-0.0008	-0.0023	-0.0015	-0.0038	78.1	31
0.0045	-0.0023	0	-0.003	78.1	31
0.0075	-0.0015	0.0007	-0.003	78.3	31
0.0067	-0.0008	0.0007	-0.003	77.9	31
0.0082	-0.0015	0	-0.0038	78.1	31
0.0127	-0.003	0.0007	-0.006	78.3	31
0.0157	-0.0038	0.0015	-0.0053	77.8	31
0.015	-0.0046	-0.0008	-0.0038	78.3	31
0.012	-0.0053	-0.0008	-0.003	77.8	31
0.0097	-0.006	0	-0.0053	78	31
0.009	-0.006	0.0015	-0.0053	78.1	31
0.0105	-0.0068	0.003	-0.003	77.8	31
0.0105	-0.0068	0.0015	-0.0008	78.2	31
0.0105	-0.0075	0	-0.0008	77.9	31
0.0075	-0.0075	-0.0008	0.0007	77.7	31
0.0052	-0.0091	0.0007	0	77.9	31
-0.003	-0.0091	0.0007	-0.0008	77.8	31
-0.0105	-0.0068	0.0007	-0.0015	77.9	31
-0.0135	-0.0083	0.0007	-0.0015	77.7	31
-0.0135	-0.0068	-0.0015	-0.0015	77.9	31
-0.012	-0.0053	-0.0046	-0.003	77.8	31
-0.0098	-0.0068	-0.003	-0.0008	77.6	31
-0.0053	-0.0053	-0.0046	0	78	31
-0.0015	-0.0046	-0.0068	-0.0015	77.5	31
0.0022	-0.0046	-0.006	-0.0038	77.6	31
0.0052	-0.0046	-0.0098	-0.0068	77.8	31
0.0082	-0.006	-0.0083	-0.0053	77.6	31
0.009	-0.0083	-0.003	-0.0015	77.7	31
0.0097	-0.0068	0.0037	0	77.7	31
0.0082	-0.0053	0.0105	0.0015	77.6	31
0.0045	-0.0075	0.0165	0.003	77.6	31
0.0037	-0.0091	0.0195	0.0052	77.6	31
0.0015	-0.012	0.0135	0.0075	77.6	31
0.0007	-0.0105	0.0075	0.009	77.3	31
-0.0008	-0.0046	0.003	0.009	77.6	31
-0.003	0.0015	0.0007	0.0105	77.3	31
-0.003	0.0082	-0.0015	0.0082	77.3	31
-0.0046	0.0075	-0.003	0.003	77.4	31
-0.0053	0.0045	-0.0038	0.0007	77.3	31
-0.0068	0	-0.0053	-0.0008	77.3	31
-0.0083	-0.003	-0.0046	-0.0046	77.3	31
-0.0091	-0.0015	-0.0038	-0.0046	77.1	31
-0.0128	-0.0053	-0.0038	-0.0023	77.6	31
-0.0158	-0.0068	-0.0023	-0.003	77	31
-0.015	-0.0053	-0.0046	-0.0046	77.1	31
-0.0083	-0.0053	-0.0038	-0.003	77.3	31
-0.0015	-0.0046	-0.0046	-0.003	77.1	31
0.0045	-0.0053	-0.0053	-0.0023	77.1	31
0.0105	-0.0046	-0.0083	0.0007	77	31
0.0105	-0.006	-0.0083	0.0015	77.1	31
0.0105	-0.0068	-0.0046	0	77	31
0.012	-0.006	-0.0015	0.0007	76.8	31
0.012	-0.0068	0.0015	0.0007	77.2	31
0.0067	-0.0068	0.0037	-0.0015	76.9	31
-0.0068	-0.006	0.0037	-0.0023	77	31
-0.012	-0.006	0.0045	-0.0023	76.9	31
-0.0046	-0.006	0.0067	-0.003	76.7	31
-0.0128	-0.0068	0.0052	-0.0023	77	31
-0.0165	-0.0075	0.003	-0.003	76.5	31
-0.0046	-0.0068	0.0022	-0.0015	76.7	31
-0.0023	-0.006	0	-0.0015	76.8	31
-0.0046	-0.0015	-0.0008	-0.0015	76.6	31
-0.0113	-0.0008	-0.0023	-0.0008	76.5	31
-0.0038	-0.0015	0.0007	-0.0008	76.7	31
-0.0008	0.0007	0	0	76.5	31
-0.0046	-0.0008	-0.0008	-0.0008	76.6	31
-0.003	-0.0023	0.0007	-0.003	76.5	31
-0.0008	-0.0008	-0.0015	-0.003	76.6	31
0.0052	-0.0008	-0.0015	-0.003	76.2	31
0.0007	-0.0015	0	-0.003	76.5	31
-0.0023	-0.003	-0.0008	-0.003	76.4	31
-0.0046	-0.003	-0.0008	-0.0023	76.3	31
-0.0075	-0.0038	-0.0015	-0.003	76.5	31
0.003	-0.0053	-0.0023	-0.003	76.4	31
0.027	-0.0046	-0.0038	-0.0015	76.1	31
0.042	-0.0038	-0.003	-0.0023	76.7	31
0.0412	-0.003	-0.003	-0.003	76.1	31
0.0435	-0.0038	-0.003	-0.0023	76.1	31
0.0457	-0.0015	0	-0.0038	76.1	31
0.0435	-0.0023	-0.0008	-0.003	75.9	31
0.0277	-0.003	0.0022	-0.0015	76.1	31
-0.0023	-0.0008	0.0045	-0.003	75.9	31
-0.0015	-0.0008	0.0037	-0.0023	75.9	31
-0.0278	-0.003	0.009	-0.0008	76	31
-0.096	-0.003	0.009	0.0007	76	31
-0.1065	-0.0008	0.0075	0.0007	76.1	31
-0.0465	-0.0015	0.0082	0.0007	75.6	31
-0.0091	-0.0008	0.0052	0.0007	75.9	31
-0.0165	-0.0023	0.0045	0.0022	76	31
-0.006	-0.0046	0.003	0.003	75.6	31
-0.0098	-0.0023	0.0007	0.0015	75.7	31
-0.012	-0.003	-0.0015	0.0007	75.6	31
-0.012	-0.003	-0.006	0.0007	75.7	31
-0.0188	-0.0038	-0.0091	-0.0008	75.6	31
-0.0128	-0.0038	-0.0113	-0.003	75.6	31
-0.0083	-0.003	-0.012	-0.003	75.6	31
0.0007	-0.0038	-0.0091	-0.0015	75.4	31
0.003	-0.0023	-0.006	-0.0015	75.5	31
0.0105	-0.0008	-0.0038	-0.0015	75.5	31
0.0165	-0.0008	0	-0.003	75.1	31
0.0202	-0.0015	0	-0.0023	75.5	31
0.024	-0.0023	-0.0008	-0.0008	75.1	31
0.0217	-0.0008	-0.0008	0	75.3	31
0.021	-0.0015	-0.0008	0.0007	75.4	31
0.0165	-0.0023	-0.0008	-0.0008	75	31
0.012	-0.0008	0	0.0015	75.3	31
0.0082	-0.0015	0	0.003	75.2	31
0.0135	-0.0008	-0.0008	0.0022	74.7	31
0.0165	0.0007	-0.0015	0.0015	75.3	31
0.0135	0	-0.003	0.0007	75	31
0.0097	0.0007	-0.0023	0.0007	74.9	31
0.009	-0.0008	-0.0008	0	74.9	31
0.0075	-0.0015	0.0007	-0.0015	74.9	31
0.0052	-0.0038	-0.0008	-0.0008	75	31
0.006	-0.003	-0.0008	0	74.7	31
0.0007	-0.0015	0.0007	-0.0023	74.7	31
-0.021	-0.003	0.0015	-0.0023	74.7	31
-0.033	-0.0038	0.0022	-0.0015	74.4	31
-0.0098	-0.0046	0.0015	0	74.7	31
-0.003	-0.0046	0.0015	0.0007	74.3	31
-0.0053	-0.0046	0.0007	-0.0008	74.4	31
0.0045	-0.0023	0.0015	0.0007	74.4	31
0.0022	0.0007	0.0015	0.0022	74.2	31
0.0022	0.0007	0.003	0.003	74.4	31
-0.0046	0.0015	0.0015	0.0015	74.1	31
-0.0068	0.0015	0.0037	0.0015	74.2	31
-0.0068	0.003	0.0052	0.0007	74.3	31
-0.0105	0.0015	0.003	0.0007	74.2	31
-0.0053	0.0022	0.0007	0	74	31
-0.0046	0.003	0.0015	-0.0008	73.8	31
-0.0008	0.0007	0.0037	-0.003	74.1	31
0.0045	0	0.0037	-0.0046	73.8	31
0.0082	-0.003	0.0037	-0.0053	73.7	31
0.0075	-0.0038	0.0022	-0.0053	74	31
0.0082	-0.0053	0.0037	-0.0053	73.7	31
0.0105	-0.0053	0.0007	-0.0046	73.9	31
0.009	-0.003	0	-0.003	73.6	31
0.0105	-0.003	0	-0.0038	73.4	31
0.0105	-0.0023	-0.003	-0.003	73.8	31
0.0067	-0.0015	0.0015	-0.0015	73.3	31
0.0052	-0.0015	0.0007	-0.0008	73.3	31
0.003	-0.0015	-0.0015	0.0007	73.3	31
0	0	-0.0023	0	73.4	31
-0.0008	0.0015	-0.0038	-0.0015	73.2	31
-0.0008	0.0015	-0.0015	0	73	31
-0.003	0.0015	-0.0023	-0.0015	73.3	31
-0.003	0.0015	-0.003	-0.0015	72.9	31
-0.003	0.0015	-0.0015	0	72.9	31
-0.0038	0.0022	0.0007	-0.0015	73.1	31
-0.006	0.0022	0.0007	-0.0008	72.7	31
-0.0046	0.0045	-0.0008	-0.0008	72.8	31
-0.003	0.003	-0.0015	0.0007	72.9	31
-0.0015	-0.0008	-0.0008	0.0015	72.5	31
-0.0015	-0.0046	0.0007	-0.0008	72.8	31
-0.0046	-0.0068	0	-0.0008	72.5	31
-0.0038	-0.0053	-0.0008	-0.0046	72.6	31
-0.0053	-0.0053	-0.0008	-0.0098	72.6	31
-0.0105	-0.0046	-0.003	-0.015	72.5	31
-0.0158	-0.0046	-0.003	-0.0173	72.5	31
-0.0195	-0.0068	-0.0023	-0.0233	72.4	31
-0.0203	-0.0091	-0.0046	-0.0285	72.4	31
-0.0181	-0.0083	-0.0075	-0.0256	72.4	31
-0.0091	-0.0053	-0.0083	-0.0233	72.2	31
-0.0015	-0.003	-0.0098	-0.0143	72.4	31
0.003	-0.0015	-0.0083	-0.0008	71.8	31
0.0082	0	-0.0105	0.0165	72.2	31
0.0112	0.0007	-0.0113	0.0352	72	31
0.012	0.0045	-0.0046	0.0442	71.7	31
0.015	0.0052	0.0075	0.0352	72.1	31
0.015	0.0052	0.0187	0.0307	71.5	31
0.0105	0.0105	0.0232	0.033	71.8	31
0.0045	0.0097	0.024	0.027	71.6	31
0.0015	0.006	0.0232	0.021	71.7	31
0.0022	0.0067	0.0157	0.0127	71.5	31
0.003	0.0045	0.0105	0.0082	71.4	31
0.0097	0.0022	0.0045	0.003	71.4	31
0.0157	0.0015	0.0007	-0.0023	71.3	31
0.0127	-0.0038	-0.0023	-0.0046	71.2	31
0.0127	-0.0046	-0.0053	-0.0091	71.4	31
0.012	-0.0046	-0.0053	-0.0105	70.8	31
0.0105	-0.006	-0.0053	-0.0091	71.2	31
0.0105	-0.0053	-0.0053	-0.0068	71	31
0.009	-0.0075	-0.003	-0.0083	70.8	31
-0.006	-0.0068	-0.003	-0.0091	71.2	31
-0.0256	-0.0038	-0.0023	-0.0113	70.9	31
-0.0195	-0.0038	-0.0053	-0.0098	70.6	31
-0.0091	-0.0046	-0.0068	-0.0098	70.8	31
-0.0098	-0.003	-0.006	-0.0083	70.4	31
-0.0068	0	-0.0068	-0.003	70.5	31
-0.012	0.003	-0.0046	-0.0046	70.5	31
-0.0098	0.0052	-0.003	-0.0023	70.4	31
-0.0068	0.0037	-0.0046	-0.003	70.4	31
-0.0083	0.0022	-0.003	-0.003	70.2	31
-0.0053	0.0015	-0.0046	-0.0046	70.2	31
-0.0046	0	-0.0046	-0.006	70.1	31
0.0052	-0.003	-0.0015	-0.0053	70.1	31
0.0202	-0.003	0.0022	-0.0083	70.2	31
0.0315	-0.003	0.006	-0.0068	69.7	31
0.027	-0.0046	0.0052	-0.0053	70.1	31
0.0015	-0.003	0.006	-0.0053	69.6	31
-0.0353	-0.003	0.0082	-0.0068	69.8	31
-0.048	-0.003	0.0082	-0.006	69.7	31
-0.0135	-0.0008	0.0075	-0.0046	69.5	31
0.006	-0.0008	0.0052	-0.0015	69.7	31
0.0075	-0.0008	0.0045	0	69.7	31
0.012	0.0022	0.0045	0.003	69.3	31
0.0105	0.003	0.0007	0.0037	69.3	31
0.0127	0.0007	-0.0038	0.0015	69.4	31
0.0045	0.0022	-0.0105	0	69.5	31
-0.006	-0.0015	-0.0143	-0.0015	69.2	31
-0.012	-0.0053	-0.0158	-0.003	69.2	31
-0.0158	-0.0068	-0.0165	-0.0008	69.1	31
-0.0143	-0.0083	-0.0143	-0.0008	69	31
-0.0113	-0.003	-0.0105	-0.0015	69.4	31
-0.0053	-0.003	-0.0046	0.0007	68.9	31
-0.0015	-0.0008	-0.0023	0.0015	68.9	31
0.0007	0.0007	0	0.0022	68.9	31
0.0015	0.0007	0.0015	-0.0008	68.7	31
0.0045	0.0015	0.003	-0.0015	68.8	31
0.0075	0	0.0052	-0.0008	68.8	31
0.0045	-0.0008	0.0052	-0.0008	68.7	31
0.0022	-0.0023	0.003	0	68.7	31
0.0007	-0.003	0.003	-0.0015	68.6	31
-0.0008	-0.0015	0.0007	-0.003	68.6	31
-0.0038	-0.0015	0.0015	-0.0015	68.3	31
-0.0105	-0.0008	-0.0008	-0.0008	68.5	31
-0.0278	0.003	-0.0008	0.0007	68.5	31
-0.0473	0.0067	-0.003	0.0037	68.2	31
-0.0361	0.0082	-0.0068	0.006	68.4	31
0.0195	0.0082	-0.0091	0.0052	68.2	31
0.0645	0.0037	-0.0128	0.003	68	31
0.081	0.0015	-0.0188	-0.003	68.4	31
0.0952	-0.0008	-0.0218	-0.0083	67.9	31
0.1042	-0.0046	-0.0195	-0.0105	68.1	31
0.144	-0.0083	-0.0158	-0.0105	68.1	31
0.1935	-0.0128	-0.0075	-0.0091	67.9	31
0.1972	-0.015	0.006	-0.0046	67.9	31
0.1102	-0.0165	0.0195	-0.0015	67.8	31
-0.0818	-0.0143	0.0292	-0.0015	67.9	31
-0.2663	-0.0105	0.036	-0.0015	67.9	31
-0.2933	-0.0068	0.039	0	67.6	31
-0.1995	-0.0015	0.0345	0.0007	68	31
-0.12	0.0007	0.027	0.003	67.5	31
-0.0563	0.0045	0.0202	0.0067	67.7	31
-0.0203	0.0082	0.018	0.0082	67.7	31
-0.0225	0.0097	0.0127	0.006	67.4	31
-0.0195	0.0067	0.0075	0.0015	67.6	31
-0.0233	0.0045	0.0045	-0.0008	67.2	31
-0.0181	0.0015	-0.0008	-0.0008	67.4	31
-0.012	-0.0008	-0.006	-0.0015	67.2	31
-0.0083	-0.003	-0.0083	-0.0023	67.1	31
-0.0008	-0.0015	-0.0083	-0.0023	67.2	31
0.0015	-0.0008	-0.0053	-0.0008	67.1	31
0.0082	-0.0008	-0.0068	-0.0008	67.3	31
0.0082	-0.0015	-0.0083	0	66.9	31
0.009	0.0007	-0.0083	0.0007	66.9	31
0.0105	-0.0008	-0.006	0.0015	67	31
0.0105	0	-0.006	0	66.6	31
0.0105	0.0007	-0.0068	-0.0008	66.9	31
0.009	0.0007	-0.0068	0	66.7	31
0.0127	0.0007	-0.0083	0.0007	66.6	31
0.0142	-0.0015	-0.0083	-0.0015	66.7	31
0.018	0.0007	-0.0068	-0.0015	66.4	31
0.021	0	-0.0075	-0.0015	66.6	31
0.0202	-0.0015	-0.0068	-0.0015	66.6	31
0.0202	-0.0008	-0.0046	-0.0008	66.2	31
0.0187	-0.0015	-0.0023	-0.0008	66.6	31
0.0157	0	-0.0015	-0.0015	66.1	31
0.0142	-0.0008	-0.0008	-0.0023	66.1	31
0.0142	-0.0023	-0.0008	-0.003	66	31
0.0127	0	-0.0008	-0.0023	66	31
0.0105	0.0007	0.0007	-0.003	65.8	31
0.0082	0	-0.0008	-0.003	65.7	31
0.0075	0.0007	0.0007	-0.003	65.9	31
0.0045	0.0022	-0.0015	-0.0015	65.8	31
-0.0008	0.003	-0.0023	0.0007	65.7	31
-0.0023	0.0015	-0.0023	0.0022	65.9	31
-0.0015	-0.003	-0.0015	0.0045	65.5	31
-0.0053	-0.0053	-0.003	0.0067	65.5	31
-0.0053	-0.0046	-0.0046	0.0052	65.5	31
-0.003	0	-0.0008	0.003	65.2	31
0.0007	0.0007	0.0015	0	65.4	31
0.0045	-0.0008	0.003	-0.0023	65.2	31
0.0052	-0.0015	0.003	-0.0015	65.2	31
0.006	-0.003	0.003	-0.0008	65.2	31
0.0015	-0.003	0.003	-0.0008	65	31
0.0007	-0.003	0.0015	-0.0008	65	31
-0.0008	-0.0015	0.0015	-0.0008	64.8	31
-0.006	-0.0008	-0.0008	-0.0015	65.1	31
-0.0091	-0.0008	-0.0008	0	64.6	31
-0.0091	0	-0.003	0.0007	64.6	31
-0.0053	0.0007	-0.003	-0.0008	64.8	31
-0.0008	0	-0.003	-0.0015	64.3	31
0.0052	0	-0.0046	-0.003	64.6	31
0.0112	-0.0008	-0.0023	-0.0046	64.1	31
0.0127	-0.003	-0.0015	-0.003	64.2	31
0.0015	-0.0038	-0.0008	-0.0023	64.3	31
0.0007	-0.0046	-0.0015	-0.0023	64	31
0.018	-0.0046	-0.0023	-0.003	64	31
0.015	-0.003	-0.0015	-0.0038	64	31
0.0112	0	-0.0015	-0.003	63.8	31
0.0142	0.003	0.0015	0	63.6	31
0.009	0.003	0.0045	0.0022	63.5	31
0.0142	0.0007	0.0082	0.003	63.7	31
0.0157	-0.0015	0.0112	0.003	63.3	31
0.012	-0.0015	0.0105	0.0015	63.4	31
-0.0008	-0.0015	0.009	-0.0008	63.4	31
-0.0091	-0.0015	0.0052	-0.003	63	31
-0.012	-0.0046	0.0045	-0.003	63.1	31
-0.015	-0.0046	0.0015	-0.0023	63	31
-0.0143	-0.003	0.0015	-0.0015	62.8	31
-0.0158	-0.0015	0.0007	-0.0008	63	31
-0.0181	-0.0023	-0.0015	-0.0008	62.4	31
-0.0188	-0.0008	-0.003	0.0007	62.6	31
-0.0188	-0.0008	-0.0046	0.0015	62.5	31
-0.0203	0	-0.0053	0.0007	62.2	31
-0.0218	0.0022	-0.006	0.0007	62.2	31
-0.0293	0.0015	-0.0068	-0.0015	62.3	31
-0.0368	0.0022	-0.0083	-0.0023	62.2	31
-0.0158	0.0022	-0.0083	0.0007	61.9	31
0.0157	0.003	-0.0113	0.0015	61.8	31
0.0232	0.0082	-0.0128	-0.0008	62	31
0.0322	0.0105	-0.0068	-0.0015	61.5	31
0.0517	0.009	0.0037	-0.0015	61.8	31
0.0787	0.0045	0.0112	0	61.5	31
0.1065	0	0.0127	-0.0008	61.3	31
0.0907	-0.0015	0.0172	-0.0015	61.5	31
0.0225	-0.0023	0.0202	0	61	31
-0.099	-0.0023	0.0165	0	61.4	31
-0.1613	-0.0008	0.0142	-0.0008	61.1	31
-0.066	0.003	0.012	0.0007	60.9	31
0.0315	0.0052	0.009	0.003	60.9	31
0.0502	0.0052	0.0067	0.0082	60.8	31
0.0555	-0.0015	-0.0023	0.0067	60.7	31
0.0217	-0.0135	-0.0165	-0.0015	60.6	31
-0.0143	-0.0225	-0.0346	-0.0105	60.7	31
-0.0308	-0.0263	-0.048	-0.0181	60.5	31
-0.0413	-0.0285	-0.0488	-0.0195	60.2	31
-0.0346	-0.0278	-0.033	-0.0165	60.5	31
-0.0315	-0.0203	-0.0158	-0.0083	59.9	31
-0.0203	-0.0105	0	-0.0038	60.3	31
-0.012	-0.003	0.0127	-0.003	60	31
-0.0091	0.0007	0.0142	-0.0023	59.8	31
-0.0053	0.0015	0.0157	-0.0008	59.9	31
-0.0068	0.0037	0.0135	0.0007	59.8	31
-0.0046	0.0045	0.0112	0.0007	59.6	31
-0.0023	0.0052	0.009	0.0015	59.8	31
-0.0015	0.0067	0.0067	0.0007	59.4	31
-0.003	0.0082	0.0067	0.003	59.3	31
-0.0038	0.0082	0.0052	0.003	59.3	31
-0.0046	0.0075	0.0045	0.0015	59.1	31
-0.0053	0.0075	0.0045	0	59.1	31
-0.0046	0.006	0.0045	0.0007	59.1	31
-0.003	0.0052	0.0045	0.0022	59.1	31
0.0007	0.0045	0.0037	0.0022	58.8	31
0.003	0.0045	0.003	0.0015	58.8	31
0.0082	0.0045	0.0022	0	58.9	31
0.012	0.0022	0.003	0.0007	58.4	31
0.0127	0.0015	0.0015	0.0007	58.8	31
0.0157	0.0022	-0.0008	0	58.3	31
0.0172	0.0007	-0.0015	-0.0008	58.2	31
0.0157	-0.0015	-0.0023	-0.0023	58.4	31
0.0165	-0.003	-0.0038	-0.0015	58.1	31
0.0142	-0.0038	-0.0038	0.0007	58.2	31
0.0105	-0.0023	-0.0008	0.0015	58.1	31
0.0082	-0.0015	0	0.0007	57.9	31
0.0045	-0.0008	-0.0008	-0.0008	57.9	31
0	-0.0015	0.0015	-0.0008	57.6	31
-0.003	-0.003	0.0022	-0.0008	58	31
-0.0038	-0.003	0.0007	-0.0008	57.4	31
-0.0038	-0.0008	-0.0008	0	57.9	31
-0.003	0.0015	-0.0008	-0.0015	57.6	31
-0.0015	0.0015	0.0075	-0.0008	57.4	31
0.0045	0.003	0.0082	-0.0008	57.6	31
0.0097	0.0045	0.0067	-0.0015	57.1	31
0.0052	0.0052	0.0075	0	57.1	31
0.0015	0.0052	0.0082	0.0007	57.2	31
0	0.0052	0.0142	0.0007	56.8	31
0.0007	0.003	0.0195	0.0015	57	31
0.0045	0.0022	0.0232	0.0015	56.9	31
0.0007	-0.0008	0.024	0.003	56.8	31
-0.0143	-0.0053	0.0255	0.003	56.7	31
-0.0091	-0.0083	0.0202	0.0022	56.5	31
0.0082	-0.0083	0.009	0.003	56.6	31
0.0022	-0.0128	-0.0008	0	56.1	31
-0.0053	-0.0181	-0.0128	-0.0083	56.4	31
-0.0203	-0.0181	-0.0263	-0.012	56.1	31
-0.024	-0.0128	-0.0428	-0.0128	56	31
-0.0091	-0.0128	-0.0563	-0.0105	56.1	31
-0.0015	-0.0113	-0.0608	-0.0083	55.8	31
0.009	-0.0053	-0.0578	-0.006	55.8	31
0.0127	-0.0015	-0.0465	-0.0015	55.8	31
0.0082	-0.0008	-0.0323	-0.0015	55.3	31
0.003	-0.0008	-0.0135	-0.0015	55.6	31
-0.0015	0.0007	0.0045	-0.0008	55.3	31
-0.006	0.0015	0.0082	0.0007	55.5	31
-0.0113	0.0037	0.0067	0.003	55.3	31
-0.0083	0.0067	0.0052	0.003	55.1	31
0.0157	0.0082	0.003	0.003	55.1	31
0.0345	0.0075	0.006	0.0015	54.9	31
0.039	0.0052	0.0097	0.0007	54.8	31
0.0525	0.0052	0.012	0.0007	54.7	31
0.063	0.0022	0.0157	0	54.4	31
0.057	0.0037	0.0127	0.0007	54.7	31
0.0487	0.0052	0.0142	0	54.2	31
0.0435	-0.0008	0.0202	0.0007	54.3	31
-0.054	-0.0038	0.0202	0.0007	54.2	31
-0.1838	-0.0046	0.018	0.0015	53.9	31
-0.156	0.0015	0.0127	0.003	54.1	31
-0.0135	0.012	0.0082	0.0052	53.6	31
0.0487	0.0142	0.0052	0.0067	53.5	31
0.0435	0.0097	-0.0008	0.003	53.6	31
0.054	-0.003	-0.0053	-0.0023	53.4	31
0.039	-0.015	-0.0075	-0.006	53.2	31
0.0315	-0.0233	-0.0091	-0.0105	53.1	31
0.0202	-0.0218	-0.0046	-0.0105	53.1	31
-0.024	-0.0165	0.0037	-0.0075	52.9	31
-0.06	-0.012	0.0097	-0.0053	52.6	31
-0.0825	-0.0068	0.0112	-0.003	52.7	31
-0.1058	-0.003	0.0097	-0.0008	52.4	31
-0.0735	0	0.009	0.0007	52.6	31
-0.0165	0.0007	0.0067	-0.0008	52.4	31
-0.0091	0.0015	0.0045	0	52	31
-0.0015	0.003	0.0007	0.0007	52.1	31
0.0007	0.0045	0.0007	0.0015	51.9	31
0.0045	0.0052	0.003	0.0007	51.7	31
0.0082	0.003	0.0007	0	51.8	31
0.0082	0.0045	-0.0008	0	51.4	31
0.012	0.0037	-0.0015	-0.0008	51.3	31
0.0105	0.0022	-0.0015	0	51.1	31
0.012	0.003	-0.003	-0.0015	51.3	31
0.0105	0.0007	-0.0038	-0.0015	50.9	31
0.0127	-0.0015	-0.003	0.0007	50.6	31
0.0127	0	-0.0038	0.0015	50.8	31
0.0127	0	-0.003	0.0007	50.3	31
0.012	-0.0023	-0.0038	0.0007	50.4	31
0.0097	-0.003	-0.0046	0.0015	50.4	31
0.009	-0.0015	-0.003	0.0007	49.9	31
0.006	-0.0008	-0.0053	0.0022	50.2	31
0.0037	-0.0015	-0.0046	0.0007	49.8	31
0.0022	-0.0008	-0.003	-0.0008	49.6	31
0.0015	0	-0.003	-0.0008	49.7	31
0.0007	0.0015	-0.0015	-0.0008	49.2	31
0.0007	0.003	-0.003	0.0007	49.2	31
0.003	0.0007	-0.0046	-0.0008	49.1	31
0.0045	0	-0.0046	-0.0008	49	31
0.0022	-0.003	-0.0023	-0.0015	48.7	31
-0.0068	-0.0023	-0.003	-0.0015	48.8	31
-0.012	-0.0015	-0.003	-0.0008	48.6	31
-0.0158	-0.003	-0.006	-0.0015	48.1	31
-0.0068	-0.0023	-0.0083	0	48.3	31
0.0195	-0.0008	-0.0105	0	48.2	31
0.0262	0.0007	-0.0135	-0.0023	47.7	31
0.0637	0.003	-0.0143	0.0007	47.9	31
0.1425	0.0037	-0.0098	0.0007	47.6	31
0.171	0.003	-0.003	0	47.5	31
0.1777	0.003	-0.003	0.0007	47.5	31
0.1702	0.0007	0.0045	-0.0008	47.1	31
0.1057	-0.0015	0.009	-0.0008	47	31
0.003	0	0.0105	-0.0015	46.9	31
-0.0743	0.003	0.0157	-0.0023	46.8	31
-0.099	0.0052	0.0217	-0.003	46.7	31
-0.1523	0.003	0.03	-0.0023	46.3	31
-0.24	0.0015	0.0307	-0.003	46.6	31
-0.2385	-0.0046	0.0292	-0.0068	46	31
-0.1185	-0.0068	0.0262	-0.0083	46.1	31
-0.0405	-0.0105	0.0157	-0.0098	46	31
-0.0368	-0.0218	0.003	-0.0083	45.6	31
-0.021	-0.027	-0.012	-0.0068	45.9	31
-0.0256	-0.0256	-0.0233	-0.0075	45.6	31
-0.0256	-0.0181	-0.0308	-0.0075	45.3	31
-0.0195	-0.0135	-0.033	-0.006	45.7	31
-0.0135	-0.0113	-0.0278	-0.0008	45.1	31
-0.0008	-0.0046	-0.0188	0.0015	45.3	31
0.0045	-0.0015	-0.0053	0.0022	45.1	31
0.0105	0.0007	0.0015	0.0045	45.1	31
0.009	0.0015	0.0037	0.003	44.9	31
0.0142	0.0045	0.0052	0.0037	44.9	31
0.0142	0.0037	0.0045	0.003	45	31
0.0165	0.0022	0.003	0.003	44.6	31
0.018	0.0067	0.0015	0.003	44.5	31
0.015	0.0067	0.003	0.0022	44.7	31
0.015	0.0082	0.0015	0.0022	44.2	31
0.0105	0.0067	0.0015	0.003	44.4	31
0.0097	0.0067	0.0007	0.003	44	31
0.006	0.0067	-0.0008	0.0022	43.8	31
0.0045	0.0045	-0.0015	-0.0008	44.1	31
0.003	0.0045	-0.0008	-0.0008	43.5	31
-0.0008	0.0045	0.0007	0.0015	43.7	31
-0.0008	0.0045	0.0015	0.0015	43.5	31
0.003	0.0075	0.0007	0.0007	43.4	31
0.0067	0.009	0	0.0007	43.2	31
0.0112	0.009	0.003	-0.0023	43.2	31
0.0187	0.0052	0.0052	-0.003	43.1	31
0.0225	0.0015	0.0067	-0.0015	42.7	31
0.0307	0.0022	0.0052	0.0007	42.7	31
0.0405	0.0015	0.0037	0.0007	42.9	31
0.048	-0.0015	0.0067	0.0015	42.3	31
0.0442	-0.0068	0.0075	0.0007	42.4	31
0.036	-0.0143	0.003	-0.003	42.2	31
0.0345	-0.0181	-0.003	-0.003	42.2	31
0.027	-0.0143	-0.003	-0.0015	42.1	31
0.0112	-0.0113	-0.0008	-0.0015	41.8	31
-0.0083	-0.0143	0.0007	-0.003	41.8	31
-0.0173	-0.0128	-0.0038	-0.0046	41.8	31
-0.0173	-0.0083	-0.0068	-0.0046	41.3	31
-0.0218	-0.003	-0.0038	-0.0015	41.4	31
-0.0203	0.0045	0.0015	0	41.4	31
-0.0181	0.0082	0.0015	0.0007	41.2	31
-0.0135	0.0127	0.0015	0.0022	41.2	31
-0.0135	0.0157	0.0067	0.0015	41.2	31
-0.0128	0.0142	0.0105	-0.0008	41	31
-0.0068	0.012	0.0097	-0.0023	40.6	31
-0.0038	0.0082	0.0045	-0.0015	40.9	31
-0.0015	0.0045	-0.003	-0.0008	40.6	31
0.0067	0.0007	-0.0075	0.0015	40.4	31
0.0165	-0.0083	-0.0091	0.0022	40.6	31
0.0142	-0.027	-0.0083	0	40	31
0.0082	-0.0346	-0.0083	-0.003	40.2	31
0.0037	-0.0218	-0.0128	-0.0053	40	31
0.0007	-0.0158	-0.0233	-0.0068	39.8	31
-0.0046	-0.015	-0.0248	-0.0083	40	31
-0.0053	-0.012	-0.0188	-0.0068	39.6	31
-0.0053	-0.0068	-0.0113	-0.006	39.5	31
-0.0068	-0.003	-0.0038	-0.0038	39.3	31
-0.0053	-0.0008	-0.0008	-0.003	39.2	31
-0.006	0.0007	0.0052	-0.003	39.4	31
-0.0068	0.0022	0.0075	0.0007	38.8	31
-0.0091	0.0045	0.0067	0.0015	39.2	31
-0.0143	0.0052	0.006	0.0015	38.7	31
-0.0195	0.0052	0.003	0.0022	38.6	31
-0.0278	0.0067	0.003	0.003	38.8	31
-0.0338	0.006	0.0007	0.003	38.3	31
-0.0293	0.0052	0.003	0.003	38.5	31
-0.021	0.0045	0.0052	0.0045	38.4	31
-0.012	0.0052	0.0045	0.0022	38.1	31
0.003	0.0045	0.0067	0.003	38.1	31
0.0255	0.003	0.0052	0.0015	38	31
0.0405	0.003	0.0052	0.0015	37.7	31
0.039	0.0037	0.0037	0.0015	37.7	31
0.0292	0.0045	0	0.0015	37.6	31
0.018	0.0052	-0.003	0.0007	37.5	31
0.0217	0.0067	-0.0053	0	37.2	31
0.03	0.0075	-0.0046	-0.0008	37.6	31
0.0225	0.0045	-0.0015	-0.0015	37.1	31
0.0052	-0.0008	0.0007	-0.0038	37.2	31
-0.0173	-0.0091	0.0045	-0.0068	37.1	31
-0.0383	-0.0135	0.006	-0.0091	36.7	31
-0.0443	-0.0135	0.0082	-0.0091	36.9	31
-0.0383	-0.012	0.018	-0.0068	36.9	31
-0.0256	-0.0068	0.0307	-0.0015	36.5	31
-0.0091	0.0007	0.0292	-0.0008	36.8	31
0.009	0.0037	0.0232	0.0007	36.3	31
0.024	0.0067	0.0195	0.003	36.5	31
0.0285	0.012	0.0127	0.0015	36.4	31
0.033	0.015	0.012	0.0052	36.2	31
0.0345	0.0142	0.009	0.0037	36	31
0.0322	0.0037	0.003	0	36	31
0.033	-0.0098	-0.0083	-0.0008	36.2	31
0.027	-0.0188	-0.024	-0.0046	35.8	31
0.006	-0.021	-0.0353	-0.0083	35.7	31
-0.0143	-0.0195	-0.0443	-0.0113	35.8	31
-0.024	-0.021	-0.0503	-0.0128	35.3	31
-0.0293	-0.0203	-0.0458	-0.0068	35.7	31
-0.0323	-0.0143	-0.0346	-0.0038	35.4	31
-0.027	-0.0091	-0.012	-0.0008	35.3	31
-0.0203	-0.003	0.0015	0.0007	35.4	31
-0.0135	0.0015	0.003	0.0022	35.1	31
-0.0113	0.0037	0.0075	0.0022	35.4	31
-0.0083	0.0045	0.0052	0.0015	35.1	31
-0.0046	0.006	0.006	0.0007	35.1	31
-0.003	0.0052	0.006	0	35	31
-0.0046	0.0052	0.0067	0.0022	34.9	31
-0.0015	0.0045	0.006	0.0015	34.7	31
0.0007	0.0045	0.003	0.0015	34.5	31
-0.0008	0.0045	0.003	0.0022	34.7	31
0.0052	0.0105	0.0015	0.003	34.6	31
0.0022	0.0142	0.0045	0.0015	34.4	31
0.0015	0.012	0.0045	0.0007	34.6	31
