File Name: marcha.log
Channel 4: 'Recto Femoral', 12973 values, engineering units: mV, no filters.
Channel 5: 'Biceps Femoral', 12973 values, engineering units: mV, no filters.
Channel 6: 'Vasto Medial', 12973 values, engineering units: mV, no filters.
Channel 7: 'EMG Semitendinoso', 12973 values, engineering units: mV, no filters.
Channel 8: 'Flexo-Extension', 12973 values, engineering units: deg, no filters.

-0.0548	-0.0015	0.042	0.0285	-9
0.0795	-0.0256	0.078	0.0397	-9
0.084	-0.0293	0.069	0.0345	-9
0.0802	-0.0203	0.0525	0.0345	-9
0.0847	-0.0008	0.0412	0.0337	-9
0.0937	0.009	0.0382	0.0082	-9
0.0892	0.006	0.0315	-0.0315	-8.9
0.0877	0.0105	0.0165	-0.042	-8.8
0.093	0.018	-0.0091	-0.0263	-8.7
0.0937	0.0277	-0.0285	-0.0181	-8.7
0.0945	0.0292	-0.0375	-0.0083	-8.5
0.0952	0.036	-0.0375	0.0082	-8.4
0.09	0.0532	-0.024	0.0285	-8.2
0.081	0.0667	0.0015	0.0375	-8.3
0.066	0.069	0.036	0.0322	-7.9
0.0442	0.06	0.0712	0.0292	-7.9
0.0232	0.0382	0.1027	0.0127	-7.8
0.0052	0.0127	0.1155	-0.0053	-7.7
-0.0113	0.0067	0.1215	-0.0181	-7.4
-0.03	-0.0128	0.1207	-0.0308	-7.4
-0.0405	-0.0503	0.1185	-0.0383	-7.2
-0.0473	-0.0608	0.117	-0.0428	-7.2
-0.0533	-0.0593	0.1132	-0.0278	-6.9
-0.063	-0.0608	0.1072	-0.003	-6.9
-0.1013	-0.0608	0.0817	0.0052	-6.8
-0.1433	-0.0458	0.051	0.0037	-6.6
-0.147	-0.0233	0.0502	0.0105	-6.8
-0.1043	-0.0091	0.0727	0.027	-6.5
-0.0465	0.0157	0.108	0.048	-6.4
-0.0278	0.051	0.1462	0.0585	-6.3
-0.039	0.0765	0.1305	0.0472	-6.4
-0.0518	0.0727	0.0877	0.0345	-6.3
-0.057	0.057	0.0457	0.024	-6.2
-0.048	0.0442	-0.0091	0.024	-6.2
-0.0278	0.03	-0.0503	0.0165	-6.2
-0.0158	0.0247	-0.0818	-0.0015	-6
-0.042	0.0165	-0.0915	-0.0113	-5.9
-0.0623	0.0157	-0.0945	-0.0143	-6
-0.0323	0.0157	-0.0945	-0.0023	-5.9
-0.0233	-0.0233	-0.093	0.003	-6.1
-0.0368	-0.0128	-0.0893	0.0127	-6.1
-0.0405	0.042	-0.0765	0.0142	-6.2
-0.075	0.0112	-0.078	0.0135	-6.3
-0.096	-0.0143	-0.0825	0.0232	-6.1
-0.0706	-0.0511	-0.0878	0.021	-6.5
-0.0443	-0.0885	-0.0908	0.0322	-6.4
-0.0181	-0.042	-0.0871	0.039	-6.5
0.0052	-0.0668	-0.0825	0.0052	-6.7
0.0195	-0.0871	-0.0765	-0.0263	-6.8
0.0442	-0.0638	-0.075	-0.0315	-6.8
0.0622	-0.093	-0.0743	-0.0653	-7
0.075	-0.0773	-0.0728	-0.0983	-7
0.0885	-0.024	-0.066	-0.0323	-7.4
0.0952	0.0277	-0.0525	0.033	-7.3
0.099	0.0525	-0.042	0.0187	-7.9
0.0975	0.048	-0.0383	-0.0233	-8
0.1012	0.0352	-0.039	-0.0675	-8.2
0.0975	-0.0068	-0.0443	-0.0706	-8.6
0.0937	-0.042	-0.0495	-0.042	-8.8
0.0847	-0.0338	-0.0511	-0.024	-9.1
0.072	0.0045	-0.0518	-0.0218	-9.6
0.0637	0.021	-0.0585	-0.0443	-9.8
0.048	0.0217	-0.06	-0.0503	-10.1
0.0307	0.0052	-0.057	-0.0578	-10.7
0.018	-0.0008	-0.0503	-0.0668	-10.8
0.0127	0.039	-0.0443	-0.0443	-11.5
0.0052	0.0787	-0.0383	-0.0038	-11.8
-0.0105	0.0937	-0.0263	0.0225	-12.2
-0.0285	0.0315	-0.0113	0.0285	-12.6
-0.0315	-0.057	0.0067	0.0337	-12.8
-0.0361	-0.0473	0.0165	0.027	-13.4
-0.042	-0.0023	0.012	0.027	-13.6
-0.0346	-0.0203	0.0067	0.0285	-14
-0.0278	-0.042	-0.0008	0.0247	-14.3
0.0007	-0.0511	0.0007	0.036	-14.5
0.0277	-0.0218	0.0082	0.0495	-14.9
0.033	0.0315	0.0247	0.0577	-15.1
0.0645	0.0397	0.0532	0.0495	-15.2
0.0952	0.0525	0.0787	0.0382	-15.5
0.0675	0.054	0.1155	0.03	-15.7
0.0435	0.0525	0.159	0.0232	-16
0.0495	0.0652	0.1687	0.0405	-16.2
0.0435	0.063	0.1507	0.0472	-16.1
0.036	0.0532	0.1387	0.0307	-16.2
0.012	0.027	0.1207	0.0187	-16.3
-0.0158	-0.0135	0.0892	0.0045	-16.6
-0.027	-0.0743	0.06	-0.0053	-16.7
-0.0008	-0.0893	0.042	-0.0046	-16.6
0.0427	-0.0338	0.0397	0.0022	-16.7
0.0615	-0.021	0.0532	0	-16.7
0.0592	-0.039	0.0622	-0.0173	-16.3
0.0405	-0.0218	0.0555	-0.0308	-16.5
0.024	0.0247	0.0442	-0.0315	-16.4
0.0067	0.036	0.0255	-0.0143	-16.2
-0.0046	0.0165	0.0082	-0.0015	-16
-0.0143	0.0255	-0.0053	0.024	-15.8
-0.0225	0.0457	-0.0195	0.0502	-15.7
-0.0308	0.072	-0.021	0.0465	-15.5
-0.048	0.099	-0.024	0.0427	-15.3
-0.0533	0.099	-0.0285	0.0352	-15.3
-0.048	0.0802	-0.0218	0.0352	-14.9
-0.0428	0.0427	-0.0173	0.0345	-14.8
-0.039	0.0007	-0.0218	0.0105	-14.8
-0.0443	0.0045	-0.0368	-0.0173	-14.4
-0.057	0.015	-0.0511	-0.057	-14.6
-0.06	-0.042	-0.0638	-0.0953	-14.3
-0.0675	-0.1763	-0.0645	-0.1133	-14.2
-0.0743	-0.273	-0.0653	-0.1043	-14.3
-0.0706	-0.2175	-0.0803	-0.0698	-13.9
-0.0638	-0.186	-0.0825	-0.0615	-14.1
-0.0578	-0.1335	-0.0691	-0.0668	-13.6
-0.0548	-0.0495	-0.0675	-0.057	-13.9
-0.0473	-0.0608	-0.084	-0.0308	-13.9
-0.0398	0.0007	-0.093	-0.0053	-13.8
-0.0368	0.027	-0.09	-0.0008	-13.5
-0.0346	0.03	-0.0878	0.0292	-13.8
-0.0338	0.0517	-0.093	0.057	-13.5
-0.0405	0.0622	-0.093	0.048	-13.9
-0.0375	0.0697	-0.0803	0.0382	-13.6
-0.0105	0.0382	-0.0578	0.0187	-13.6
0.0195	0.018	-0.0308	0.0112	-13.7
0.0307	-0.0015	-0.0233	0.0135	-13.5
0.033	0.0232	-0.0353	0.0195	-13.7
0.036	0.027	-0.0585	0.0202	-13.6
0.0405	0.0292	-0.075	0.0172	-13.5
0.0457	0.0345	-0.0615	0.0202	-13.5
0.0352	0.0285	-0.0383	0.0195	-13.5
0.0262	0.03	-0.0218	0.0202	-13.4
0.039	0.0202	-0.0128	0.0172	-13.5
0.0472	0.0255	0.0082	0.0127	-13.5
0.0435	0.021	0.0405	0.0127	-13.6
0.0352	0.0202	0.0607	0.0097	-13.5
0.0157	0.0142	0.0615	0.0067	-13.3
0.0105	0.0165	0.0652	0.0075	-13.5
0.0277	0.0232	0.078	0.012	-13.4
0.048	0.0232	0.0742	0.0165	-13.4
0.057	0.0232	0.0607	0.012	-13.2
0.0615	0.015	0.0502	0.0015	-13.2
0.0577	0.0082	0.0382	-0.003	-13.2
0.069	0.0007	0.0262	-0.0105	-13.1
0.1522	-0.0008	0.0232	-0.0143	-13.1
0.303	-0.0015	0.0262	-0.0053	-13
0.3382	0.0037	0.0277	0.0045	-12.9
0.2565	0.0105	0.0307	0.0075	-13
0.2205	0.0097	0.0292	0.0067	-13
0.1485	0.0052	0.024	-0.0023	-13
0.0997	-0.0008	0.0232	-0.0091	-13
0.0637	0.0007	0.0277	-0.0046	-12.8
0.0232	0	0.0367	0.0007	-12.9
0.0675	-0.003	0.0465	-0.0046	-12.8
0.1312	-0.0075	0.054	-0.0068	-12.8
0.1372	-0.0128	0.0607	-0.0053	-13.1
0.0915	-0.015	0.06	-0.0046	-12.6
0.027	-0.0113	0.057	-0.0008	-12.7
-0.0443	-0.0083	0.06	0.0015	-12.7
-0.0803	-0.0038	0.0712	0.003	-12.7
-0.1155	0.0015	0.0825	0.0045	-12.8
-0.1388	-0.0008	0.0705	0.0015	-12.7
-0.168	-0.003	0.0517	0.003	-12.7
-0.2003	-0.0038	0.042	0.0082	-12.6
-0.2213	-0.003	0.0255	0.0067	-12.6
-0.231	-0.0046	0.012	0.003	-12.6
-0.228	-0.0046	-0.0015	0.0007	-12.7
-0.231	-0.0046	-0.0165	-0.0068	-12.6
-0.222	-0.0053	-0.0263	-0.0083	-12.7
-0.2093	-0.0053	-0.0323	-0.0046	-12.6
-0.1845	-0.0068	-0.0368	-0.0015	-12.5
-0.1748	-0.0068	-0.0443	-0.0038	-12.7
-0.1598	-0.0098	-0.045	-0.0068	-12.3
-0.132	-0.0098	-0.042	-0.003	-12.7
-0.1006	-0.0046	-0.0405	0.0015	-12.5
-0.0765	0.0007	-0.0353	0.0045	-12.5
-0.078	0.0007	-0.0278	0.0045	-12.5
-0.0683	-0.0008	-0.027	0.003	-12.5
-0.0615	-0.0015	-0.0225	0.0037	-12.5
-0.057	-0.0015	-0.0135	0.0037	-12.5
-0.0436	-0.0008	-0.0113	0.003	-12.5
-0.0233	-0.0015	-0.0075	0.0015	-12.3
-0.003	-0.0046	-0.0053	-0.003	-12.4
0.0112	-0.006	-0.0105	-0.0038	-12.5
0.0195	-0.0068	-0.0165	-0.0008	-12.3
0.0232	-0.0053	-0.0256	-0.0015	-12.2
0.0292	-0.0023	-0.0346	0.0015	-12.3
0.024	-0.0015	-0.039	0.003	-12.2
0.0277	-0.0023	-0.0436	-0.0008	-12.2
0.027	-0.0015	-0.0465	-0.003	-12.3
0.021	-0.0023	-0.0473	-0.0015	-12.2
0.0187	-0.0023	-0.0458	-0.0083	-12
0.0007	-0.0038	-0.0353	-0.0128	-12.1
-0.0181	-0.0053	-0.0308	-0.0128	-11.9
-0.0308	-0.0038	-0.0368	-0.012	-12
-0.0158	-0.0008	-0.0398	-0.0053	-11.9
0.0007	0.0015	-0.0368	-0.0068	-11.9
0.0015	0.0022	-0.0383	0.0007	-11.8
0.0052	0.0015	-0.0458	0.015	-11.8
0	-0.0008	-0.0518	0.012	-11.8
-0.0053	-0.003	-0.0555	0.003	-11.7
-0.0098	-0.0053	-0.0525	-0.0015	-11.6
-0.0128	-0.0046	-0.0413	-0.0038	-11.6
-0.0181	-0.0053	-0.0315	-0.0046	-11.6
-0.0225	-0.0046	-0.0195	-0.0023	-11.5
-0.0203	0.0007	-0.0075	0.003	-11.4
-0.0203	0.0052	0.003	0.0112	-11.2
-0.0225	0.0075	0.0142	0.0112	-11.4
-0.0248	0.0052	0.0217	0.0067	-11.2
-0.0256	0.0007	0.0307	0.006	-10.9
-0.027	-0.0015	0.0405	0.0037	-11.2
-0.0308	-0.0008	0.0457	-0.0008	-11.1
-0.0346	-0.0015	0.0487	-0.0015	-11
-0.0346	-0.0015	0.0532	0	-10.8
-0.0315	0	0.057	0.006	-10.7
-0.0285	0	0.0577	0.009	-10.9
-0.0233	0.0007	0.0585	0.0112	-10.5
-0.024	0.0007	0.0517	0.0142	-10.7
-0.03	0	0.048	0.0202	-10.4
-0.0285	0.0015	0.0427	0.024	-10.4
-0.0181	0.0045	0.0405	0.018	-10.5
-0.0143	0.0052	0.0427	0.003	-10.4
-0.0135	0.0015	0.0457	-0.0218	-10.1
-0.0105	-0.0008	0.0547	-0.027	-10.1
-0.0083	0.0015	0.06	-0.0105	-9.8
-0.0023	0.0045	0.063	0.003	-9.9
0.0127	0.0015	0.0637	0.0142	-9.7
0.0255	-0.0008	0.0637	0.0157	-9.6
0.039	-0.0098	0.0645	-0.0023	-9.5
0.0502	-0.0293	0.0585	-0.0113	-9.5
0.0562	-0.0436	0.0517	-0.0128	-9.4
0.0675	-0.0278	0.0442	-0.0195	-9.4
0.0765	-0.0053	0.0382	-0.0053	-9
0.087	0.0082	0.0292	0.0007	-9
0.0892	0.027	0.0202	-0.024	-9
0.0855	0.039	0.0172	-0.0368	-8.7
0.084	0.0367	0.0082	-0.0323	-8.9
0.0712	0.0292	0.0015	-0.0098	-8.6
0.06	0.0322	-0.0068	0.0367	-8.5
0.0667	0.024	-0.0165	0.0502	-8.6
0.0765	0.0052	-0.024	0.0247	-8.2
0.0802	-0.0091	-0.0285	-0.0113	-8.2
0.0787	-0.0436	-0.0315	-0.0278	-8.2
0.0712	-0.0653	-0.0405	-0.021	-8.1
0.0562	-0.0383	-0.048	-0.0105	-8
0.0442	-0.0091	-0.0495	0.003	-7.9
0.03	-0.0113	-0.054	-0.0046	-7.7
0.0135	-0.003	-0.054	-0.003	-7.7
0.0015	0.0232	-0.0578	0.0172	-7.5
-0.015	0.0412	-0.0593	0.0135	-7.5
-0.0308	0.0262	-0.0578	0.0067	-7.2
-0.0308	0.0075	-0.054	0.0052	-7.2
-0.0158	-0.0008	-0.0465	0.0022	-7.1
0.0022	-0.0068	-0.042	0.009	-7
0.0157	0.0007	-0.0413	0.009	-7
0.0285	-0.0015	-0.0361	0.003	-6.7
0.0495	-0.0015	-0.0368	0.0015	-6.8
0.0705	-0.0008	-0.039	0.0007	-6.8
0.0855	-0.0038	-0.0375	0.0052	-6.7
0.0907	-0.003	-0.0375	0.0052	-6.8
0.0765	-0.0046	-0.0368	0.0052	-6.5
0.0517	-0.003	-0.0368	0.0052	-6.5
0.0315	-0.0038	-0.039	0.0045	-6.3
0.0277	0.0007	-0.0428	0.0067	-6.4
0.0277	0.0015	-0.0398	0.0052	-6.1
0.0202	0.0015	-0.0308	0.0052	-6.3
0.0105	0.0015	-0.0285	0.0037	-6
-0.0053	-0.003	-0.0383	0.0007	-6.2
-0.0195	-0.0038	-0.045	-0.0015	-6
-0.0248	-0.0083	-0.048	-0.0046	-6.1
-0.0263	-0.0083	-0.0488	-0.0038	-5.9
-0.027	-0.0075	-0.0473	-0.003	-6
-0.0225	-0.0075	-0.048	-0.0008	-5.8
-0.0158	-0.0038	-0.0383	0.0022	-5.8
-0.0038	-0.0008	-0.033	0.0022	-5.6
0.0015	-0.0008	-0.033	0.0007	-5.8
-0.0008	-0.0015	-0.0181	-0.0008	-5.6
-0.0053	-0.003	-0.012	-0.003	-5.8
-0.0053	-0.0053	-0.0098	-0.0023	-5.7
-0.0008	-0.0046	-0.0015	-0.0008	-5.5
-0.0008	0.0045	0.0105	0.003	-5.5
0.0045	0.0112	0.0202	0.0045	-5.7
-0.0008	0.0052	0.018	0.0007	-5.4
-0.0173	0.0015	0.0217	-0.0008	-5.4
-0.0278	0.0015	0.0255	-0.0008	-5.4
-0.0398	0.0007	0.0285	0	-5.4
-0.0436	0.0007	0.0345	-0.0008	-5.3
-0.0473	-0.003	0.0352	-0.0015	-5.3
-0.0533	-0.0046	0.036	-0.0015	-5.4
-0.0548	-0.003	0.036	-0.0023	-5.1
-0.057	-0.003	0.0382	-0.0008	-5
-0.0578	-0.0053	0.0427	-0.0008	-5
-0.0533	-0.0075	0.0465	-0.0023	-5
-0.0495	-0.0053	0.048	0.0007	-5
-0.0436	-0.003	0.0495	0.0022	-5
-0.0293	0	0.054	0.0037	-4.9
-0.0195	0.0007	0.0555	0.003	-5
-0.0143	0.0015	0.054	0.0015	-4.8
-0.015	0.0007	0.0547	0.003	-4.7
-0.0203	0.0022	0.0562	0.0015	-4.8
-0.0233	0.003	0.054	0.0007	-4.5
-0.024	0	0.0517	0.0015	-4.8
-0.0233	0	0.0517	0	-4.5
-0.0165	-0.0015	0.0532	-0.0015	-4.4
-0.015	-0.0046	0.048	-0.0038	-4.5
-0.0128	-0.0053	0.0382	-0.0053	-4.4
0.0007	-0.0046	0.0382	-0.0038	-4.2
0.0045	-0.0038	0.0435	-0.0015	-4.2
0.009	-0.0038	0.0427	0.0015	-4.1
0.0255	-0.003	0.036	0.0052	-4.1
0.0517	-0.0015	0.03	0.0067	-4
0.057	0.003	0.0285	0.0067	-3.9
0.012	0.0052	0.0345	0.0052	-4.1
-0.024	0.0067	0.0427	0.006	-3.9
-0.0248	0.0075	0.0397	0.0067	-3.8
-0.0181	0.0045	0.0337	0.0015	-3.7
-0.0158	0.0007	0.03	-0.0068	-3.6
-0.0143	-0.003	0.0255	-0.0128	-3.7
-0.0068	-0.0046	0.0232	-0.0075	-3.4
-0.0008	-0.0015	0.018	0.0052	-3.5
0.0105	-0.0008	0.0157	0.0045	-3.5
0.0217	-0.0015	0.012	-0.0008	-3.4
0.027	-0.0008	0.0082	-0.0023	-3.4
0.0232	0.0007	0.0045	-0.0105	-3.1
0.0195	0.0015	0.0015	-0.0128	-3.1
0.0187	0.009	-0.0008	0.0045	-3.1
0.0135	0.0075	0.0015	0.0135	-3.1
0.0105	0.003	0.0022	0.0097	-3
0.0142	0.0045	0.0007	0.0067	-3.1
0.0532	0.0007	-0.0023	-0.0046	-2.8
0.087	-0.0008	-0.006	-0.0046	-2.9
0.0517	-0.0015	-0.0128	-0.0015	-3
0.0037	-0.003	-0.021	-0.0008	-2.9
-0.0091	-0.0023	-0.0308	0.0015	-3
-0.0113	-0.0038	-0.0383	0.0022	-2.6
-0.021	-0.0015	-0.0428	0.0052	-2.7
-0.033	0	-0.045	0.0022	-2.6
-0.0353	0	-0.0465	-0.0008	-2.7
-0.0413	-0.0008	-0.048	-0.003	-2.4
-0.042	-0.0008	-0.0495	-0.003	-2.5
-0.033	-0.0008	-0.0511	0.0007	-2.5
-0.0181	-0.0015	-0.0525	0.003	-2.4
-0.0053	0.0007	-0.0525	0.0052	-2.4
-0.0015	0.0015	-0.0518	0.009	-2.3
0.0015	0.009	-0.0495	0.015	-2.3
0.003	0.0232	-0.0495	0.018	-2.1
0.0067	0.0367	-0.0488	0.0157	-2.3
0.0082	0.039	-0.0443	0.0105	-2.1
0.0045	0.0337	-0.0413	0.0022	-2
0.0082	0.0307	-0.0405	-0.003	-2
0.0127	0.0202	-0.0383	-0.0091	-1.9
0.0142	0.012	-0.0375	-0.0091	-2
0.0157	-0.0256	-0.0361	-0.015	-1.8
0.012	-0.093	-0.0346	-0.0256	-2
0.009	-0.111	-0.033	-0.0165	-1.8
0.0052	-0.0721	-0.0315	-0.0015	-1.8
-0.0008	-0.0368	-0.0278	-0.0015	-1.7
-0.003	-0.024	-0.0256	-0.0008	-1.6
-0.003	-0.0083	-0.0225	0.0067	-1.7
-0.0053	-0.0038	-0.0181	0.009	-1.7
-0.0053	0.006	-0.0165	0.0135	-1.7
-0.0068	0.0082	-0.0165	0.0127	-1.6
-0.015	0.012	-0.0128	0.0082	-1.6
-0.0158	0.0225	-0.0158	-0.003	-1.5
-0.0173	0.0172	-0.0143	-0.006	-1.6
-0.0308	0.0225	-0.0098	0.003	-1.4
-0.039	0.0165	-0.006	0.0037	-1.4
-0.0353	0.0142	0.0045	0.0007	-1.4
-0.0315	0.003	0.0127	-0.0053	-1.2
-0.0346	-0.0105	0.0142	-0.012	-1.4
-0.0346	0.0022	0.0172	-0.0053	-1.2
-0.0293	0.0105	0.0165	-0.003	-1.2
-0.0263	0.0007	0.0127	-0.0046	-1.2
-0.021	-0.0165	0.0127	-0.0015	-1
-0.0165	-0.0195	0.0105	0.003	-1
-0.0128	-0.0075	0.0105	0.0112	-1
-0.0083	0.003	0.012	0.0112	-0.8
-0.0015	0.0052	0.0112	0.009	-0.9
0.0015	0.006	0.0127	0.0082	-0.9
0.003	0.0045	0.0135	0.0082	-0.8
0.0067	0.0082	0.0165	0.009	-0.8
0.009	0.0052	0.0187	0.0052	-0.8
0.0105	0.0015	0.018	-0.0008	-0.6
0.0135	0.0015	0.0165	-0.0068	-0.7
0.0165	0.0007	0.018	-0.0091	-0.5
0.0202	0.003	0.0157	-0.0105	-0.7
0.024	0.0015	0.0105	-0.0105	-0.3
0.0255	0.0022	0.0105	-0.0023	-0.5
0.03	0.0037	0.009	0.0067	-0.4
0.0345	0.0007	0.0067	0.0075	-0.4
0.0375	-0.0008	0.0082	0.0067	-0.3
0.0367	-0.003	0.0067	0.003	-0.3
0.0397	-0.0023	0.0045	-0.0015	-0.3
0.0412	-0.003	0.0037	-0.0015	-0.2
0.0412	-0.003	0.0045	-0.0068	-0.3
0.039	-0.0046	0.0052	-0.012	-0.1
0.0382	-0.003	0.0067	-0.0113	0
0.0397	-0.0008	0.0045	-0.0091	0.1
0.039	0.0007	0.0037	-0.0015	-0.1
0.0367	0.0015	0.0045	0.0045	0.1
0.033	0.0022	0.0052	0.0075	0.1
0.03	0.0022	0.0045	0.0105	0
0.0277	0.0045	0.0045	0.0105	0.3
0.0225	0.0052	0.0052	0.012	0.2
0.018	0.003	0.0052	0.0105	0.2
0.0142	-0.0015	0.0067	0.0075	0.3
0.0105	-0.003	0.0075	0.003	0.3
0.009	-0.0038	0.0045	0.0007	0.4
0.006	-0.0038	0.0052	-0.0015	0.4
0.003	-0.0046	0.0045	-0.0053	0.6
-0.0008	-0.003	0.003	-0.0083	0.6
-0.0015	-0.0015	0.003	-0.0075	0.5
-0.0053	-0.0015	0.003	-0.0053	0.7
-0.0068	0.0007	0.0007	-0.0023	0.6
-0.0075	0.0007	0.0007	-0.0015	0.6
-0.0091	0	0.0007	0.0007	0.8
-0.0105	0	-0.0015	0.003	0.7
-0.0098	-0.0008	-0.0015	0.003	0.7
-0.012	0.0007	0.0015	0.0045	0.7
-0.0158	0.0022	0.0015	0.0105	0.7
-0.0165	0.0052	0	0.018	0.9
-0.0181	0.0067	0	0.0157	0.9
-0.0225	0.0052	-0.0015	0.0052	0.9
-0.0278	0.003	-0.0046	-0.0053	0.9
-0.033	-0.0015	-0.006	-0.0165	1
-0.033	-0.0143	-0.0068	-0.0233	1
-0.0346	-0.0165	-0.0098	-0.0135	1
-0.0346	-0.0105	-0.0091	-0.0068	0.9
-0.033	-0.0165	-0.0083	-0.015	1
-0.0315	-0.0225	-0.0091	-0.0113	0.9
-0.03	-0.0083	-0.0068	0	1.1
-0.027	0.006	-0.0091	0.0082	1.2
-0.0263	0.0112	-0.0083	0.015	1
-0.027	0.0105	-0.0083	0.0142	1.3
-0.0256	0.0082	-0.0105	0.0112	1.2
-0.021	0.0067	-0.0113	0.0067	1.3
-0.0181	0.0015	-0.0143	-0.0023	1.3
-0.0158	-0.006	-0.0158	-0.0083	1.2
-0.012	-0.0181	-0.0165	-0.012	1.3
-0.0068	-0.0165	-0.0135	-0.0053	1.4
-0.0008	0	-0.012	0.0045	1.3
0.0045	0.0037	-0.0128	0.0067	1.5
0.0105	0.0052	-0.012	0.0082	1.3
0.0127	0.009	-0.0128	0.009	1.5
0.015	0.0045	-0.0128	0.0082	1.5
0.018	0.006	-0.012	0.0082	1.5
0.0202	0.0052	-0.0083	0.0082	1.6
0.021	0.0045	-0.0075	0.009	1.6
0.0217	0.003	-0.0053	0.0075	1.5
0.024	0.003	-0.0023	0.0045	1.8
0.024	0.0067	-0.0023	-0.0008	1.5
0.0217	0.0052	0.0007	-0.0046	1.8
0.0195	-0.0008	0.0022	-0.0053	1.8
0.0187	-0.0053	0.003	-0.0053	1.8
0.0157	-0.0038	0.0082	-0.0038	1.9
0.0135	0	0.0105	-0.0008	1.9
0.0135	-0.0008	0.0105	-0.0023	1.8
0.012	-0.0038	0.0127	-0.0023	2
0.012	-0.0008	0.0127	-0.0015	1.8
0.012	0.0007	0.0127	-0.0023	2
0.009	0.0022	0.0105	-0.003	2
0.009	0.006	0.009	-0.0008	2
0.0075	0.003	0.0105	0	2.1
0.006	0.0007	0.0105	-0.0015	1.8
0.0052	-0.0023	0.009	-0.0046	2.1
0.0037	-0.003	0.0082	-0.0046	2
0.0037	-0.0046	0.0067	-0.003	1.9
0.0067	-0.0046	0.0052	-0.0008	2.1
0.0082	-0.0015	0.0075	-0.0008	2
0.0067	-0.0023	0.0052	0.0007	2.1
0.0045	-0.003	0.0007	0.0037	2.1
0.003	-0.0046	0	0.003	2.2
-0.0008	-0.0046	-0.0008	0.0015	2.1
-0.0015	-0.003	-0.0015	-0.0015	2.1
-0.0008	-0.0015	-0.0046	-0.0015	2
-0.0008	-0.003	-0.0046	0.003	2.4
-0.0008	-0.0038	-0.0008	0.0045	2.1
-0.0023	-0.0053	-0.0008	0.0097	2.2
-0.0046	-0.0053	-0.0008	0.0142	2.1
-0.006	-0.0038	-0.0008	0.0075	2.2
-0.0083	-0.0046	0.0015	0	2.2
-0.0091	-0.0008	0.0015	0.003	2.2
-0.0091	0.0015	-0.0008	-0.0038	2.2
-0.0098	-0.0015	-0.003	-0.0188	2.2
-0.0128	-0.0008	-0.0053	-0.0195	2.1
-0.0143	0.003	-0.0053	-0.0068	2.2
-0.0143	0.0045	-0.0038	0.009	2.1
-0.015	0.003	-0.0038	0.009	2.2
-0.0165	0.0015	-0.0038	0.0007	2.2
-0.0203	-0.0015	-0.0008	-0.006	2.2
-0.0203	-0.0046	0.0037	-0.0158	2.1
-0.0173	-0.0046	0.0052	-0.0203	2.2
-0.0135	-0.003	0.0037	-0.015	2.1
-0.012	-0.0008	0.0015	-0.0083	2.2
-0.0091	0.003	0.0015	-0.0113	2.1
-0.0105	0.0015	0.0015	-0.012	2.2
-0.0128	0.0007	-0.0008	-0.0008	2.2
-0.012	0.0022	-0.0015	0.0112	2
-0.0105	0.0045	-0.0008	0.0172	2.1
-0.0105	0.006	-0.0023	0.024	2.1
-0.0083	0.0105	-0.0023	0.0345	2.3
-0.0068	0.0142	0.0015	0.036	2.1
-0.006	0.0135	0.0007	0.0232	2.1
-0.0068	0.0052	-0.0015	0.006	2
-0.0083	-0.003	0.0007	-0.0008	2.2
-0.0053	-0.0046	0.0045	0.003	2
-0.003	-0.006	0.0052	0.0082	2
-0.0015	-0.012	0.003	-0.0015	2.1
0.0015	-0.0143	0.0015	-0.0158	1.8
0.0015	-0.012	0.0007	-0.0173	2.2
0.0037	-0.012	0.0007	-0.0218	1.9
0.0045	-0.0128	0.003	-0.0233	2.1
0.0045	-0.0053	0.0052	-0.0053	1.9
0.0075	-0.0008	0.003	0.0105	1.8
0.0075	0.003	0.0045	0.0225	1.9
0.0067	0.009	0.0082	0.0337	1.8
0.0067	0.0112	0.0037	0.0307	2
0.0045	0.0082	-0.0015	0.0202	2.1
0.003	0.003	-0.0038	0.0112	1.9
0.003	0	-0.0053	-0.0023	1.8
0.003	0.0015	-0.006	-0.0105	2.1
0.0045	0.0037	-0.0068	-0.0083	1.7
0.0052	0.0082	-0.0068	-0.0105	2
0.003	0.0075	-0.006	-0.0181	1.8
0.0022	0.0045	-0.006	-0.0195	1.8
0.0015	0.0022	-0.0068	-0.0158	1.8
-0.0008	0.0007	-0.0075	-0.0128	1.8
-0.0023	0	-0.0053	-0.0091	2.1
-0.0015	-0.0008	-0.0046	-0.0068	1.8
-0.0008	0	-0.0091	-0.003	1.8
-0.003	0.0015	-0.0105	0.0045	1.8
-0.0053	0.0045	-0.0091	0.0067	1.8
-0.006	0.0037	-0.0091	0.0015	1.8
-0.006	0.0007	-0.0068	-0.0068	1.8
-0.0068	-0.003	-0.0105	-0.0091	1.8
-0.0083	-0.0038	-0.012	-0.003	1.8
-0.0053	-0.0023	-0.0113	0.0082	1.8
-0.006	-0.0008	-0.0128	0.0195	1.5
-0.006	0.0022	-0.0135	0.0247	1.9
-0.0046	0.0007	-0.0113	0.0285	1.7
-0.0053	-0.0023	-0.0128	0.0262	1.7
-0.0038	-0.0046	-0.0128	0.021	1.8
-0.003	-0.006	-0.0091	0.0127	1.7
-0.003	0.0007	-0.006	0.0045	2
-0.0008	0.0082	-0.006	-0.0068	1.7
-0.0015	0.0052	-0.0053	-0.0173	1.8
-0.003	-0.0233	-0.0053	-0.0158	1.7
0.0007	-0.0338	-0.003	-0.0023	1.6
0.003	-0.0098	-0.0008	0.0082	1.8
0.003	-0.003	-0.0015	0.003	1.7
0.0045	-0.0008	0.0007	-0.0143	1.8
0.0015	-0.0015	0.0015	-0.0203	1.7
0.003	-0.003	0.0022	-0.0128	1.8
0.0045	-0.0015	0.0037	-0.0053	1.6
0.0052	-0.006	0.003	-0.0075	1.8
0.0045	-0.0008	0.0052	-0.0068	1.5
0.006	0.003	0.0052	-0.0015	1.7
0.0052	0.0082	0.0045	0.003	1.8
0.0045	0.0105	0.0015	0.012	1.5
0.0037	0.0105	-0.0015	0.018	1.7
0.0037	0.0075	-0.0023	0.0157	1.6
0.003	0.0082	-0.0038	0.009	1.8
0.0015	0.0105	-0.003	0.0075	1.7
0.0015	0.0142	-0.0023	0.0127	1.6
0.0007	0.0195	-0.0008	0.0142	1.7
-0.0008	0.0165	0.0007	0.0105	1.7
-0.0008	0.0165	-0.0008	0.0045	1.5
-0.0015	0.012	0	-0.003	1.6
-0.0023	0.0022	0.0015	-0.0083	1.8
-0.0015	-0.0098	0.003	-0.012	1.6
-0.0015	-0.0181	0.003	-0.0256	1.7
-0.0008	-0.0218	-0.0008	-0.0405	1.4
0	-0.0413	-0.0015	-0.0436	1.8
0	-0.057	0.0022	-0.0375	1.6
0.0007	-0.0413	0.003	-0.0195	1.6
0.0015	-0.0135	0.0037	0.0052	1.6
0.0022	-0.0023	0.003	0.018	1.4
0.0007	-0.0008	0.0015	0.0157	1.6
0.0015	-0.003	0.0007	0.0045	1.4
0.0015	-0.0046	0.0015	0.0015	1.5
0.0015	0.0007	0.0037	0.0135	1.5
-0.0008	0.0067	0.003	0.0217	1.4
-0.003	0.012	0.0052	0.024	1.7
-0.0008	0.0105	0.003	0.0187	1.5
-0.0008	0.0112	0.0007	0.0127	1.5
-0.0008	0.0127	-0.0015	0.0127	1.3
0	0.0097	-0.0023	0.0075	1.5
0.0007	0.0052	-0.0023	0.0007	1.3
0.0007	0.0015	-0.0038	-0.0046	1.6
0.0015	0.003	-0.0015	-0.0046	1.3
0.0015	0.0015	0.0007	-0.003	1.5
0.0022	0	0.0007	-0.0015	1.4
0.0022	0.0015	0.0022	-0.0015	1.3
0.003	0.0022	0.003	0.0007	1.4
0.0037	0.0015	0.0037	0.0045	1.5
0.0045	-0.0015	0.0052	0.003	1.3
0.0052	-0.0038	0.0067	0.0007	1.3
0.0045	-0.0053	0.0075	0.0015	1.2
0.0022	-0.0023	0.0082	0.003	1.3
-0.0008	-0.0008	0.0105	0.003	1.1
0.003	-0.003	0.0105	0.0015	1.2
0.0097	-0.003	0.009	0.0022	1.2
0.009	-0.0023	0.0112	0.0037	1.3
0.006	0.0007	0.0105	0.0067	1
-0.0008	0.0007	0.0105	0.0022	1.3
-0.0015	-0.0038	0.0127	-0.0075	1
-0.0015	-0.0068	0.012	-0.0128	1
0	-0.0053	0.0105	-0.0158	1.1
0.0015	-0.0038	0.009	-0.0135	0.9
0.0015	0	0.0075	-0.0046	1.3
0.0015	0.0037	0.006	-0.003	0.9
-0.0023	0.0015	0.0052	-0.0083	0.9
-0.003	0	0.003	-0.0083	0.9
-0.003	-0.0008	0.0052	-0.0023	0.9
0	0	0.0052	0.0052	1
0.0045	0.003	0.0052	0.0172	0.9
0.0037	0.006	0.0052	0.0247	0.8
0.0045	0.0067	0.003	0.024	0.9
0.0052	0.0067	0	0.0202	0.8
0.0045	0.0052	-0.0008	0.0165	0.7
0.0022	0.0045	0	0.0142	0.9
0	0.0052	-0.0023	0.006	0.7
0.0007	0.0022	-0.0046	-0.0015	0.7
0.0007	-0.0008	-0.0053	-0.0075	0.7
-0.0008	-0.006	-0.0046	-0.015	0.7
0.0015	-0.0083	-0.0023	-0.015	0.8
0.003	-0.006	-0.003	-0.0128	0.5
0.0007	-0.006	-0.0046	-0.0105	0.7
0.0007	-0.0068	-0.0053	-0.0053	0.5
0.0022	-0.006	-0.0053	-0.0046	0.7
0.0022	-0.0046	-0.003	-0.0053	0.5
0.003	-0.0046	-0.0023	-0.006	0.4
0.0007	0.0007	-0.003	-0.0015	0.5
-0.0046	0.0045	-0.0023	0.009	0.5
-0.0091	0.003	-0.0015	0.0142	0.4
-0.012	0.0037	-0.0046	0.0082	0.5
-0.012	0.0015	-0.0008	0.0075	0.5
-0.0128	0.0015	0.0007	0.0067	0.3
-0.0135	0.003	-0.003	0.0045	0.4
-0.0143	0.0037	0.0015	0.0045	0.3
-0.012	0.003	0.0045	0.0015	0.4
-0.0105	0.003	0.0067	0.0037	0.3
-0.0098	0.0045	0.0105	0.0015	0.1
-0.0083	0.0037	0.0105	0.0007	0.4
-0.0068	0.003	0.0105	0.0045	0.2
-0.0075	0.0007	0.009	0.0022	0.1
-0.0068	-0.0008	0.0067	0.0015	0.1
-0.0053	-0.0008	0.0045	-0.0023	0.1
-0.0053	-0.0053	0.003	-0.0068	0
-0.0038	-0.0075	0.0045	-0.0091	0
-0.003	-0.0083	0.0007	-0.0083	-0.1
-0.0023	-0.006	-0.0046	-0.0068	0
-0.0015	-0.0015	-0.0053	-0.0083	-0.1
-0.0015	-0.0015	-0.006	-0.0083	-0.2
-0.0015	-0.0015	-0.0046	-0.0053	0
0.0015	0.0007	-0.0038	0.0022	-0.3
0.003	0.0007	-0.003	0.0067	-0.1
0.0015	0	-0.003	0.0082	-0.3
0.0015	0.0015	-0.003	0.006	-0.4
0.0015	0.003	-0.003	0.0007	-0.2
0.0007	0	-0.003	0.003	-0.5
0	-0.0008	-0.0038	0.003	-0.3
-0.0008	-0.003	-0.0068	-0.0008	-0.5
-0.0015	-0.0046	-0.0068	-0.0015	-0.4
-0.0008	-0.0046	-0.0075	-0.0046	-0.6
-0.0008	-0.003	-0.0098	-0.0023	-0.6
0.0015	-0.003	-0.0083	-0.0008	-0.6
0.003	-0.0038	-0.0053	-0.0008	-0.5
0.0015	-0.003	-0.003	0.0015	-0.6
0.0015	-0.0038	-0.003	-0.0008	-0.6
0.0037	-0.0053	-0.0015	0	-0.6
0.0015	-0.0038	0.0015	-0.0008	-0.9
0.0007	-0.0023	0.0067	-0.0008	-0.6
0.0007	-0.0023	0.0105	0	-0.9
0	0	0.0097	0.0007	-0.7
0.0015	-0.0008	0.012	0.0015	-0.7
0.0015	-0.0015	0.0105	0	-1
0.003	-0.0008	0.009	0.0022	-0.8
0.003	-0.0023	0.0082	0.003	-0.8
0.0022	-0.003	0.0045	0.0007	-0.9
0.003	-0.0023	0.0045	0.0007	-1
0.0015	-0.0023	0.0015	-0.0015	-1.1
0.0015	-0.0046	0.0007	-0.0046	-1.1
0.003	-0.0046	0.0022	-0.0053	-1
0.0022	-0.0008	-0.0015	-0.0038	-1.3
0.0022	0.0015	-0.0015	-0.0015	-1
0.003	0.003	-0.0023	0.0007	-1.2
0.003	0.003	-0.0053	0.0045	-1.4
0.003	0.0037	-0.0046	0.009	-1.2
0.0052	0.0052	-0.003	0.009	-1.4
0.0082	0.0045	-0.0053	0.0052	-1.3
0.0127	0.0015	-0.0068	0.003	-1.4
0.0135	-0.0068	-0.0098	0.0007	-1.4
0.0142	-0.0181	-0.0098	-0.0053	-1.5
0.0157	-0.0143	-0.0083	-0.0015	-1.5
0.0142	-0.0046	-0.0091	0.006	-1.6
0.012	-0.0015	-0.0075	0.009	-1.6
0.0105	0.0007	-0.0075	0.0067	-1.7
0.0082	-0.0023	-0.0068	0.0015	-1.7
0.006	-0.0053	-0.0075	-0.003	-1.6
0.0052	-0.0046	-0.0075	-0.0008	-1.6
0.003	0.0007	-0.0068	0.0007	-1.6
0.003	0.0052	-0.0068	0.0007	-1.8
0.0015	0.0052	-0.0053	0.0007	-1.7
0.0007	0.0045	-0.0068	0	-1.8
0	0.003	-0.0068	0.0007	-1.9
-0.0015	0.0045	-0.0068	0.003	-1.9
-0.0008	0.0052	-0.006	0.0052	-1.9
-0.0023	0.003	-0.0046	0.0052	-2.1
-0.003	0.0015	-0.003	0.0075	-2
-0.0015	0.003	-0.0015	0.0112	-2.1
-0.0008	0.0015	-0.0008	0.0165	-2.1
-0.0023	-0.0008	0.0007	0.0142	-2.2
-0.0046	-0.0038	-0.003	0.006	-2.3
-0.0068	-0.0075	-0.0068	-0.0023	-2.3
-0.0105	-0.012	-0.0075	-0.0135	-2.5
-0.0143	-0.0143	-0.0105	-0.0195	-2.5
-0.015	-0.0105	-0.0128	-0.0128	-2.5
-0.0181	-0.0046	-0.0128	-0.0068	-2.6
-0.0181	0.0015	-0.0098	-0.0083	-2.7
-0.0158	0.0112	-0.0053	-0.0128	-2.6
-0.012	0.009	-0.0008	-0.0113	-2.9
-0.0083	0.0232	0.003	-0.0053	-2.7
-0.006	0.0352	0.006	-0.0008	-2.8
-0.003	0.021	0.0075	0.0067	-2.9
-0.0015	0.0127	0.0082	0.0142	-3
-0.0008	-0.0053	0.0067	0.0165	-3.2
-0.0008	-0.0113	0.003	0.0127	-3.2
-0.0015	-0.0068	0.0007	0.003	-3.3
-0.0008	-0.0233	0	-0.0075	-3.5
-0.0015	-0.0353	0.0007	-0.0083	-3.2
-0.0008	-0.021	0.0007	0.0015	-3.5
0.0007	0.0067	0.0015	0.0067	-3.5
-0.0008	0.0037	0.0007	0.0015	-3.6
0.0007	0.003	0.0022	-0.0023	-3.6
0.003	-0.0068	0.0015	-0.0046	-3.9
0.003	-0.0233	0.003	0	-3.9
0.0022	-0.0143	0.0052	0.0045	-4
0.0045	-0.0105	0.0067	0.0037	-3.9
0.006	-0.0075	0.0067	0.0075	-4.2
0.0075	0.0007	0.0082	0.0105	-4
0.0067	0.0067	0.0067	0.0142	-4.3
0.0067	0.0015	0.0045	0.0105	-4.3
0.006	-0.0015	0.0045	0.0037	-4.4
0.0067	-0.0008	0.003	-0.0015	-4.4
0.0082	0.0015	0.0007	-0.0068	-4.6
0.0015	0.0022	0.0007	-0.012	-4.5
0.0015	0.0015	0.0007	-0.0158	-4.7
0.0022	-0.0038	0.0007	-0.0181	-4.7
0.0015	-0.0098	-0.0008	-0.0165	-4.8
0.0007	-0.0128	0.0015	-0.0105	-5
0.0007	-0.0113	0.0037	0	-5
0.0015	0.0007	0.003	0.012	-5.1
0.0007	0.0202	0.0052	0.021	-5
0.0015	0.0315	0.0067	0.021	-5.1
0.0007	0.0315	0.0037	0.0202	-5.4
0.0007	0.036	0.0007	0.0187	-5.4
-0.0015	0.0165	-0.003	0.003	-5.7
-0.0046	-0.0098	-0.0015	-0.0143	-5.7
-0.0046	-0.0113	-0.003	-0.0128	-5.7
-0.006	-0.012	-0.0075	-0.0068	-5.9
-0.006	-0.0128	-0.0083	-0.003	-6
-0.003	-0.0083	-0.0075	-0.003	-6.2
-0.0015	-0.0038	-0.0068	-0.0053	-6.3
-0.0023	0.0007	-0.0083	-0.0075	-6.2
0.0007	0.0067	-0.0068	-0.0046	-6.5
0.0052	0.0202	-0.0091	0.0015	-6.5
0.006	0.0255	-0.0143	0.003	-6.5
0.0067	0.0345	-0.0158	0.003	-6.9
0.0052	0.0465	-0.0173	0.0015	-6.8
0.0045	0.0442	-0.0158	-0.0008	-7.1
0.0022	0.0427	-0.015	0.0052	-7.2
-0.0008	0.0337	-0.012	0.0112	-7.2
0	0.024	-0.0113	0.0127	-7.6
0.0007	0.0195	-0.0083	0.0217	-7.5
0.0015	-0.0338	-0.0038	0.0202	-7.6
0.0045	-0.0878	-0.003	0.0097	-7.8
0.0045	-0.0735	0.0015	0.003	-7.9
0.0015	-0.0503	0.003	-0.0075	-8
0.0007	-0.0285	0.0067	-0.0203	-8.2
0.0007	-0.0053	0.0082	-0.039	-8.2
0.0007	-0.0353	0.0067	-0.0518	-8.5
-0.0015	-0.0773	0.0075	-0.0368	-8.4
-0.0008	-0.0885	0.0045	-0.0181	-8.6
-0.003	-0.0638	-0.0015	-0.0075	-8.7
-0.0015	-0.012	-0.0053	0.0037	-8.8
-0.0015	0.018	-0.003	0.003	-9.1
-0.0015	0.0142	-0.0008	0.0007	-9.1
0.003	0.0037	0.003	0.003	-9.2
0.0037	-0.0023	0.0052	0.006	-9.5
0.006	0.0082	0.0082	0.0127	-9.6
0.0112	0.0172	0.0112	0.0112	-9.7
0.018	0.0142	0.0127	0.0097	-9.9
0.0262	0.0172	0.0142	0.0105	-10
0.0292	0.0157	0.0135	0.012	-10.1
0.03	0.0142	0.012	0.0142	-10.3
0.03	0.0127	0.0105	0.0105	-10.4
0.0285	0.009	0.0082	0.0105	-10.8
0.0255	0.006	0.0075	0.0112	-10.8
0.021	0.0045	0.0052	0.0082	-10.9
0.0157	0.0142	0.0075	0.0082	-11.1
0.0082	0.0157	0.0075	0.0067	-11.3
0.0022	0.009	0.0045	0.0067	-11.6
-0.0008	0.0105	0.0052	0.0045	-11.5
-0.0053	0.0127	0.0045	-0.0075	-11.6
-0.0098	0.0067	0.0015	-0.015	-12
-0.0143	0.0045	0.0007	-0.0158	-12.1
-0.0181	0.0052	-0.0015	-0.0143	-12.3
-0.0195	-0.0105	-0.0023	-0.0091	-12.4
-0.0218	-0.0225	-0.003	-0.0068	-12.5
-0.024	-0.0143	-0.0046	-0.0105	-12.8
-0.0285	-0.0068	-0.0015	-0.0083	-12.8
-0.0285	0.0015	0	0.0052	-13
-0.027	0.0105	0.0007	0.0157	-13.3
-0.024	0.0105	0.0007	0.0142	-13.4
-0.0203	0.0097	0.003	0.0105	-13.8
-0.0195	0.0067	0.0015	0.0052	-13.7
-0.0165	0.0015	-0.0015	0	-14
-0.0181	-0.003	-0.003	0.0007	-14
-0.0195	-0.0068	-0.0046	0	-14.2
-0.0195	-0.0046	-0.0038	0.0022	-14.5
-0.0158	-0.0008	-0.0053	0.0075	-14.6
-0.0143	0.0007	-0.0068	0.0105	-14.9
-0.0128	-0.0015	-0.006	0.012	-15
-0.012	-0.003	-0.0075	0.0075	-15.5
-0.0091	-0.0038	-0.0091	0.0037	-15.7
-0.006	-0.003	-0.0083	0.0007	-15.8
-0.003	-0.003	-0.0068	0.0007	-16.1
0.0022	-0.0015	-0.0075	0.0022	-16.1
0.0045	-0.0008	-0.0083	0.0007	-16.5
0.0007	-0.003	-0.0075	0.0007	-16.5
-0.003	-0.0023	-0.0068	-0.0008	-16.8
-0.0046	-0.0008	-0.0053	0.0022	-16.9
-0.003	0	-0.0068	0.0045	-17.3
0	0.0015	-0.0053	0.0045	-17.4
0.003	0.0007	-0.0023	0.0045	-17.6
0.0045	-0.0008	-0.003	0.003	-17.8
0.0052	0	-0.0015	0.003	-18
0.0045	0	0	-0.0008	-18.2
0.0007	-0.0008	-0.0015	-0.0046	-18.5
-0.0015	-0.0038	-0.0015	-0.0091	-18.8
-0.0015	-0.0053	-0.003	-0.0083	-19
-0.003	-0.0053	-0.0015	-0.0075	-19.4
-0.0008	-0.003	0.0037	-0.0091	-19.4
0.0022	0.0007	0.006	-0.0091	-19.7
0.0007	0.0007	0.009	-0.0128	-20
-0.0015	0.003	0.018	-0.0135	-20.1
-0.0015	0.0067	0.0232	-0.0046	-20.5
-0.0008	0.0082	0.0217	0.0075	-20.6
-0.0008	0.006	0.0225	0.0127	-20.8
-0.0023	0.0045	0.0195	0.0142	-21.1
-0.0053	0.003	0.0157	0.0165	-21.2
-0.012	0.003	0.0127	0.0127	-21.6
-0.0203	0.003	0.0135	0.0045	-21.7
-0.0233	0.0015	0.0127	-0.0015	-22.1
-0.0233	0.0037	0.0105	-0.0015	-22.2
-0.0195	0.0022	0.0082	-0.006	-22.5
-0.0158	-0.0015	0.0067	-0.0135	-22.7
-0.012	-0.0008	0.006	-0.012	-23
-0.0083	-0.003	0.003	-0.0113	-23.1
-0.006	-0.003	0.0015	-0.0083	-23.6
-0.0053	-0.0015	0.0015	0.0007	-23.7
-0.0046	-0.0015	-0.0008	0.003	-23.9
-0.0023	-0.0046	-0.0015	-0.0008	-24.3
-0.0008	-0.0038	-0.0038	0	-24.3
0.003	0.0015	-0.0015	0.0007	-24.7
0.0052	0.0015	-0.0008	0.0015	-24.8
0.0052	0.003	-0.003	0.0082	-25.1
0.0045	0.006	-0.0038	0.0172	-25.2
0.003	0.0052	-0.0046	0.0217	-25.5
0.0045	0.0045	-0.003	0.0157	-25.7
0.0037	0.003	-0.0083	0.0127	-26.1
0.0067	0.0015	-0.0233	0.009	-26.1
0.0067	0	-0.0443	0.0007	-26.3
0.0075	-0.003	-0.0668	-0.003	-26.7
0.0082	-0.003	-0.0885	-0.0015	-26.6
0.0082	-0.0023	-0.1103	-0.0008	-27.1
0.0105	-0.0015	-0.1343	-0.0068	-27.3
0.009	-0.0015	-0.1523	-0.0091	-27.4
0.0075	-0.0038	-0.1613	-0.0053	-27.6
0.0067	-0.0015	-0.1635	0.0007	-27.9
0.0045	-0.0008	-0.156	0.0007	-28.2
0.003	-0.0023	-0.1365	-0.0015	-28.3
0.0045	-0.0038	-0.1058	-0.0015	-28.5
0.003	-0.0053	-0.063	-0.0046	-28.7
0.0007	-0.0038	-0.0218	-0.0038	-28.9
-0.0008	-0.0015	0.0127	-0.0046	-28.9
-0.0023	0	0.0465	-0.0068	-29.3
-0.0015	0.0015	0.0787	-0.0053	-29.5
0	0.0015	0.105	-0.0015	-29.6
0.0007	0.0022	0.1252	0.0007	-29.8
-0.0008	0.0015	0.1395	0	-29.7
-0.0046	0.0022	0.1447	0.0007	-30.2
-0.0075	0.0037	0.1462	0.0015	-30.3
-0.0053	0.0045	0.1455	0.0007	-30.6
-0.0015	0.0015	0.1402	-0.003	-30.7
0	0	0.1342	-0.0046	-31
0.0022	-0.0015	0.1275	-0.0008	-31.1
0.0052	-0.003	0.1185	0.0015	-31.3
0.0067	-0.003	0.1095	0.0067	-31.6
0.006	-0.0046	0.1012	0.0082	-31.6
0.0075	-0.006	0.0982	0.0067	-32
0.009	-0.0083	0.0952	0.0037	-32.1
0.0127	-0.0075	0.09	0.0015	-32.3
0.0135	-0.0046	0.0795	0.0022	-32.5
0.0127	-0.0023	0.0682	0.0007	-32.6
0.0127	0.0022	0.057	0.0082	-32.9
0.0142	0.0067	0.0457	0.0165	-33
0.0142	0.0037	0.036	0.0142	-33.4
0.012	0.0007	0.024	0.0105	-33.4
0.012	-0.0023	0.0127	0.0052	-33.6
0.0127	-0.0038	-0.003	-0.0046	-34
0.0105	-0.0046	-0.0218	-0.0105	-34.2
0.012	-0.0038	-0.0353	-0.0091	-34.7
0.0105	-0.0015	-0.0361	-0.0046	-34.5
0.0105	-0.0008	-0.0143	-0.0068	-34.9
0.0112	0	0.0202	-0.0068	-35.1
0.009	-0.0008	0.0517	-0.0083	-35.4
0.0052	-0.0023	0.0802	-0.0068	-35.6
0.0045	-0.0015	0.102	-0.0053	-35.9
0.006	0.0015	0.114	-0.0038	-36.2
0.009	0.0015	0.1252	-0.0008	-36.3
0.0105	-0.0015	0.1192	0.0007	-36.5
0.0105	-0.0023	0.0975	0.0007	-36.9
0.0105	-0.0015	0.075	0.0015	-37
0.009	-0.0008	0.0315	0.0015	-37.3
0.0052	-0.0008	-0.0278	0.0015	-37.7
0.0045	-0.0008	-0.0833	0.003	-37.8
0.0045	-0.0008	-0.1253	0.0045	-38.3
0.003	-0.0008	-0.1575	0.0045	-38.3
0.0045	0.0015	-0.1883	0.0037	-38.7
0.0052	0.0015	-0.2153	0.0037	-38.9
0.0045	0.0015	-0.2303	0.0037	-39
0.0007	0.0007	-0.2325	0.003	-39.4
-0.0053	-0.0015	-0.2303	0.0015	-39.4
-0.0165	-0.0008	-0.222	-0.0008	-39.7
-0.03	-0.0008	-0.213	-0.0008	-39.9
-0.0368	0.0007	-0.2033	-0.0008	-40.1
-0.0443	0.0015	-0.1845	-0.003	-40.4
-0.0706	0.0015	-0.1635	-0.003	-40.6
-0.1148	0.0007	-0.1403	-0.003	-40.8
-0.126	0	-0.12	0.0007	-40.9
-0.1006	0.003	-0.1028	0.0052	-41.5
-0.0863	0.0045	-0.0848	0.0075	-41.4
-0.0638	0.0045	-0.0698	0.0112	-41.7
-0.0443	0.0037	-0.0578	0.0135	-41.9
-0.0278	0.0045	-0.0503	0.0127	-42
-0.003	0.003	-0.0436	0.0142	-42.4
0.0142	0.0007	-0.0375	0.0157	-42.5
0.0367	0.0007	-0.0338	0.0157	-42.8
0.0562	0	-0.027	0.012	-42.9
0.0675	-0.0038	-0.0188	0.0007	-43.2
0.0727	-0.0068	-0.0068	-0.0098	-43.3
0.0765	-0.0091	0.0067	-0.0128	-43.5
0.075	-0.0068	0.0202	-0.0091	-43.6
0.0652	-0.0046	0.0315	-0.0173	-44
0.0592	-0.0023	0.0412	-0.0375	-44.1
0.0517	-0.0015	0.048	-0.0375	-44.3
0.0472	-0.0015	0.0517	-0.021	-44.5
0.0427	0	0.0577	-0.0113	-44.8
0.0382	0	0.0607	-0.0046	-45
0.0352	0	0.0645	0.003	-45.1
0.0285	0.0015	0.069	0.0007	-45.4
0.0247	0.0015	0.0697	0.003	-45.5
0.0225	0.0007	0.069	0.0082	-45.7
0.018	0.0007	0.0682	0.009	-45.9
0.0142	0.0007	0.0705	0.0082	-46
0.0105	-0.0023	0.0727	0.0075	-46.3
0.0067	-0.0023	0.075	0.006	-46.5
0.0045	-0.0008	0.0765	0.0067	-46.5
0.003	-0.0008	0.078	0.0045	-46.8
0.003	-0.0015	0.0757	0.0037	-47
0.0015	-0.003	0.0727	0.0022	-47.2
-0.003	-0.0015	0.0712	0.0007	-47.3
-0.003	-0.0015	0.072	0.003	-47.4
-0.0046	-0.0008	0.0727	0.0045	-47.7
-0.0053	0.0007	0.0727	0.0067	-47.9
-0.0075	0.0007	0.0705	0.0052	-47.7
-0.0091	0	0.0667	0.0045	-48.1
-0.0113	-0.0008	0.0645	0.0045	-48.2
-0.0143	-0.0008	0.06	0.0045	-48.3
-0.0158	-0.0008	0.0547	0.0067	-48.7
-0.0165	-0.0008	0.0487	0.0082	-48.7
-0.0165	0.0007	0.042	0.0097	-48.8
-0.0181	-0.0008	0.0352	0.0112	-48.9
-0.0195	0	0.027	0.0105	-49
-0.0195	0.0007	0.0217	0.0082	-49.4
-0.0188	0.0007	0.0157	0.0052	-49.4
-0.0195	0	0.0105	0.003	-49.5
-0.0195	-0.0008	0.0045	-0.0008	-49.7
-0.021	-0.0008	-0.0015	-0.0008	-49.8
-0.0203	0.0015	-0.0053	-0.0038	-50
-0.0203	0.003	-0.0135	-0.0068	-50.2
-0.0181	0.003	-0.0165	-0.0075	-50.2
-0.0165	0.0015	-0.0195	-0.0053	-50.4
-0.0143	0.0007	-0.0233	-0.0038	-50.4
-0.0128	0	-0.0256	-0.0023	-50.9
-0.0098	0.0015	-0.03	0.0007	-50.9
-0.0091	0.003	-0.0285	0.0015	-51
-0.0083	0.0007	-0.0323	0.0007	-51.1
-0.0053	0.0007	-0.033	-0.0008	-51.3
0.0015	0	-0.03	0.0007	-51.2
0.012	-0.0046	-0.0323	0.0015	-51.7
0.0105	-0.003	-0.0308	0.0022	-51.6
0.0007	-0.003	-0.0293	0.003	-51.9
0.0045	-0.0015	-0.0293	0.0007	-51.9
0.003	-0.0023	-0.027	0	-52
-0.0015	-0.0046	-0.0256	-0.003	-52.2
-0.006	-0.0053	-0.024	-0.003	-52.3
-0.0083	-0.0083	-0.0225	-0.0038	-52.3
-0.003	-0.0083	-0.0195	-0.003	-52.6
0.0007	-0.0091	-0.0158	-0.0015	-52.6
0.0037	-0.0091	-0.0128	-0.0046	-53
0.003	-0.0068	-0.012	-0.003	-53.1
0.0037	-0.0053	-0.0113	-0.0023	-53.3
0.0037	-0.0015	-0.0105	0	-53.5
0.0007	0.0007	-0.0098	0.003	-53.6
0	0.0015	-0.0075	0.0015	-53.9
-0.0023	0.003	-0.0068	0.0022	-54
-0.0023	0.003	-0.003	0.0022	-53.9
0	0.0045	0.0007	0.003	-54.2
0.003	0.003	-0.0008	0.003	-54.3
0.0015	0.0007	0.0015	0.0045	-54.5
0.0007	0	0.003	0.0045	-54.6
-0.0008	-0.0008	0.0022	0.0045	-54.6
-0.003	0	0.006	0.0037	-54.9
-0.003	0.0015	0.0082	0.0052	-54.8
-0.0015	0.0015	0.0082	0.0052	-54.8
0.0037	0	0.0075	0.003	-55
0.0075	-0.003	0.0075	0.0022	-54.9
0.0105	-0.0038	0.0082	0.003	-55.2
0.0112	-0.0015	0.0075	0.003	-55.3
0.012	-0.003	0.006	0.0015	-55.4
0.0127	-0.0015	0.003	0.0007	-55.4
0.015	-0.0008	0.0007	-0.0015	-55.6
0.0187	-0.0023	-0.003	-0.003	-55.3
0.0187	-0.0015	-0.0046	-0.003	-55.6
0.0172	-0.0008	-0.003	-0.0053	-55.6
0.0142	-0.0015	-0.003	-0.0046	-55.7
0.0112	-0.0015	-0.003	-0.0015	-56
0.009	0.0022	-0.0015	0.0015	-55.8
0.0165	0.0045	0.003	0.0007	-55.8
0.063	0.0045	0.0037	-0.0015	-56
0.1087	0.003	0.0022	-0.003	-55.8
0.0795	0.003	0.006	-0.0015	-56
0.0517	0.003	0.0067	0.0007	-56
0.0367	0.003	0.0075	0.0052	-56.1
0.0105	0.006	0.0052	0.0097	-56
0.0052	0.0075	0.003	0.009	-56.1
-0.0105	0.0052	0.0037	0.006	-56.1
-0.0173	0.0007	0.0037	0.0045	-56.2
-0.0233	-0.0015	0.0015	0	-56
-0.0278	-0.003	0.0022	-0.0015	-56.2
-0.0256	-0.0046	0.0052	-0.003	-56
-0.0293	-0.0068	0.0067	-0.0015	-56.2
-0.0308	-0.0068	0.0082	-0.0008	-56.1
-0.0315	-0.006	0.009	-0.0023	-56
-0.0285	-0.0091	0.0082	-0.0068	-56.2
-0.0315	-0.0083	0.0052	-0.0083	-56.2
-0.033	-0.0053	0.0037	-0.0098	-56.2
-0.0315	-0.003	0.0015	-0.0075	-56.1
-0.0233	-0.0023	-0.0015	-0.003	-56
-0.0158	0	-0.0083	0.0007	-56.5
-0.015	0.0015	-0.0158	-0.003	-56.3
-0.0098	0.0015	-0.0181	-0.0023	-56
-0.012	0.0022	-0.0225	0.0015	-56.1
-0.012	0.003	-0.0263	0.003	-56.2
-0.0091	0.0037	-0.0285	0.006	-55.8
-0.012	0.0045	-0.0293	0.0052	-56.1
-0.0143	0.0015	-0.0293	0.003	-56
-0.0165	0.0015	-0.0285	0.0075	-56.1
-0.0203	0.0007	-0.0278	0.0052	-56
-0.024	-0.0008	-0.027	0.003	-55.8
-0.0248	-0.003	-0.0263	-0.0015	-55.8
-0.0256	-0.0046	-0.0256	-0.0083	-55.8
-0.0285	-0.0046	-0.0218	-0.012	-55.8
-0.0278	-0.0046	-0.0188	-0.0068	-55.9
-0.0308	-0.003	-0.0158	0.0007	-55.6
-0.0315	-0.0008	-0.0128	0.0007	-55.9
-0.033	0.0007	-0.0083	0.0022	-55.7
-0.0353	0	-0.0038	0.003	-55.7
-0.0346	0.0007	-0.0023	0.0022	-55.5
-0.0315	0.0007	-0.0008	0.003	-55.6
-0.0285	-0.0015	0.003	0.003	-55.3
-0.0263	-0.0015	0.0067	0.0045	-55.5
-0.0233	-0.0023	0.0075	0.0015	-55.4
-0.0218	-0.0015	0.0082	0.003	-55.3
-0.0181	-0.0015	0.0112	0.006	-55.2
-0.0143	-0.0008	0.0127	0.0067	-55.2
-0.0105	-0.0008	0.015	0.0052	-55.1
-0.006	-0.0008	0.018	0.0052	-55
-0.0046	0.0007	0.018	0.0045	-55.1
-0.003	-0.0008	0.018	0.003	-54.8
-0.0015	-0.0008	0.018	0.003	-54.9
-0.0015	-0.0015	0.0187	0.003	-54.9
-0.0023	-0.0008	0.0202	0.0037	-54.7
-0.0008	-0.0008	0.0217	0.003	-54.6
0.0007	-0.0008	0.0225	0.0037	-54.5
0.003	0.0015	0.0225	0.0022	-54.5
0.0067	-0.0008	0.0232	0.0015	-54.4
0.0067	-0.0008	0.0217	0	-54.4
0.0082	-0.0023	0.0202	-0.0015	-54.1
0.0097	-0.0008	0.0195	0.0007	-54.1
0.0112	0	0.0195	0	-53.9
0.0135	0	0.0165	-0.0008	-53.8
0.0142	0.0007	0.0172	-0.0008	-53.6
0.0165	-0.0008	0.0165	-0.0008	-53.5
0.0172	0	0.015	-0.0015	-53.5
0.018	-0.0008	0.0135	-0.0015	-53.5
0.0187	0	0.0127	0.0007	-53.3
0.018	0.0007	0.0127	-0.0015	-53.2
0.018	-0.0008	0.0112	-0.0015	-53.1
0.018	0	0.009	0	-53.1
0.0165	0.0007	0.0097	0.0007	-52.9
0.0142	-0.0008	0.009	0.0007	-52.9
0.0157	0.003	0.006	0.003	-52.7
0.0157	0.0015	0.0037	0.003	-52.5
0.0135	0.0015	0.003	0.0045	-52.3
0.0127	0.003	0	0.006	-52.4
0.0127	0.0007	-0.0015	0.009	-52
0.012	0.0007	-0.003	0.0105	-52.2
0.0112	0.0015	-0.0023	0.009	-52
0.0127	0.003	-0.003	0.0067	-51.8
0.0127	0.003	-0.0068	0.0037	-51.8
0.012	0.0007	-0.0083	0.0007	-51.6
0.0142	-0.0008	-0.0113	-0.0038	-51.5
0.012	-0.003	-0.012	-0.0046	-51.3
0.0112	-0.0046	-0.0105	-0.0053	-51.2
0.009	-0.0038	-0.0128	-0.0075	-51
0.0082	-0.0015	-0.0165	-0.0075	-50.9
0.009	-0.0015	-0.0158	-0.0083	-50.9
0.0067	-0.0015	-0.0128	-0.0068	-50.6
0.0052	-0.0015	-0.0143	-0.0046	-50.6
0.0052	0	-0.0128	-0.0015	-50.3
0.0045	-0.0008	-0.0113	-0.0015	-50.4
0.006	-0.0023	-0.0113	0.0007	-50
0.009	-0.0023	-0.0075	0.003	-50
0.0082	-0.003	-0.0053	0.0022	-49.7
0.009	-0.0015	-0.0053	0.0022	-49.6
0.0067	-0.0008	-0.0046	0.0007	-49.6
0.0045	-0.0023	-0.0038	0.0015	-49.4
0.0015	-0.003	-0.0046	0	-49.2
0.003	-0.0053	-0.0046	-0.0008	-49.1
0.0067	-0.0068	-0.0053	0.0007	-48.9
0.009	-0.0038	-0.0053	0.0007	-48.6
0.009	-0.003	-0.0053	0	-48.6
-0.0023	-0.0053	-0.0068	-0.0008	-48.5
-0.012	-0.0046	-0.0053	0	-48.3
-0.0195	-0.0068	-0.0046	-0.0008	-48.1
-0.0248	-0.006	-0.003	-0.003	-47.9
-0.024	-0.006	-0.0015	-0.003	-48
-0.0218	-0.0068	-0.0015	-0.003	-47.6
-0.0165	-0.0038	0.0007	-0.0008	-47.5
-0.0113	-0.003	-0.0023	-0.0015	-47.3
-0.0046	-0.0008	-0.0008	-0.0008	-47.1
0.0067	0.0037	0.0015	0.003	-47
0.0165	0.0052	0.0045	0.0037	-46.9
0.0232	0.0075	0.006	0.0067	-46.6
0.027	0.0097	0.003	0.0067	-46.4
0.0277	0.009	0.003	0.0082	-46.3
0.027	0.0105	0.0037	0.0082	-46.1
0.0277	0.0082	0.0037	0.0067	-45.9
0.0277	0.0037	0.0007	0.0075	-45.7
0.0307	0.003	-0.0015	0.0067	-45.6
0.0397	0.0007	-0.0015	0.0052	-45.4
0.0412	-0.0015	-0.003	0.0015	-45
0.0322	-0.003	-0.003	0.0007	-45.2
0.0315	-0.003	-0.003	-0.0008	-44.8
0.0345	-0.0038	-0.0008	-0.0008	-44.7
0.0382	-0.0046	-0.0008	-0.0015	-44.6
0.0345	-0.0038	-0.0008	-0.0023	-44.3
0.0165	-0.003	-0.0015	-0.003	-44.3
0.0075	-0.0023	-0.0038	-0.003	-43.9
0.0022	-0.003	-0.003	-0.0015	-43.7
0.0067	-0.0015	-0.003	0	-43.7
0.012	-0.0008	-0.0038	0.0007	-43.2
0.015	-0.0008	-0.003	-0.0015	-43.2
0.0195	0	-0.003	-0.0015	-43.1
0.021	0	-0.0038	-0.0008	-42.7
0.0247	0.0015	-0.0046	-0.0008	-42.6
0.027	0.0015	-0.0046	-0.0008	-42.4
0.024	-0.0008	-0.0075	-0.0015	-42.1
0.0172	-0.0015	-0.0098	-0.0015	-42.2
0.0105	-0.0015	-0.0113	0	-41.7
0.0037	0	-0.0128	0.0015	-41.8
-0.0023	-0.0023	-0.0128	0.0007	-41.7
-0.012	-0.003	-0.012	-0.0008	-41.2
-0.021	-0.0046	-0.012	0.0007	-41.1
-0.0278	-0.003	-0.0143	0.0015	-40.9
-0.0338	-0.0015	-0.0143	0.0015	-40.7
-0.0405	-0.0023	-0.0128	0.0007	-40.6
-0.0443	-0.0008	-0.0135	0.0022	-40.3
-0.0465	0	-0.012	0.0007	-40.1
-0.0465	0	-0.0098	0.0015	-40
-0.0458	0.0007	-0.0075	0.0007	-39.7
-0.0443	-0.0008	-0.0053	0	-39.6
-0.045	-0.0015	-0.0046	0.0007	-39.4
-0.0458	0	-0.003	0.0015	-39.1
-0.045	-0.0008	-0.0015	0.0015	-39.2
-0.0458	-0.0015	-0.0023	0.0007	-38.7
-0.0458	-0.0015	0.0007	0.0015	-38.6
-0.0458	-0.0015	0.0022	0.0007	-38.6
-0.0458	-0.0015	0.003	-0.0008	-38.3
-0.0428	-0.0015	0.0052	0	-38.3
-0.0413	-0.0008	0.0067	-0.0008	-37.9
-0.0405	0.0007	0.009	-0.0023	-37.6
-0.0383	0.0007	0.0105	-0.0015	-37.7
-0.0375	0	0.012	0.0007	-37.3
-0.0346	0	0.0127	0.0007	-37.1
-0.0315	-0.0008	0.012	0.0007	-36.9
-0.0278	0	0.012	0.0007	-36.9
-0.0233	0	0.0105	-0.0008	-36.5
-0.021	0	0.0082	-0.0008	-36.5
-0.0195	0	0.0067	0	-36.1
-0.0173	0.0007	0.003	0	-36
-0.0188	0	-0.0023	0.0022	-35.7
-0.0203	-0.0015	-0.0015	0.0015	-35.5
-0.0218	0	-0.003	0.0007	-35.3
-0.0218	-0.0008	-0.0075	0.0007	-35
-0.0195	-0.0008	-0.0068	0.0015	-35
-0.0135	0	-0.0075	0.0015	-34.7
-0.0091	0	-0.0113	0	-34.5
-0.0053	-0.0008	-0.0091	0.0007	-34.5
-0.0015	-0.0008	-0.0091	0.003	-34
0.003	-0.0008	-0.0105	0.0015	-33.8
0.009	-0.0008	-0.0083	0.0007	-33.6
0.0157	-0.0008	-0.0105	0.0015	-33.4
0.0217	-0.0023	-0.0113	0.0015	-33.1
0.027	-0.0008	-0.0091	-0.0008	-33.2
0.0307	-0.0008	-0.0105	0.0007	-32.8
0.0352	-0.0008	-0.0113	0.0007	-32.5
0.0405	0.0015	-0.012	0.0007	-32.2
0.0412	0.0007	-0.0098	0.0007	-32.2
0.0412	0.0022	-0.0083	0.0007	-31.8
0.0442	0.003	-0.006	0.0007	-31.5
0.0465	0.0015	-0.0008	-0.0008	-31.2
0.0442	0.0007	0.0015	0.0007	-31.1
0.0427	0	0.0052	0	-30.7
0.039	-0.0008	0.0052	-0.0015	-30.6
0.036	0	0.0067	-0.0015	-30.2
0.0352	0	0.0082	-0.0008	-30.1
0.0345	0	0.012	0	-29.9
0.033	0.003	0.0157	0.0007	-29.6
0.0307	0.0015	0.0127	0.0015	-29.2
0.0285	0.0007	0.0105	-0.0008	-29.2
0.027	-0.0008	0.0127	0.0007	-28.8
0.0262	-0.0008	0.0127	0.0022	-28.6
0.024	-0.0008	0.012	0	-28.4
0.0195	-0.0008	0.0105	0.0015	-28.1
0.0157	0.0007	0.0082	0.0037	-28
0.0127	-0.0015	0.0045	0.003	-27.7
0.009	-0.0015	0.0045	0.0007	-27.2
0.0067	-0.003	0.003	0.0015	-27.2
0.0075	-0.0023	0.003	0.0015	-26.8
0.0067	-0.0008	0.0022	0.0015	-26.6
0.0067	0.0007	0.003	0.0022	-26.3
0.0052	0.0007	0.0022	0.003	-26.1
0.0052	-0.0008	-0.0008	0.0045	-25.7
0.003	0.0007	0.0022	0.0045	-25.4
-0.003	0.0007	0.0045	0.0037	-25.2
-0.0053	-0.0008	0.0052	0.003	-25
-0.0091	-0.0015	0.0052	0.0022	-24.5
-0.0091	-0.0015	0.0052	0.0007	-24.4
-0.0091	0	0.003	0.0007	-24.1
-0.012	-0.0008	0.0037	0.0007	-23.7
-0.0143	-0.0015	0.006	-0.0008	-23.4
-0.0165	-0.003	0.0075	0	-23.3
-0.0188	-0.0038	0.0052	0	-22.9
-0.0195	-0.003	0.0037	-0.0015	-22.7
-0.0188	-0.003	0.0045	-0.0008	-22.2
-0.0195	-0.003	0.0037	-0.0008	-22.1
-0.021	-0.0015	0.003	-0.0008	-21.9
-0.0188	-0.0015	0.0045	0	-21.5
-0.0195	-0.0008	0.0052	0	-21.2
-0.0188	-0.0015	0.0067	0.0015	-21
-0.0158	0	0.0045	0.0015	-20.7
-0.0143	0.0015	0.0007	0.0015	-20.5
-0.0083	0.0007	-0.003	0.003	-20.1
-0.0023	0.0022	-0.0075	0.0045	-19.8
-0.0008	0.0022	-0.0113	0.0075	-19.7
-0.0008	0.003	-0.0105	0.0082	-19.1
-0.0015	0.0022	-0.0091	0.0082	-19
-0.0015	0.0007	-0.0083	0.0052	-18.6
-0.003	0.0007	-0.0053	0	-18.3
-0.0023	0	-0.0038	-0.0023	-18.2
-0.0015	-0.0015	0.0007	-0.006	-17.6
0	-0.0015	0.0037	-0.0083	-17.4
0.0007	-0.0008	0.0037	-0.003	-17.2
0.0015	-0.0008	0.0037	0	-17
0.003	-0.0008	0.003	0	-16.7
0.0015	0	0.0015	0.0007	-16.2
0.003	-0.0008	-0.0008	0.0007	-15.9
0.003	-0.0008	-0.003	0.0015	-15.8
0.0015	-0.0015	-0.0023	0.0045	-15.4
0.0037	-0.0015	0	0.003	-15.1
0.0052	-0.0015	0.003	0.0015	-14.8
0.0052	-0.0008	0.003	0.0015	-14.6
0.0075	-0.0023	0.0082	0.0015	-14.3
0.009	-0.003	0.0097	0.003	-14.1
0.0082	-0.0038	0.009	0.003	-13.7
0.0052	-0.0046	0.0105	0.0007	-13.5
0.0045	-0.003	0.0112	0	-13.1
0.003	-0.0038	0.0097	0.0007	-13
-0.0008	-0.0023	0.012	0.0015	-12.7
-0.0008	-0.0008	0.0127	0.0015	-12.2
-0.003	-0.0008	0.009	0.0015	-12.2
-0.003	0	0.0082	0.0015	-11.8
-0.0046	0.0007	0.0082	0.0007	-11.6
-0.0053	0	0.0045	0.0015	-11.4
-0.003	0.0007	0.0037	0.0037	-10.9
-0.003	-0.0008	0.003	0.0045	-10.8
-0.003	0	0.003	0.0022	-10.7
-0.0038	0.0007	0.0037	0.0022	-10.4
-0.0046	0.0022	0.003	0.0015	-10.2
-0.0046	0.0015	-0.0015	0.0007	-9.9
-0.0046	0.0007	-0.0015	0.0007	-9.6
-0.003	0	-0.0053	0.0007	-9.6
-0.003	-0.0008	-0.0083	-0.0015	-9
-0.0015	-0.0015	-0.0091	0.0007	-9.1
0.0007	-0.0015	-0.0135	0.0015	-8.8
0.003	-0.0015	-0.0143	0.003	-8.5
0.003	-0.0008	-0.0158	0.0045	-8.3
0.0022	-0.0015	-0.0158	0.003	-8.1
0.003	-0.0015	-0.0165	0.003	-7.9
0.0045	-0.003	-0.0195	0.0007	-7.7
0.0045	-0.0046	-0.0218	-0.0015	-7.5
0.0037	-0.0046	-0.0233	-0.0023	-7.2
0.0097	-0.006	-0.0225	-0.0046	-7.1
0.0165	-0.0046	-0.0181	-0.006	-6.7
0.0225	-0.0008	-0.0143	-0.0053	-6.6
0.03	0	-0.0158	-0.0015	-6.3
0.0345	-0.0008	-0.0165	0.0007	-6.1
0.0345	0.0045	-0.0173	0	-6
0.0307	0.0052	-0.0203	-0.0008	-5.9
0.0247	0.0007	-0.0181	-0.0008	-5.6
0.0187	0.0007	-0.0143	0.003	-5.5
0.012	-0.0015	-0.0128	0.0045	-5.1
0.0075	-0.0015	-0.0113	0.0045	-5
0.0052	-0.0023	-0.012	0.0052	-4.7
0.0067	-0.0023	-0.0128	0.0052	-4.6
0.0075	-0.0008	-0.0098	0.0015	-4.5
0.0045	-0.0068	-0.0105	-0.0075	-4.2
-0.0008	-0.0128	-0.0098	-0.015	-4.1
-0.0046	-0.015	-0.0083	-0.0158	-4
-0.0053	-0.0053	-0.0091	-0.0075	-3.6
-0.0083	0.0007	-0.0098	-0.0023	-3.6
-0.0143	0.0037	-0.0075	0.0007	-3.4
-0.0158	0.0172	-0.0068	0.0037	-3.1
-0.0195	0.0255	-0.006	0.0052	-3
-0.027	0.0247	-0.003	0.0067	-2.7
-0.0346	0.018	0.0007	0.0082	-2.5
-0.0346	0.0082	0.0045	0.0052	-2.5
-0.0346	0	0.0082	0.0045	-2.3
-0.0315	-0.0053	0.0105	0.006	-1.9
-0.0308	0.0015	0.0135	0.0052	-1.9
-0.0308	0.006	0.0142	0.0007	-1.9
-0.0293	0.0015	0.0157	-0.0046	-1.7
-0.0256	-0.0046	0.0165	-0.0098	-1.8
-0.0188	-0.0256	0.018	-0.0105	-1.5
-0.0165	-0.0353	0.0232	-0.0105	-1.4
-0.0165	-0.0218	0.0232	-0.0038	-1.1
-0.0158	-0.0083	0.0255	0.003	-1
-0.0135	-0.0008	0.0262	0.0045	-1.1
-0.0091	0.0075	0.0255	0.0052	-0.9
-0.0068	0.009	0.0255	0.0022	-0.9
-0.003	0.003	0.0172	0.0015	-0.7
-0.003	0.0007	0.0105	-0.0015	-0.5
-0.0068	0.0007	0.0067	-0.003	-0.7
-0.0098	0	0.0022	-0.003	-0.6
-0.0023	0.0007	-0.006	-0.0091	-0.5
0.0045	0	-0.0128	-0.0091	-0.5
0.0045	-0.0015	-0.012	-0.0046	-0.4
0.0067	-0.0008	-0.0105	0.0015	-0.5
0.0097	0.0022	-0.0091	0.0075	-0.3
0.0157	0.0052	-0.003	0.009	-0.3
0.0105	0.0052	0.0022	0.0082	-0.4
-0.0008	0.003	0.0045	0.0075	-0.3
-0.0233	-0.0008	0.012	0.0082	-0.2
-0.0555	-0.0008	0.0232	0.0082	-0.3
-0.0623	-0.0023	0.024	0.0052	-0.2
-0.0443	-0.0053	0.0195	0	-0.4
-0.0256	-0.0068	0.0202	-0.0015	-0.3
-0.0023	-0.0015	0.0142	0.0007	-0.3
0.015	0.0007	0.0045	-0.0023	-0.5
0.0135	-0.0053	0.0007	-0.012	-0.4
0.0045	-0.0091	-0.006	-0.0188	-0.5
-0.0023	-0.0083	-0.0083	-0.0158	-0.6
-0.0075	-0.0008	-0.0203	-0.003	-0.5
-0.0098	0.009	-0.0706	0.0165	-0.5
-0.0083	0.0142	-0.1485	0.024	-0.7
-0.0075	0.0165	-0.2085	0.0165	-0.6
-0.0068	0.018	-0.3165	0.012	-0.8
-0.0023	0.0217	-0.501	0.0067	-0.9
0.0082	0.0225	-0.6045	0.0015	-0.9
0.0172	0.0187	-0.612	-0.0008	-1.1
0.0165	0.0157	-0.5505	0.0007	-0.9
0.0165	0.0142	-0.4028	0.0067	-1.1
0.0097	0.0255	-0.2183	0.0142	-1.2
0.0082	0.033	0.0015	0.0232	-1
0.0135	0.018	0.216	0.0255	-1.4
0.0097	0.0097	0.3915	0.0255	-1.2
-0.0128	0.0337	0.5152	0.0225	-1.4
-0.039	0.0405	0.567	0.0195	-1.5
-0.0278	0.024	0.5722	0.021	-1.5
-0.0113	0.0202	0.54	0.0135	-1.5
-0.0113	0.0157	0.48	0.0052	-1.9
-0.084	0.0097	0.4072	-0.0015	-1.8
-0.2985	-0.0233	0.354	-0.0218	-2.1
-0.489	-0.066	0.3345	-0.0383	-2
-0.6623	-0.0968	0.3232	-0.0563	-2
-0.9518	-0.1193	0.318	-0.0743	-2.4
-1.2278	-0.1313	0.3165	-0.0668	-2
-1.1521	-0.123	0.3015	-0.0405	-2.1
-0.5535	-0.0878	0.2625	-0.027	-2.1
0.135	-0.0653	0.195	-0.0158	-2.2
0.534	-0.0315	0.129	0.0052	-2.7
0.7755	0.0142	0.0817	0.0225	-2.4
0.957	0.0202	0.066	0.0292	-2.6
1.0365	0.0367	0.1222	0.027	-2.8
1.0747	0.0307	0.2167	0.0127	-2.8
1.0605	0.003	0.2857	0.012	-3.1
0.9877	-0.0038	0.291	0.0217	-2.9
0.8797	-0.0023	0.2625	0.0315	-3.1
0.6067	0.0127	0.246	0.0367	-3.3
0.354	0.0165	0.2167	0.027	-3.5
0.2197	0.0247	0.1365	0.0217	-3.4
0.078	0.0322	0.0247	0.0202	-3.5
-0.0068	0.0345	-0.081	0.0127	-3.5
-0.0735	0.0405	-0.1973	0	-3.7
-0.1125	0.0412	-0.2963	-0.0165	-3.7
-0.1006	0.0375	-0.3728	-0.0346	-3.7
-0.1095	0.0285	-0.4388	-0.0436	-3.9
-0.1118	0.024	-0.4785	-0.0338	-4
-0.1463	0.0195	-0.5123	-0.0008	-4.1
-0.1575	0.0172	-0.5423	0.0337	-4.2
-0.1628	0.0225	-0.5611	0.0315	-4.5
-0.1718	0.0142	-0.5648	0.0037	-4.4
-0.1696	-0.0323	-0.5558	-0.033	-4.5
-0.1808	-0.0773	-0.5243	-0.0706	-4.5
-0.1823	-0.0653	-0.4785	-0.0758	-4.8
-0.192	-0.0495	-0.4335	-0.0518	-4.8
-0.1913	-0.048	-0.384	-0.024	-4.8
-0.195	-0.0165	-0.3353	-0.012	-5.1
-0.1958	0.0105	-0.2933	0.0022	-5
-0.183	0.0345	-0.249	0.0442	-5.2
-0.1673	0.057	-0.2033	0.0742	-5.3
-0.1485	0.0427	-0.159	0.0802	-5.4
-0.1358	0.0195	-0.1125	0.075	-5.6
-0.129	0.0007	-0.0728	0.0547	-5.5
-0.129	-0.0015	-0.0436	0.0367	-5.8
-0.1238	0.0067	-0.0218	0.012	-5.9
-0.1215	0.0037	-0.0195	-0.0398	-6.1
-0.1185	-0.0008	-0.0181	-0.0915	-6
-0.1163	0.0052	-0.0091	-0.093	-6.2
-0.1125	0.0345	-0.0091	-0.0346	-6.1
-0.099	0.0532	-0.0046	0.006	-6.3
-0.0728	0.0382	0.009	0.0142	-6.4
-0.0413	-0.0008	0.0427	0.0232	-6.4
-0.0113	-0.0443	0.084	0.0157	-6.7
0.0172	-0.0346	0.1117	0.0127	-6.7
0.0367	0	0.129	0.0165	-6.8
0.0562	-0.015	0.1312	0.0067	-7
0.0765	-0.033	0.129	-0.003	-7
0.0817	-0.0398	0.1297	-0.0143	-7.3
0.0787	-0.0428	0.126	-0.0195	-7.1
0.0855	-0.0203	0.1245	0.0007	-7.3
0.1005	0.0067	0.1297	0.015	-7.5
0.1117	0.0157	0.141	0.012	-7.6
0.1185	0.0202	0.144	0.0195	-7.5
0.1192	0.036	0.1432	0.0217	-7.7
0.1192	0.0457	0.144	0.015	-7.8
0.1162	0.036	0.1365	0	-7.9
0.1095	0.0202	0.1275	-0.0143	-8
0.1065	0.0135	0.1222	-0.0203	-8.1
0.102	0.012	0.1245	-0.024	-8.3
0.093	0.009	0.1275	-0.021	-8.1
0.081	-0.0075	0.1252	-0.0203	-8.5
0.0675	-0.0353	0.1215	-0.0083	-8.6
0.06	-0.0368	0.1072	0.0007	-8.5
0.054	-0.0203	0.0907	0.0045	-8.8
0.0592	-0.0405	0.0817	0.003	-8.8
0.0615	-0.0615	0.0802	0.0067	-8.9
0.0502	-0.027	0.0817	0.0217	-8.9
0.033	0.0052	0.0862	0.021	-9
0.0232	0.0007	0.0915	0.018	-9.1
0.024	-0.0068	0.0967	0.0135	-9.3
0.0247	-0.0323	0.1042	0.0067	-9.4
0.0285	-0.0346	0.111	0.0165	-9.4
0.0315	-0.0128	0.1155	0.0352	-9.6
0.024	-0.0128	0.1125	0.0457	-9.6
0.0105	0.0112	0.105	0.0457	-9.8
-0.0068	0.0675	0.0915	0.048	-9.6
-0.021	0.1027	0.063	0.0285	-9.7
-0.0353	0.114	0.0382	0.003	-9.8
-0.0503	0.1095	0.024	-0.0105	-9.6
-0.0668	0.09	0.0105	-0.021	-9.8
-0.0765	0.0757	-0.0023	-0.03	-9.7
-0.078	0.0487	-0.012	-0.0428	-9.5
-0.075	0.009	-0.0233	-0.0473	-9.5
-0.0765	-0.0293	-0.039	-0.0533	-9.4
-0.0788	-0.0728	-0.0443	-0.0578	-9.3
-0.0638	-0.1283	-0.0368	-0.066	-9.2
-0.0315	-0.2175	-0.0195	-0.0691	-9
-0.0128	-0.2355	0.003	-0.0398	-8.8
-0.0128	-0.129	0.0067	-0.0091	-9
0.0037	-0.06	0.0142	0.0082	-8.6
0.0127	-0.0165	0.0142	0.0112	-8.5
0.009	0.0105	-0.0091	0.0007	-8.3
0.0352	-0.003	-0.0165	-0.0091	-8.3
0.0592	-0.0135	-0.0143	-0.0218	-8.2
0.0577	-0.0436	-0.0135	-0.0135	-8.1
0.0592	-0.0315	-0.0053	0.0067	-7.8
0.0517	-0.0128	-0.0105	0.0187	-7.7
0.009	0.0045	-0.027	0.0337	-7.6
-0.0203	0.0382	-0.0278	0.0465	-7.4
-0.0098	0.0585	-0.0225	0.0622	-7.3
-0.0346	0.099	-0.0128	0.0817	-7.2
-0.1103	0.1335	0.0022	0.0862	-7.1
-0.1088	0.1515	0.0097	0.078	-6.9
-0.0675	0.1672	0.0337	0.069	-6.9
-0.0706	0.1552	0.0405	0.057	-6.9
-0.0825	0.1192	0.0232	0.0352	-6.6
-0.1155	0.123	0.0165	0.0247	-6.7
-0.114	0.1132	-0.0015	0.021	-6.7
-0.0938	0.0555	-0.0225	0.0045	-6.6
-0.0893	-0.027	-0.0518	-0.033	-6.8
-0.0863	-0.1163	-0.0735	-0.075	-6.4
-0.0871	-0.1335	-0.0623	-0.1065	-6.7
-0.0698	-0.186	-0.0405	-0.1403	-6.7
-0.0563	-0.2483	-0.024	-0.1253	-6.8
-0.0428	-0.2295	-0.0203	-0.0578	-6.9
-0.0346	-0.1643	-0.0181	-0.0075	-6.9
-0.027	-0.0563	-0.0165	0.018	-7
-0.0158	-0.0143	-0.0158	0.0405	-7.2
-0.0053	0.0082	-0.0135	0.0675	-7.5
0.0067	0.0277	-0.0188	0.0555	-7.5
0.0127	0.0142	-0.0323	0.009	-7.9
0.0195	0.0165	-0.048	-0.0436	-8
0.0255	0.012	-0.0548	-0.0593	-8.3
0.033	0.0202	-0.0585	-0.033	-8.6
0.0375	0.024	-0.0593	-0.0323	-9
0.0465	0.0292	-0.0578	0.0172	-9.4
0.054	0.0435	-0.0518	0.0705	-9.4
0.048	0.0502	-0.0368	0.0562	-10
0.0405	0.048	-0.0225	0.0225	-10.4
0.039	0.0345	-0.0128	-0.0225	-10.8
0.0337	0.0345	-0.0105	-0.0158	-11.1
0.0202	0.0345	-0.0128	-0.0135	-11.4
0.0142	0.042	-0.0143	-0.0323	-11.9
0.0165	0.054	-0.0165	-0.0023	-12.2
0.018	0.0457	-0.0158	0.03	-12.5
0.024	0.027	-0.0158	0.0277	-12.9
0.0315	0	-0.0135	0.0082	-13.3
0.039	-0.0135	-0.0105	0.0127	-13.3
0.048	0.0045	-0.0046	0.0277	-13.6
0.0465	0.0067	0.003	0.0195	-13.7
0.0427	-0.003	0.003	-0.003	-13.9
0.0427	0.0015	0.0037	-0.024	-14.3
0.0525	-0.0015	0.0105	-0.0458	-14.2
0.054	-0.0008	0.0135	-0.0533	-14.6
0.0367	-0.0023	0.0112	-0.0443	-14.7
0.0217	-0.0068	0.0045	-0.0256	-14.8
0.0105	-0.0135	-0.0083	-0.0046	-14.9
0.0127	-0.0143	0	0	-14.9
0.024	-0.006	0.0127	0.0082	-15.1
0.0157	-0.0008	0.0165	0.012	-15.3
-0.0068	-0.0008	0.0097	0.0112	-15.4
-0.0068	0.0045	-0.0008	0.0262	-15.4
0.0292	0.0292	0.0255	0.0382	-15.5
0.0585	0.0435	0.0465	0.042	-15.4
0.069	0.0502	0.0375	0.0472	-15.6
0.069	0.0585	0.0277	0.0442	-15.4
0.0667	0.0607	0.0202	0.0307	-15.4
0.0525	0.051	0.0097	0.0165	-15.4
0.0307	0.0202	0.003	0.0082	-15.1
0.018	0.0052	-0.0015	0.0022	-15.3
0.0037	-0.0113	-0.0083	-0.0068	-15.1
-0.0083	-0.0578	-0.003	-0.0128	-14.9
-0.0135	-0.096	0.0082	-0.0128	-14.9
-0.0128	-0.0938	0.015	0	-14.6
-0.0195	-0.1013	0.009	0.0067	-14.5
-0.024	-0.1088	-0.0053	0.009	-14.4
-0.0248	-0.0203	-0.0075	0.0262	-14.3
-0.03	0.027	-0.0046	0.0352	-14
-0.0315	0.0195	0.0015	0.0337	-14
-0.03	0.045	0.0007	0.0292	-13.7
-0.0353	0.0652	-0.0165	0.0187	-13.7
-0.0375	0.063	-0.0353	-0.0008	-13.6
-0.0383	-0.0046	-0.0578	-0.0225	-13.4
-0.0465	-0.0038	-0.078	-0.015	-13.4
-0.0503	0.06	-0.0878	-0.0068	-13.2
-0.048	0.0735	-0.0915	-0.0158	-13.3
-0.054	0.0615	-0.0863	-0.0293	-13.1
-0.054	-0.0308	-0.0788	-0.0645	-13.1
-0.0495	-0.2108	-0.0788	-0.0893	-12.8
-0.0503	-0.2408	-0.0923	-0.0653	-12.8
-0.0368	-0.1478	-0.1028	-0.0323	-12.7
-0.0091	-0.1583	-0.0863	-0.0165	-12.6
0.0105	-0.0871	-0.0436	-0.0046	-12.5
0.0157	-0.0158	-0.0105	-0.0053	-12.4
0.0105	-0.0023	0.0015	-0.0075	-12.4
0.003	0.036	0.0135	-0.0015	-12.1
-0.0091	0.0255	0.0255	0.003	-12.1
-0.0068	0.0142	0.039	0	-12.2
-0.0015	-0.0173	0.0547	-0.0015	-11.9
0.0007	0.015	0.0652	0.0142	-12.1
0.0135	0.0592	0.0765	0.0285	-11.9
0.0202	0.0802	0.0975	0.03	-12
0.0225	0.0937	0.117	0.0277	-12
0.0285	0.0675	0.123	0.0202	-11.9
0.0337	0.0615	0.1215	0.006	-11.8
0.0367	0.0562	0.1282	0.0007	-11.8
0.0412	0.0525	0.1312	0.0082	-11.9
0.0465	0.0397	0.1207	0.0112	-12
0.0525	0.027	0.1185	0.0052	-12
0.057	0.0277	0.1132	-0.0053	-11.7
0.0502	0.0352	0.1042	-0.0038	-12
0.042	0.0255	0.0975	0.0037	-11.8
0.033	0.009	0.0892	0.0082	-11.9
0.03	0.0082	0.0817	0.009	-11.9
0.042	-0.0008	0.0712	0.009	-11.7
0.0637	-0.0015	0.057	0.0067	-11.9
0.1597	-0.0046	0.039	0.0007	-11.7
0.3217	-0.0091	0.0217	-0.0038	-11.7
0.3097	-0.0068	0.0045	0.0007	-11.7
0.2107	-0.0038	-0.0165	0.0105	-11.7
0.1905	-0.0038	-0.0353	0.012	-11.6
0.1372	-0.0083	-0.0511	0.0105	-11.7
0.1702	-0.0091	-0.0645	0.0142	-11.7
0.1912	-0.0091	-0.0728	0.0112	-11.5
0.1425	-0.0105	-0.0788	0.009	-11.5
0.141	-0.0113	-0.0863	0.0052	-11.4
0.0712	-0.0113	-0.0878	-0.003	-11.5
0.0067	-0.0113	-0.09	-0.0181	-11.2
-0.0458	-0.0128	-0.0878	-0.0225	-11.3
-0.1125	-0.0105	-0.0773	-0.0091	-11.3
-0.156	-0.0105	-0.0706	-0.006	-10.9
-0.1965	-0.0098	-0.078	-0.0046	-11.1
-0.2108	-0.0105	-0.0833	0.0007	-10.9
-0.2123	-0.0091	-0.0765	0.0015	-10.9
-0.1808	-0.006	-0.075	0.0037	-10.9
-0.15	-0.003	-0.0698	0.003	-10.7
-0.153	-0.003	-0.0555	0.0052	-10.7
-0.1628	-0.003	-0.0346	0.0052	-10.8
-0.1726	-0.0068	-0.024	0.0007	-10.6
-0.1673	-0.0068	-0.0293	0.0037	-10.4
-0.1575	-0.006	-0.0285	0.003	-10.4
-0.1403	-0.0015	-0.0346	-0.0008	-10.4
-0.1253	0.0015	-0.0338	0.0015	-10.5
-0.1163	-0.0008	-0.024	0.003	-10.4
-0.1073	-0.0008	-0.0218	0.0007	-10.2
-0.099	-0.0015	-0.021	-0.0015	-10.3
-0.0945	-0.0015	-0.0233	0.003	-9.9
-0.0893	0	-0.0225	0.0022	-10
-0.0856	-0.0015	-0.0218	-0.0046	-9.8
-0.0818	-0.0015	-0.0278	-0.0008	-9.8
-0.075	-0.0023	-0.0361	0.0112	-9.8
-0.075	-0.0053	-0.0458	0.0127	-9.7
-0.0728	-0.0075	-0.0518	0.0195	-9.7
-0.0713	-0.0008	-0.057	0.024	-9.6
-0.0765	0.003	-0.0653	0.0067	-9.5
-0.0818	0.0007	-0.0713	-0.0143	-9.4
-0.0803	-0.0046	-0.0706	-0.0233	-9.5
-0.0691	-0.0105	-0.06	-0.033	-9.3
-0.0488	-0.0158	-0.0428	-0.0533	-9.5
-0.042	-0.0165	-0.027	-0.0465	-9.3
-0.0465	-0.0105	-0.015	-0.0158	-9.1
-0.0503	-0.0068	-0.0083	0.0007	-9
-0.0473	-0.003	0.003	0.0157	-9
-0.0353	0.0015	0.0172	0.033	-9.2
-0.0248	0.0015	0.0315	0.036	-8.9
-0.015	-0.0008	0.0442	0.027	-9
-0.012	-0.0038	0.0532	0	-8.9
-0.003	-0.0068	0.0615	-0.024	-8.8
0.0075	-0.0015	0.0645	-0.0218	-8.7
0.018	0.0082	0.069	0.0105	-8.5
0.0247	0.012	0.0787	0.0502	-8.5
0.0307	0.0082	0.0847	0.0615	-8.2
0.0457	-0.0023	0.0825	0.0292	-8.6
0.0555	-0.003	0.084	-0.0308	-8.1
0.0652	-0.003	0.0937	-0.0743	-8.3
0.0712	-0.0091	0.0945	-0.078	-8.2
0.0682	0.0007	0.084	-0.0488	-8.1
0.0652	0.0112	0.0727	0	-8
0.0682	0.0195	0.069	0.021	-7.8
0.0675	0.024	0.0675	0.0142	-8.1
0.0615	0.0127	0.0675	0.0142	-7.8
0.0487	0.0037	0.069	0.0007	-7.8
0.0315	-0.003	0.0682	-0.0068	-7.7
0.0232	-0.0023	0.0637	-0.0015	-7.7
0.0307	0.0007	0.0577	0.0045	-7.6
0.0405	-0.0015	0.0532	0.0082	-7.5
0.0352	0.0007	0.0487	0.0045	-7.3
0.027	-0.0008	0.0442	0.0007	-7.2
0.0172	0.003	0.0427	-0.0015	-7.3
0.0097	0.021	0.0382	0.0082	-7.1
0.0045	0.039	0.033	0.0127	-7.2
0.0007	0.0262	0.0285	0.0112	-7
-0.0023	0.009	0.0225	0.0097	-7.2
-0.0038	0.0037	0.018	0.0045	-6.9
-0.0105	-0.0068	0.0127	0.0022	-6.6
-0.0143	-0.0098	0.0067	-0.0008	-6.8
-0.0128	-0.0143	0.0052	-0.0008	-6.6
-0.012	-0.0083	0.003	0.0157	-6.5
-0.0143	-0.0098	-0.0008	0.0255	-6.3
-0.024	-0.0091	-0.0046	0.0202	-6
-0.0338	0.0067	-0.0083	0.015	-6.1
-0.0383	0.006	-0.0113	0.0007	-5.9
-0.042	0.009	-0.0128	-0.0113	-5.9
-0.0428	0.015	-0.0143	0.0105	-5.6
-0.0383	0.0165	-0.0165	0.0262	-5.7
-0.0248	0.0142	-0.0188	0.0097	-5.5
-0.0098	-0.0203	-0.0195	-0.027	-5.4
0.009	-0.0503	-0.0225	-0.054	-5.4
0.0277	-0.0195	-0.0263	-0.042	-5.5
0.0435	0	-0.03	-0.033	-5.3
0.0562	0.0015	-0.0278	-0.0083	-5
0.069	0.021	-0.0323	0.036	-5
0.0787	0.0202	-0.0338	0.039	-4.8
0.084	0.0202	-0.0263	0.024	-4.7
0.0825	0.0172	-0.0278	0.0052	-4.6
0.0712	-0.0008	-0.0278	-0.0143	-4.4
0.0615	-0.0263	-0.0233	-0.0181	-4.2
0.0502	-0.0615	-0.0135	-0.0256	-4.2
0.039	-0.0818	-0.0143	-0.0368	-4.1
0.0285	-0.0518	-0.0218	-0.0405	-4
0.0195	-0.0143	-0.0165	-0.0181	-4.1
0.0142	0.0075	-0.0158	0.003	-3.8
0.0045	0.015	-0.0203	-0.0015	-3.9
-0.003	0.0105	-0.021	0.0142	-3.6
-0.006	0.0345	-0.0256	0.0195	-3.6
-0.0075	0.0382	-0.027	0.0262	-3.7
-0.0068	0.0277	-0.027	0.0442	-3.3
-0.0091	0.024	-0.0278	0.0255	-3.4
-0.0083	0.0045	-0.0308	-0.0091	-3.3
-0.0053	-0.0368	-0.0353	-0.0346	-3.3
-0.0053	-0.0675	-0.039	-0.0233	-3.2
-0.012	-0.0375	-0.0405	0.0045	-3.1
-0.021	-0.0008	-0.0405	0.0135	-3.1
-0.027	0.021	-0.0368	0.0345	-3.1
-0.0346	0.0577	-0.0346	0.0615	-2.9
-0.0383	0.0727	-0.0323	0.042	-2.9
-0.0368	0.075	-0.0361	0.0082	-3.1
-0.0323	0.0705	-0.039	-0.0083	-2.7
-0.0233	0.048	-0.0405	-0.0383	-2.8
-0.0143	0.018	-0.0436	-0.0346	-2.7
-0.006	-0.024	-0.0443	-0.0195	-2.6
-0.0008	-0.0758	-0.0495	-0.021	-2.7
0.0067	-0.1313	-0.0533	-0.0158	-2.5
0.0142	-0.159	-0.0495	-0.0165	-2.5
0.0217	-0.1155	-0.0443	-0.0015	-2.4
0.0277	-0.0428	-0.0413	-0.0053	-2.4
0.0277	-0.015	-0.0383	-0.0083	-2.4
0.0307	-0.0038	-0.0338	0.003	-2.2
0.0292	0.0037	-0.027	0.0007	-2.2
0.0277	0.0105	-0.0218	0.0082	-2.2
0.0337	0.0127	-0.0188	0.009	-2.1
0.039	0.0112	-0.0181	0.012	-1.9
0.0345	0.0187	-0.0173	0.0187	-2.2
0.0352	0.0187	-0.0143	0.0277	-1.8
0.039	0.0195	-0.0083	0.0315	-1.9
0.0367	0.0165	-0.003	0.0157	-1.7
0.0292	0.0157	-0.0008	-0.0008	-1.6
0.015	0.0157	0.0022	-0.0195	-1.7
0.0082	0.0142	0.0105	-0.0195	-1.4
0.0052	0.018	0.0142	0.0082	-1.5
0.0015	0.0165	0.0187	0.0202	-1.4
0.0007	0.015	0.024	0.0082	-1.2
0	0.0112	0.0307	0.003	-1.4
-0.0015	0.0097	0.0382	-0.0008	-1.3
-0.0053	0.0082	0.045	-0.0046	-1.2
-0.0083	0.0067	0.0495	-0.0046	-1
-0.015	0.003	0.048	-0.0158	-0.9
-0.0233	0.003	0.0502	-0.012	-1
-0.0293	0.0082	0.0517	-0.0008	-1
-0.0308	0.009	0.0502	0.0022	-0.8
-0.0323	0.0067	0.0525	0.0045	-0.9
-0.039	0.0067	0.0517	0.0015	-0.8
-0.0503	0.0045	0.0525	0.003	-0.7
-0.0615	0.003	0.0525	0.0045	-0.8
-0.0593	0.0015	0.0532	0.003	-0.6
-0.0495	0.0007	0.0555	0.0015	-0.6
-0.0353	0.0015	0.0555	0.0007	-0.4
-0.024	0.0015	0.0532	0.0015	-0.3
-0.0203	-0.0008	0.0525	0.003	-0.5
-0.0158	-0.0046	0.0502	0.0045	-0.2
0.006	-0.0023	0.048	0.0045	-0.3
0.0352	0	0.0495	0.003	-0.3
0.06	-0.0008	0.0465	0.0022	-0.3
0.0802	-0.0015	0.042	0.003	0
0.093	-0.0015	0.042	0.0022	-0.1
0.0975	-0.003	0.0382	0.0007	0
0.096	-0.003	0.036	-0.0015	-0.1
0.0877	-0.0046	0.033	-0.0015	0
0.078	-0.0023	0.0292	-0.0015	0.1
0.066	-0.0008	0.0255	-0.0008	0.1
0.0517	-0.0008	0.0232	0	0.4
0.0375	0.0007	0.0165	0.0007	0.1
0.0277	0	0.0127	0.0015	0.4
0.0225	0.0007	0.0105	0.0015	0.3
0.0217	0.0007	0.0045	-0.0008	0.2
0.0202	-0.0023	-0.0015	-0.003	0.4
0.0135	-0.0046	-0.0046	-0.0023	0.4
0.003	-0.003	-0.0098	-0.0015	0.4
-0.0075	-0.003	-0.0188	-0.0015	0.5
-0.0046	-0.0015	-0.0263	-0.0008	0.5
0.0015	-0.0015	-0.0323	-0.0008	0.4
0.003	-0.003	-0.0315	0.0007	0.7
0.0015	-0.0015	-0.0346	0.0015	0.6
-0.0068	-0.0015	-0.0383	0.0007	0.7
-0.015	-0.0023	-0.0368	-0.0015	0.6
-0.0195	-0.003	-0.0398	-0.0023	0.5
-0.0256	-0.0046	-0.0361	-0.003	0.8
-0.0346	-0.0038	-0.0346	-0.0015	0.9
-0.0443	-0.003	-0.0405	0.0007	0.9
-0.0518	-0.0053	-0.0495	0.0007	0.9
-0.0405	-0.003	-0.048	0.003	0.7
-0.0165	0.0007	-0.0398	0.0052	0.9
-0.0075	0	-0.0398	0.0037	0.9
-0.0098	-0.0008	-0.0375	0.0015	0.9
-0.0158	-0.003	-0.0383	-0.0008	1
-0.0218	-0.0038	-0.0368	-0.0015	0.9
-0.021	-0.003	-0.0361	-0.0015	0.9
-0.0256	-0.0046	-0.0353	-0.0038	1
-0.0346	-0.006	-0.0278	-0.0068	0.9
-0.0405	-0.0023	-0.0218	-0.0038	1
-0.0338	0.0037	-0.0083	0	1
-0.0233	0.0052	0.0052	-0.0008	1
-0.0203	0.003	0.0067	-0.0008	1.2
-0.024	-0.0008	-0.0015	-0.0015	0.9
-0.0278	0.0015	-0.003	0.0007	1.2
-0.0203	0.0015	-0.0015	0.0015	1
-0.0083	0.0015	-0.0015	0.0022	1.1
-0.0075	-0.0008	0	0.0015	1.2
-0.0083	-0.0015	-0.0015	-0.0015	1.1
-0.0053	-0.0008	-0.0015	-0.0008	1
-0.0091	-0.0015	-0.003	0.0007	1.2
-0.0083	0.003	-0.0023	0.0045	1.3
-0.0068	0.0037	-0.0015	0.0037	0.9
-0.0098	-0.0008	-0.006	0.003	1.2
-0.003	-0.0015	-0.0053	0.0015	1
-0.0015	-0.0023	-0.0046	-0.0008	1.3
0	-0.0015	-0.0046	0	1.1
-0.0015	0.0007	-0.006	-0.0008	1.1
-0.0098	0.003	-0.0083	-0.0015	1.3
-0.0165	0.0097	-0.012	-0.0008	1
-0.0173	0.0127	-0.0135	0	1.3
-0.012	0.0127	-0.0143	0.0015	1.1
-0.0135	0.0142	-0.0128	0.003	1.2
-0.0105	0.0112	-0.0128	0.0052	1.1
-0.0075	0.009	-0.0128	0.0045	1
-0.0068	-0.0083	-0.012	0.003	1.1
-0.0038	-0.0405	-0.0135	0.0022	1.1
-0.0046	-0.0278	-0.0128	0.0045	1
-0.0053	0.0067	-0.0128	0.0052	1.2
-0.0068	0.0015	-0.012	0.0022	1.2
-0.0075	-0.0008	-0.0128	0.0007	1.1
-0.0053	-0.0195	-0.012	-0.0008	1.1
-0.0015	-0.033	-0.0113	-0.0015	1
0.0007	-0.0188	-0.0143	-0.0053	1.2
0	-0.0105	-0.012	-0.0098	1.2
-0.0015	-0.0015	-0.012	-0.006	1
-0.0023	0.0015	-0.012	0.003	1.2
0.0007	0.0052	-0.0128	0.009	1.1
0.0045	0.0015	-0.0128	0.0082	1.2
0.006	-0.0023	-0.0135	0.003	1.1
0.0105	-0.003	-0.012	-0.0015	1.1
0.0127	-0.0023	-0.0068	-0.0038	1.2
0.0127	-0.0008	-0.0038	-0.0195	1.3
0.0127	0.0015	-0.0008	-0.0256	1.2
0.0127	0.0127	0.0022	0.0007	1.2
0.0127	0.0202	0.0045	0.0142	1.2
0.0067	0.0202	0.0045	0.0075	1
0.0015	0.012	0.0052	0.0045	1.3
0.0007	0.0067	0.0067	-0.003	1.1
0.0037	0.003	0.0097	-0.0083	1.2
0.0052	0.0022	0.0157	-0.003	1.3
0.006	0.0067	0.0187	0.0082	1.1
0.009	0.0082	0.0187	0.0142	1.2
0.012	0.009	0.0187	0.0202	1.1
0.015	0.006	0.0202	0.018	1.1
0.0127	0.0007	0.0217	0.006	1.1
0.0105	-0.003	0.0195	-0.0053	1
0.0075	-0.0075	0.0187	-0.0195	1.1
0.0067	-0.0053	0.0187	-0.024	1
0.009	-0.0015	0.018	-0.0068	1
0.012	0.0022	0.0165	0.0127	1.1
0.0142	0.003	0.0135	0.024	1
0.0157	0.0015	0.012	0.0315	1.1
0.015	0	0.0112	0.024	1.1
0.0112	-0.0046	0.009	0.0015	1
0.0067	-0.0083	0.009	-0.0128	1.3
-0.0008	-0.0091	0.0105	-0.0128	1
-0.0053	-0.003	0.009	0.0022	1.1
-0.0023	0.0045	0.0052	0.0255	1.2
-0.0023	0.0075	-0.0008	0.0277	1
-0.0015	0.006	-0.0046	0.0232	1.3
-0.0038	0.0015	-0.0105	0.0052	1.1
-0.012	-0.0075	-0.0165	-0.0308	1
-0.0233	-0.0158	-0.015	-0.0511	1
-0.0188	-0.015	-0.0128	-0.0503	1.1
-0.0091	-0.0083	-0.012	-0.0346	1.1
-0.012	-0.0046	-0.0143	-0.0105	1.1
-0.0105	-0.0015	-0.0135	0.0045	1.1
-0.0105	0	-0.0091	0.0082	1.1
-0.0135	0.0007	-0.012	0.0142	1.1
-0.0188	0.0045	-0.0128	0.0142	0.9
-0.0465	0.0007	-0.0128	0.0052	1.3
-0.1155	-0.0023	-0.0128	-0.003	1
-0.1478	-0.0023	-0.0068	-0.0008	1.2
-0.1253	-0.0015	-0.0015	0.0067	1.3
-0.1238	0.0007	0.0007	0.0157	1
-0.1065	0.0007	0.0082	0.0142	1.3
-0.0953	-0.0015	0.0075	-0.0083	1.3
-0.0953	-0.003	0.0015	-0.0143	1.3
-0.099	0.0007	-0.0038	-0.012	1.1
-0.126	0.0037	-0.0113	-0.0233	1.1
-0.1478	0.0052	-0.0181	-0.012	1.3
-0.1628	0.0052	-0.0218	0.0082	1.2
-0.147	0.0045	-0.0225	0.009	1.2
-0.1448	0.0015	-0.0203	0.0105	1.3
-0.1298	0	-0.0158	0.0082	1.3
-0.0743	-0.003	-0.0098	0.0052	1.1
0.018	-0.0046	-0.006	0.0052	1.3
0.1372	-0.0023	-0.0046	-0.0008	1.3
0.2062	-0.0008	-0.0083	0.006	1.3
0.2437	0.0052	-0.0098	0.0127	1.1
0.249	0.0105	-0.0068	0.0127	1.3
0.2182	0.0105	-0.0038	0.0157	1.4
0.186	0.0015	0.0007	0.0105	1.3
0.1605	-0.0105	0.009	0.009	1.5
0.1357	-0.0068	0.0157	0.0217	1.4
0.1215	-0.0008	0.0247	0.018	1.3
0.1297	-0.0046	0.03	0.0082	1.4
0.1282	-0.0038	0.0322	-0.0038	1.4
0.129	-0.0053	0.0367	-0.0233	1.3
0.1312	-0.0075	0.0397	-0.03	1.3
0.1207	-0.0075	0.0427	-0.0188	1.4
0.1095	-0.003	0.0465	-0.0083	1.1
0.0967	0.0037	0.0555	-0.0008	1.4
0.0832	0.0067	0.0562	0.003	1.3
0.0705	0.0052	0.0502	0.0015	1.3
0.0607	0.0015	0.045	0.003	1.3
0.0502	0	0.0382	0.0067	1.2
0.0435	-0.0008	0.0352	0.0105	1.4
0.0382	-0.003	0.0262	0.0105	1.2
0.0315	-0.0091	0.0195	0.0075	1.3
0.0292	-0.0203	0.0165	-0.0083	1.3
0.0217	-0.024	0.0105	-0.0165	1.3
0.018	-0.0158	0.009	-0.0083	1.2
0.021	-0.0083	0.009	0.0007	1.3
0.018	0.0007	0.0127	0.0112	1.2
0.0052	0.0105	0.0127	0.024	1.3
-0.0068	0.0105	0.0037	0.018	1.2
-0.0195	0.0075	-0.003	0.0052	1.2
-0.0315	0.0015	-0.0105	-0.003	1.2
-0.0443	-0.0038	-0.0158	-0.0113	0.9
-0.054	-0.0053	-0.0181	-0.0083	1
-0.0578	-0.0038	-0.0165	-0.0015	1
-0.0638	-0.0023	-0.0158	-0.0023	0.9
-0.0691	-0.0008	-0.0256	0.0052	1.1
-0.0735	0.0045	-0.0413	0.0142	1
-0.0773	0.0052	-0.063	0.015	1
-0.078	0.0067	-0.084	0.0112	0.9
-0.078	0.0075	-0.099	0.0045	1.1
-0.0765	-0.0008	-0.1125	-0.0015	1
-0.0735	-0.0023	-0.1215	0.0007	1
-0.0683	-0.0015	-0.126	0.0007	0.9
-0.063	-0.003	-0.1215	-0.0083	1.1
-0.0585	-0.0038	-0.1103	-0.0128	0.9
-0.0503	-0.0068	-0.0938	-0.0225	0.9
-0.045	-0.0068	-0.075	-0.0233	1
-0.0398	-0.0091	-0.0525	-0.024	0.9
-0.033	-0.0128	-0.03	-0.0308	0.9
-0.0256	-0.0053	-0.0091	-0.0181	1.1
-0.0203	0.0045	0.0127	-0.0068	0.9
-0.0165	0.0052	0.03	0.0045	0.9
-0.0128	0.0067	0.048	0.0337	0.8
-0.012	0.0127	0.066	0.0622	1
-0.0098	0.0157	0.0817	0.0637	0.9
-0.0083	0.0097	0.0937	0.0337	0.9
-0.0053	-0.006	0.0952	-0.0225	0.9
-0.0015	-0.0181	0.0975	-0.0608	0.9
0.003	-0.0375	0.0967	-0.0495	0.9
0.0052	-0.0413	0.0915	-0.0158	1.1
0.0067	0	0.09	0.0105	1
0.0105	0.033	0.0862	0.0195	0.9
0.012	0.0307	0.0787	-0.0015	1
0.0135	0.0165	0.0652	-0.0181	0.9
0.0135	0.0142	0.054	-0.0068	0.9
0.012	0.0022	0.0442	-0.0083	1.1
0.0075	-0.0383	0.0315	-0.0068	0.9
0.006	-0.0608	0.0157	-0.0023	1
0.009	-0.054	0.0007	-0.0091	0.9
0.012	-0.0308	-0.0105	-0.0105	0.9
0.0187	0.012	-0.0278	-0.012	0.9
0.0202	0.039	-0.0368	0.0007	0.9
0.0165	0.0427	-0.042	0.0217	0.9
0.0157	0.0532	-0.0458	0.0277	0.8
0.0097	0.018	-0.0503	0.0127	0.8
0.0142	-0.015	-0.0555	-0.0083	0.8
0.0277	-0.0181	-0.0533	-0.0256	0.9
0.0345	-0.0165	-0.0533	-0.039	0.7
0.0427	-0.003	-0.0495	-0.0165	1
0.0517	0.0082	-0.039	0.0195	0.7
0.0645	0.0277	-0.0308	0.0292	0.9
0.0577	0.033	-0.024	0.0337	0.9
0.0405	0.0315	-0.0173	0.036	0.7
0.0307	0.027	-0.0195	0.0322	0.9
0.0142	0.0247	-0.0248	0.027	0.7
0.0052	0.0262	-0.0263	0.021	0.9
-0.0038	0.0142	-0.0293	0.0127	0.7
-0.0083	-0.0091	-0.0293	0.0007	0.7
-0.0075	-0.0353	-0.0285	-0.003	0.8
-0.0068	-0.0413	-0.0285	-0.0023	0.7
-0.012	-0.033	-0.03	-0.003	0.6
-0.0158	-0.0293	-0.0285	-0.0091	0.7
-0.0181	-0.0473	-0.0263	-0.0165	0.6
-0.024	-0.0308	-0.0248	-0.0181	0.4
-0.0256	0.003	-0.021	-0.0233	0.7
-0.0128	-0.0053	-0.0158	-0.0195	0.6
0.0712	0.003	-0.0113	-0.0053	0.6
0.1785	0.0022	-0.0075	0.0097	0.8
0.1522	-0.0083	-0.0023	0.0232	0.5
0.093	-0.0143	0	0.0202	0.8
0.069	-0.0091	0	0.0187	0.5
0.0195	0.0082	0.003	0.0195	0.6
0.0045	0.003	0.003	0.0045	0.5
-0.0173	0.0052	0.0007	-0.006	0.6
-0.0315	-0.0008	0.003	-0.0098	0.7
-0.0413	-0.003	0.006	-0.021	0.7
-0.0608	-0.006	0.012	-0.0361	0.5
-0.0638	-0.0015	0.018	-0.0443	0.5
-0.0713	0.0045	0.0195	-0.0353	0.6
-0.0615	0.0022	0.0225	-0.0248	0.4
-0.057	0.0082	0.0255	-0.0195	0.6
-0.0465	0.0112	0.0232	-0.0053	0.4
-0.033	0.0202	0.0217	0.015	0.4
-0.0195	0.0202	0.021	0.0277	0.5
-0.0165	0.0172	0.0202	0.0262	0.4
-0.0195	0.0127	0.0217	0.0202	0.5
-0.0105	0.0082	0.027	0.0172	0.5
0.012	0.009	0.0345	0.0082	0.4
0.033	0.006	0.0382	-0.0091	0.4
0.024	0.0052	0.0382	-0.0128	0.4
0.018	-0.0015	0.0352	-0.0023	0.4
0.0052	-0.003	0.0315	0.009	0.4
-0.0098	-0.0135	0.0247	0.0097	0.4
-0.0173	-0.0135	0.0195	0.0097	0.4
-0.0218	0.0022	0.0157	0.0135	0.4
-0.0158	0.0015	0.009	0.0142	0.3
-0.0158	0.006	0.006	0.0142	0.5
-0.0165	0.0075	0.0052	0.0112	0.2
-0.0278	0.0067	0.0037	0.0127	0.4
-0.03	0.009	0.0052	0.0157	0.2
-0.0285	0.0052	0.0037	0.0112	0.1
-0.0383	0.0045	0.0015	0.009	0.4
-0.0413	0.0007	0.0007	0.003	0.1
-0.0488	0	0.0007	0.003	0.2
-0.0495	-0.0015	0.0015	0.0052	0.1
-0.048	-0.0015	0.0022	0.0022	0
-0.0503	-0.0015	0.003	0.003	0
-0.0525	-0.0023	0.006	0.0052	0
-0.0518	-0.003	0.0075	-0.003	-0.2
-0.0518	-0.0068	0.0067	-0.015	0
-0.0518	-0.0091	0.006	-0.024	0
-0.0518	-0.0113	0.006	-0.0278	-0.1
-0.0533	-0.0105	0.0052	-0.0256	0
-0.0518	-0.0053	0.0067	-0.0143	-0.3
-0.0503	-0.0023	0.009	-0.006	-0.2
-0.0495	-0.003	0.0082	-0.0083	-0.3
-0.0488	-0.0053	0.0067	-0.0068	-0.3
-0.0465	-0.006	0.0082	0	-0.3
-0.0428	0.0037	0.0067	0.012	-0.5
-0.039	0.012	0.0082	0.024	-0.3
-0.0308	0.018	0.006	0.033	-0.5
-0.0233	0.0285	0.0045	0.027	-0.5
-0.012	0.042	0.0037	0.0142	-0.5
-0.003	0.0592	0.0045	0.0127	-0.5
0.0007	0.0465	0.006	-0.0015	-0.7
0.0045	0.0045	0.003	-0.021	-0.5
0.006	-0.0293	0.0022	-0.0308	-0.8
0.009	-0.045	0.003	-0.0308	-0.6
0.012	-0.0383	0.0007	-0.0315	-0.7
0.0135	-0.0353	0	-0.0518	-0.8
0.0135	-0.0653	-0.0008	-0.0443	-0.8
0.0142	-0.084	-0.003	-0.0165	-1
0.0157	-0.0495	-0.0068	0.003	-0.9
0.015	-0.0135	-0.0091	0.024	-0.9
0.0142	-0.003	-0.0105	0.0247	-1.2
0.0172	0.006	-0.0098	0.03	-1
0.0195	0.0105	-0.0128	0.0307	-1.3
0.0172	0.0135	-0.012	0.0217	-1.3
0.0165	0.0127	-0.0105	0.0232	-1.2
0.0172	0.0127	-0.0113	0.018	-1.2
0.018	0.012	-0.0105	0.012	-1.4
0.0187	0.0082	-0.0105	0.003	-1.4
0.0195	0.0045	-0.0113	-0.003	-1.4
0.018	0.0015	-0.0128	-0.0068	-1.5
0.0157	0.003	-0.012	-0.0046	-1.5
0.0165	0.0045	-0.0091	-0.0008	-1.6
0.018	0.0067	-0.0068	0.0007	-1.4
0.0187	0.0097	-0.0038	0.003	-1.7
0.018	0.009	-0.0053	0.0015	-1.5
0.018	0.0097	-0.0046	0.003	-1.7
0.021	0.0052	-0.003	0.003	-1.8
0.0217	0.003	-0.0038	0.003	-1.6
0.021	0.0022	-0.0053	0.0082	-1.7
0.0187	0.0112	-0.0075	0.0127	-1.9
0.0157	0.021	-0.0098	0.0142	-2
0.0142	0.021	-0.0105	0.0082	-2
0.0127	0.0195	-0.0105	0.0037	-2.1
0.0105	0.0165	-0.0105	-0.0015	-2
0.0067	0.009	-0.0091	-0.0105	-2.3
0.006	-0.0143	-0.0068	-0.0256	-2.1
0.0052	-0.0503	-0.003	-0.0285	-2.2
0.0045	-0.0593	-0.0008	-0.021	-2.2
-0.0008	-0.0225	0.003	-0.0083	-2.2
-0.0075	0.0285	0.0067	0.021	-2.4
-0.0083	0.0765	0.0112	0.0405	-2.3
-0.003	0.1005	0.012	0.0465	-2.3
0.0105	0.0915	0.009	0.0322	-2.4
0.024	0.0645	0.0067	0.003	-2.5
0.039	0.003	0.0022	-0.0195	-2.6
0.0525	-0.0758	0	-0.03	-2.6
0.0577	-0.105	-0.0053	-0.0263	-2.6
0.0607	-0.0848	-0.006	-0.0285	-2.6
0.057	-0.0945	-0.0068	-0.0346	-2.8
0.0495	-0.1223	-0.0075	-0.0338	-2.8
0.0405	-0.0743	-0.006	-0.0165	-3
0.033	-0.0195	-0.0046	0	-3
0.0277	-0.0218	0.0022	0.0015	-3
0.0225	-0.015	0.0112	0.0045	-3.1
0.0172	0.0037	0.0127	0.0075	-3.1
0.0105	0.0232	0.009	0.0105	-3.2
0.0037	0.039	0.0082	0.0105	-3.2
-0.0015	0.0315	0.0045	0.0082	-3.2
-0.0075	0.0255	-0.0008	0.012	-3.3
-0.0105	0.0292	-0.0015	0.0105	-3.3
-0.0143	0.0307	-0.0023	0.009	-3.6
-0.0203	0.0135	-0.003	0.0037	-3.5
-0.024	-0.024	-0.003	-0.003	-3.6
-0.0278	-0.042	-0.003	-0.0038	-3.6
-0.0308	-0.03	-0.003	-0.0046	-3.7
-0.0293	-0.0218	0.0007	-0.003	-3.5
-0.0285	0.003	0.003	0.0015	-3.7
-0.0256	0.0082	0.0007	0.0045	-3.7
-0.0233	0.0082	-0.003	0.0052	-3.9
-0.0225	0.018	-0.003	0.0045	-3.9
-0.0195	0.0157	-0.003	0.0067	-3.9
-0.0158	0.0195	-0.003	0.006	-4
-0.0098	0.0052	-0.0015	0.0052	-4
-0.0068	0.0082	0.0007	0.0105	-4.2
-0.006	0.012	0.0007	0.0097	-4.2
-0.0053	0.0127	0.003	0.0067	-4.2
-0.0083	0.0165	0.003	0.0045	-4.4
-0.012	0.0105	0.0007	0	-4.5
-0.0143	0.0075	0	-0.0053	-4.5
-0.0158	0.0045	-0.0023	-0.0135	-4.6
-0.0158	0.0067	-0.0075	-0.0158	-4.8
-0.0173	0.006	-0.0128	-0.0143	-4.7
-0.0188	0.0075	-0.0158	-0.0075	-5
-0.0203	0.0052	-0.0195	0.003	-4.9
-0.0181	0.006	-0.0233	0.0075	-5
-0.0165	0.0052	-0.0218	0.0075	-5.1
-0.0128	0.0015	-0.0218	0.0045	-5
-0.0083	-0.0008	-0.015	-0.0008	-5.4
-0.003	-0.003	-0.0105	-0.0008	-5.3
0.0007	-0.0015	-0.0053	0.0015	-5.4
0.0052	0.0015	0.0007	0.0015	-5.4
0.009	0.0022	0.0007	0.0007	-5.4
0.0105	0.0052	0.0022	0.0075	-5.6
0.0112	0.0045	0.0052	0.0142	-5.6
0.0112	0.0022	0.009	0.0165	-5.6
0.0135	0.0015	0.009	0.0127	-5.9
0.012	-0.0008	0.0082	0.0067	-5.9
0.0112	-0.0023	0.009	0.0052	-5.9
0.012	-0.0015	0.0075	0.0052	-6.1
0.012	-0.0015	0.0075	0.003	-6.2
0.0097	-0.0046	0.006	0	-6.3
0.0067	-0.0053	0.0037	-0.003	-6.4
0.0015	-0.0053	0.0015	-0.0068	-6.3
-0.0083	-0.0046	0.0022	-0.0053	-6.7
-0.0158	-0.003	0.0015	-0.0038	-6.6
-0.0181	-0.003	0.0022	-0.0053	-6.8
-0.0173	-0.0046	0.0007	-0.0053	-6.9
-0.0165	-0.0023	0.0007	-0.0053	-6.8
-0.0105	-0.0015	0.003	-0.003	-7.1
-0.0038	-0.0068	0	-0.003	-7.3
0.009	-0.0098	-0.0023	-0.0046	-7.2
0.024	-0.0098	-0.0023	-0.003	-7.3
0.039	-0.006	-0.0008	-0.0015	-7.4
0.0517	-0.0053	0.0022	0.003	-7.3
0.0637	-0.0046	0.0015	0.0067	-7.8
0.072	-0.003	-0.0008	0.0052	-7.6
0.0667	-0.003	-0.003	0.0075	-7.8
0.0577	-0.0008	-0.0075	0.0105	-8.1
0.0442	-0.0008	-0.0105	0.006	-8.1
0.0307	0.0015	-0.012	0.0015	-8.2
0.0165	0	-0.0128	-0.0083	-8.2
0.0007	0	-0.012	-0.0091	-8.3
-0.0068	0.0067	-0.0105	-0.0015	-8.8
-0.0091	0.0082	-0.0113	-0.0015	-8.7
0.0022	0.0052	-0.0105	-0.0008	-8.9
0.0345	-0.0008	-0.0091	0.0015	-8.8
0.0675	-0.0015	-0.0091	-0.0008	-9
0.06	-0.0015	-0.0091	-0.0015	-9
0.024	-0.0008	-0.0098	-0.003	-9.4
-0.006	-0.0008	-0.0091	-0.0046	-9.4
-0.0248	-0.0046	-0.0083	-0.0046	-9.4
-0.0248	-0.0038	-0.0053	-0.0046	-9.5
-0.0256	-0.0046	-0.003	-0.0053	-9.7
-0.033	-0.0008	-0.0015	-0.0053	-9.8
-0.0203	-0.0008	0.0015	-0.003	-9.9
0	-0.0015	0.0045	0.0022	-10.2
0.0247	0	0.0045	0.0015	-10.2
0.042	0.0007	0.006	0.0007	-10.4
0.0465	0.0007	0.0052	0.0007	-10.5
0.0457	0.0007	0.0037	-0.0023	-10.6
0.0337	0.0015	0.003	-0.0015	-10.8
0.0195	0	0.0045	0	-11
0.003	0.0007	0.0052	0.0045	-11.2
-0.0128	-0.0008	0.006	0.0052	-11.3
-0.0293	-0.0008	0.0067	0.0045	-11.3
-0.0368	-0.0015	0.0112	0.0075	-11.4
-0.0413	-0.003	0.0127	0.0067	-11.7
-0.0465	-0.0038	0.009	0.006	-11.7
-0.0465	-0.0053	0.0067	0.003	-12
-0.0465	-0.0046	0.006	-0.0015	-12.2
-0.0428	-0.0046	0.0082	-0.0053	-12.1
-0.0405	-0.0038	0.0075	-0.0023	-12.5
-0.042	-0.0023	0.0052	0.0015	-12.4
-0.0405	-0.003	0.006	0.0022	-12.8
-0.0368	-0.0023	0.0022	0.0045	-13
-0.033	-0.0015	0.003	0.0052	-13
-0.0308	-0.0008	0.0045	0.0045	-13.3
-0.0278	0	0.0052	0.0022	-13.2
-0.0263	-0.0015	0.0067	0.0015	-13.6
-0.0218	-0.0015	0.003	0.0022	-13.7
-0.0181	-0.0023	0.0015	0.0022	-13.9
-0.0143	-0.0008	0.0007	0.0015	-14
-0.0165	0.0007	0.0007	0.0022	-14
-0.0195	-0.0015	0.0007	0.0022	-14.3
-0.0143	-0.0053	-0.0038	-0.0008	-14.5
-0.0098	-0.0068	-0.0038	-0.0038	-14.7
-0.0046	-0.0053	-0.0008	-0.003	-14.8
0.0015	-0.0023	-0.0008	-0.0038	-15.1
0.0082	-0.0008	-0.0015	-0.0046	-15.2
0.012	-0.0008	-0.003	-0.0008	-15.4
0.0112	-0.0015	-0.0046	0.0045	-15.6
0.0142	-0.0015	-0.0023	0.0082	-15.6
0.0165	-0.003	-0.0015	0.009	-15.9
0.021	-0.0008	-0.0015	0.009	-15.9
0.0232	0.0015	0.0015	0.0105	-16.2
0.0232	0.0007	0.0015	0.0105	-16.3
0.0255	-0.0008	-0.0008	0.0075	-16.4
0.0285	0.0007	-0.0015	0.0045	-16.8
0.024	0.0007	-0.003	-0.0015	-17.1
0.018	0	-0.0046	-0.0046	-17.1
0.0202	0.0007	-0.0053	-0.0015	-17.4
0.021	0	-0.006	0.0007	-17.4
0.0195	0.0015	-0.0068	0.006	-17.6
0.018	0.003	-0.0068	0.009	-18
0.0127	0.0045	-0.0053	0.012	-17.9
0.009	0.0082	-0.003	0.0127	-18.1
0.0067	0.0082	-0.003	0.0045	-18.4
0.006	0.0052	-0.0023	-0.003	-18.6
0.0015	0.003	-0.0046	-0.0068	-18.9
-0.0075	-0.0008	-0.0068	-0.0105	-18.8
-0.0181	-0.0046	-0.0068	-0.0165	-19.1
-0.0278	-0.0128	-0.0105	-0.0233	-19.4
-0.0315	-0.0203	-0.0113	-0.03	-19.6
-0.033	-0.0203	-0.0135	-0.0293	-19.6
-0.0315	-0.0173	-0.0105	-0.0158	-19.9
-0.0285	-0.0105	-0.0068	-0.0053	-20
-0.0285	0.0007	-0.0053	0	-20.3
-0.0256	0.0112	-0.0046	0.0045	-20.3
-0.0203	0.0142	-0.0046	0.0082	-20.6
-0.0158	0.012	-0.0046	0.0135	-20.8
-0.0105	0.0015	-0.0046	0.0127	-20.9
-0.0068	-0.0075	-0.003	0.0075	-21.3
-0.0046	-0.006	0.0007	0.0015	-21.6
-0.0068	-0.003	0.0015	0.0052	-21.7
-0.0143	-0.0015	0.0045	0.003	-21.9
-0.0233	-0.0046	0.0052	0.0015	-22
-0.0308	0.0015	0.0052	0.006	-22.3
-0.033	0.0112	0.0075	0.0105	-22.5
-0.0278	0.012	0.0112	0.0195	-22.7
-0.0256	0.009	0.0097	0.0157	-23
-0.0233	0.009	0.0105	0.006	-23.1
-0.0128	0.0105	0.012	-0.0038	-23.4
-0.0113	0.0142	0.0142	0	-23.7
-0.0098	0.0142	0.018	0.0075	-23.8
-0.006	0.0097	0.018	0.0067	-24.1
-0.0091	0.0075	0.0165	0.0052	-24.1
-0.0195	0.0045	0.0157	-0.0023	-24.4
-0.0181	0.0037	0.0142	-0.0008	-24.7
-0.0075	0.003	0.0142	0.0015	-24.9
-0.0053	-0.0038	0.0112	0	-25
0.0007	-0.015	0.0097	-0.0008	-25.3
0.0067	-0.015	0.0097	-0.0015	-25.4
0.0097	-0.0038	0.0105	0.0015	-25.7
0.0142	-0.0038	0.0112	-0.0015	-25.7
0.0195	-0.0008	0.0097	-0.003	-26
0.018	0.0007	0.009	-0.0053	-26.3
-0.003	-0.003	0.0097	-0.012	-26.6
-0.0368	-0.0015	0.0082	-0.012	-26.6
-0.0848	-0.0008	0.0045	-0.0068	-27.1
-0.1635	-0.0008	0.0015	-0.0015	-27.1
-0.2415	-0.0023	0.0007	0.0007	-27.4
-0.2925	-0.0023	0.0007	0.003	-27.5
-0.4155	-0.0023	-0.0023	0	-27.7
-0.5768	0	-0.0053	-0.0015	-28.1
-0.5258	0.0022	-0.0068	-0.0008	-28.2
-0.3105	0.0015	-0.0083	-0.0008	-28.4
-0.0428	0.003	-0.0098	0.0007	-28.7
0.1822	0.0015	-0.015	0.0015	-28.7
0.2047	0.0015	-0.0173	0.0022	-29
0.225	0	-0.0195	-0.0015	-29.2
0.2985	-0.0015	-0.021	-0.003	-29.4
0.4012	-0.003	-0.0225	-0.003	-29.7
0.4702	-0.0046	-0.021	-0.0038	-29.6
0.4755	-0.003	-0.021	-0.003	-29.9
0.4747	-0.0038	-0.0233	-0.0015	-30.1
0.4192	-0.0046	-0.0203	0.003	-30.2
0.3645	-0.0046	-0.0195	0.0082	-30.6
0.312	-0.003	-0.0195	0.0067	-30.7
0.2542	-0.003	-0.0181	0.006	-30.6
0.2025	-0.0038	-0.0165	0.0075	-31.1
0.159	-0.0008	-0.0188	0.0105	-31.2
0.114	0.0015	-0.0293	0.0082	-31.5
0.0742	0	-0.0383	0.003	-31.7
0.0382	-0.0015	-0.0495	0.003	-31.7
0.0045	-0.0023	-0.0675	0.0007	-32
-0.0195	-0.0015	-0.0893	-0.0015	-32.1
-0.0443	-0.0053	-0.111	-0.0046	-32.3
-0.0615	-0.0068	-0.1268	-0.0068	-32.5
-0.078	-0.0015	-0.1441	-0.0053	-32.7
-0.093	0.0007	-0.168	0	-32.9
-0.105	-0.0008	-0.1935	-0.0008	-33.1
-0.1163	0	-0.2093	0	-33.2
-0.1208	0.0015	-0.2085	0	-33.4
-0.126	0.0022	-0.1898	0.0007	-33.6
-0.1268	0.003	-0.1515	0.0015	-33.8
-0.1245	0.003	-0.096	0.0022	-34.1
-0.12	0.0022	-0.0256	0.0037	-34.1
-0.1118	0.0015	0.0442	0.0022	-34.5
-0.1021	0.003	0.108	0	-34.6
-0.0885	0.003	0.159	-0.0023	-35
-0.0728	0.003	0.1935	-0.006	-35.2
-0.0518	0.0015	0.2197	-0.0046	-35.4
-0.0308	0	0.2295	-0.003	-35.6
-0.024	-0.0008	0.2347	-0.003	-35.8
-0.03	-0.0023	0.2347	-0.0038	-36
-0.0465	-0.0008	0.231	-0.003	-36.3
-0.0563	-0.0008	0.2227	-0.0008	-36.6
-0.0436	-0.0008	0.2077	-0.0015	-36.7
-0.0293	0.0015	0.1912	-0.0008	-37.1
-0.0158	0.0015	0.177	0.0015	-37.5
0.0015	0	0.1627	0	-37.7
0.0165	0	0.15	0.0007	-38
0.024	0.0007	0.144	0.0015	-38
0.0307	0.0007	0.1395	0	-38.4
0.039	-0.0015	0.1327	-0.0008	-38.7
0.0412	-0.0008	0.1222	0.0007	-38.8
0.0427	0	0.108	0.0015	-39
0.0412	-0.0008	0.0825	0.0037	-39.2
0.0352	0	0.0465	0.0022	-39.4
0.0255	-0.0008	0.006	0.0015	-39.7
0.0165	0.0007	-0.0203	0.0015	-39.9
0.012	0.0015	-0.0023	0.003	-40.2
0.006	0.0007	0.0442	0.006	-40.6
0.0007	0.0007	0.099	0.006	-40.6
-0.0053	0	0.1515	0.0045	-40.7
-0.012	0.0015	0.1807	0.0052	-41
-0.0173	0.003	0.1837	0.0052	-41.3
-0.0218	0	0.177	0.0045	-41.5
-0.0248	0.0007	0.1387	0.006	-41.6
-0.0218	0.0015	0.0675	0.0045	-41.9
-0.0203	0.0015	0.0082	0.0045	-42.2
-0.0165	0.0015	-0.0458	0.006	-42.3
-0.0143	0.003	-0.1185	0.006	-42.6
-0.0143	0.003	-0.195	0.0052	-42.8
-0.0105	0.003	-0.2558	0.0052	-42.9
-0.006	0.0022	-0.2933	0.0045	-43.2
-0.003	0.0015	-0.3158	0.0037	-43.4
0.0015	0.0007	-0.3315	-0.0008	-43.6
0.0052	-0.0008	-0.333	-0.0038	-43.8
0.0052	-0.0015	-0.3278	-0.0046	-44
0.0075	-0.0023	-0.3158	-0.0053	-44.4
0.0082	-0.0015	-0.297	-0.006	-44.5
0.0067	-0.0015	-0.2745	-0.0068	-44.6
0.0105	-0.0023	-0.2483	-0.0046	-45
0.0097	-0.003	-0.2183	-0.003	-45.1
0.0082	-0.003	-0.189	-0.0046	-45.2
0.0067	-0.0015	-0.159	-0.0008	-45.5
0.0052	-0.003	-0.129	0.0022	-45.7
0.0052	-0.0015	-0.1006	0.003	-45.7
0.006	-0.0015	-0.075	0.0052	-46
0.0082	-0.0015	-0.0495	0.006	-46.3
0.0075	0.0015	-0.0278	0.009	-46.5
0.0022	0.0022	-0.0128	0.0105	-46.6
-0.0015	0.003	0	0.009	-46.7
0.0007	0.0007	0.009	0.0082	-47
0.0045	-0.0015	0.018	0.0052	-47
0.003	-0.0015	0.027	0.0045	-47.2
-0.0038	-0.003	0.0337	0.0015	-47.2
-0.003	-0.003	0.039	-0.0008	-47.6
-0.0046	-0.0038	0.0442	-0.0053	-47.7
-0.0105	-0.0068	0.0495	-0.012	-47.7
-0.0195	-0.0091	0.0577	-0.015	-48.1
-0.0263	-0.0105	0.0652	-0.015	-48.2
-0.0278	-0.0105	0.072	-0.0143	-48.3
-0.0278	-0.0091	0.0787	-0.0128	-48.5
-0.0233	-0.0083	0.0855	-0.0098	-48.5
-0.0165	-0.0068	0.0892	-0.0068	-48.6
-0.0143	-0.0046	0.0945	-0.0015	-48.9
-0.012	0	0.0967	0.0007	-48.7
-0.0098	0	0.0937	0.0015	-49.1
-0.012	-0.003	0.0907	0.0015	-49.2
-0.012	-0.0023	0.0855	0.0007	-49.2
-0.0105	-0.0015	0.0825	0.0007	-49.5
-0.0128	0	0.0795	0.0022	-49.6
-0.0105	0.0015	0.0735	0.0045	-49.7
-0.0083	0.0022	0.0697	0.0045	-50
-0.0075	0.0037	0.063	0.0052	-50.2
-0.0046	0.0067	0.0562	0.0052	-50.5
0	0.0067	0.0502	0.0067	-50.6
0.003	0.006	0.0465	0.009	-50.6
0.003	0.006	0.042	0.0082	-50.9
0.003	0.0045	0.0352	0.0082	-50.9
0.0022	0.0015	0.0292	0.0082	-51.1
-0.0023	0.0007	0.0225	0.0067	-51.3
-0.0075	0.0007	0.0157	0.0067	-51.4
-0.0091	0	0.0127	0.006	-51.5
-0.0015	0.0007	0.0082	0.0052	-51.7
0.0262	0.0015	0	0.003	-51.9
0.0435	-0.0015	-0.0053	-0.0008	-52.1
0.0367	-0.003	-0.0075	-0.0046	-52.3
0.039	-0.003	-0.0098	-0.0068	-52.4
0.0397	-0.0046	-0.0128	-0.0091	-52.6
0.0405	-0.003	-0.0158	-0.0091	-52.6
0.0427	-0.0046	-0.0165	-0.0091	-52.8
0.042	-0.006	-0.0181	-0.0091	-52.9
0.0667	-0.0053	-0.0195	-0.0068	-52.9
0.1447	-0.0038	-0.0181	-0.0015	-53.1
0.1935	-0.0015	-0.0158	0.0007	-53.1
0.1395	-0.003	-0.0158	0.0007	-53.1
0.108	-0.0023	-0.0158	0.0015	-53.1
0.0802	-0.0015	-0.0128	0.0045	-53.2
0.0442	-0.0008	-0.0083	0.006	-53.5
0.0337	-0.0008	-0.0038	0.006	-53.4
0.009	0.0015	-0.003	0.0067	-53.4
0.018	0.0015	-0.0015	0.0052	-53.5
0.0135	0.0007	0.0015	0.0052	-53.5
0.0022	0.0007	0.003	0.0045	-53.7
-0.0046	0.0022	0.003	0.003	-53.7
-0.0158	0.0015	0.0045	0.0022	-53.7
-0.0225	-0.0015	0.006	0.0022	-53.8
-0.0323	-0.0008	0.0052	0.003	-54
-0.033	-0.0008	0.0082	0.0045	-54
-0.0218	0.0007	0.0112	0.0045	-54.1
-0.0015	0.0007	0.0105	0.0045	-54.3
-0.0173	0.0015	0.0112	0.0052	-54.3
-0.0285	0.003	0.012	0.006	-54.3
-0.027	0.0045	0.0142	0.0052	-54.5
-0.0436	0.003	0.0142	0.003	-54.7
-0.039	0.0007	0.0112	0.0015	-54.6
-0.0233	0.0022	0.012	0.0015	-54.8
-0.0053	0.0007	0.0097	-0.0008	-54.9
-0.003	-0.0023	0.0075	-0.0015	-54.9
-0.0105	-0.0053	0.003	-0.0046	-55
-0.0158	-0.006	-0.0015	-0.0068	-55.2
-0.0285	-0.006	-0.0015	-0.0083	-55.2
-0.0346	-0.006	-0.0053	-0.0083	-55.5
-0.0405	-0.0023	-0.0068	-0.0075	-55.4
-0.0511	-0.0023	-0.0068	-0.0083	-55.6
-0.0608	-0.0023	-0.0075	-0.0068	-55.6
-0.0668	-0.0008	-0.0068	-0.003	-55.7
-0.0706	0.0015	-0.0046	0.0015	-55.7
-0.0728	0.0007	-0.003	0.003	-56
-0.075	0.0015	-0.0053	0.0037	-55.9
-0.0735	0.0007	-0.006	0.003	-56
-0.0675	-0.0023	-0.0068	0.0015	-55.9
-0.063	-0.003	-0.006	0.0007	-56
-0.057	-0.0038	-0.006	-0.003	-56.1
-0.0593	-0.0015	-0.0053	-0.0015	-56
-0.063	-0.0015	-0.0015	0.0007	-56.2
-0.0638	-0.0023	0	0.0007	-56.1
-0.063	-0.0008	0.0015	0.003	-56.2
-0.0555	0.0015	0.003	0.003	-56.4
-0.0533	0	0.0045	0.003	-56.2
-0.0511	0.0007	0.003	0.003	-56.3
-0.0533	0.0007	-0.0023	0.0037	-56.4
-0.0518	-0.0015	-0.0105	0.0045	-56.5
-0.0511	-0.0023	-0.0181	0.0045	-56.4
-0.048	-0.0008	-0.0248	0.0037	-56.6
-0.0428	0.0007	-0.0315	0.003	-56.6
-0.0443	-0.0015	-0.0353	0.003	-56.7
-0.039	-0.0008	-0.0375	0.0022	-56.6
-0.0315	-0.0015	-0.0383	0.0015	-56.6
-0.0225	-0.0008	-0.0338	0.0015	-56.8
-0.0173	-0.0008	-0.027	-0.0008	-56.7
-0.0158	-0.0015	-0.0218	-0.0038	-56.6
-0.0105	-0.0008	-0.0165	-0.0038	-56.6
-0.0068	-0.0015	-0.0105	-0.003	-56.6
-0.0046	-0.0015	-0.0053	-0.0023	-56.6
-0.0015	-0.003	-0.0015	-0.003	-56.4
0.0037	-0.003	0	-0.003	-56.5
0.0082	-0.0015	0.003	0	-56.6
0.009	0	0.0045	0.003	-56.5
0.0105	0.0015	0.0052	0.0045	-56.4
0.0127	0.0015	0.0067	0.0052	-56.4
0.0135	0.0015	0.009	0.0037	-56.3
0.0165	0.003	0.009	0.0045	-56.4
0.0195	0.0045	0.0067	0.003	-56.3
0.0217	0.0022	0.0075	0.003	-56.3
0.0232	0	0.0097	0.003	-56.1
0.0232	-0.0023	0.0105	0.0015	-56
0.027	-0.0038	0.0007	0.0015	-56
0.0285	-0.0046	-0.0053	0	-56
0.03	-0.006	-0.0038	-0.0015	-55.8
0.0322	-0.0053	-0.0015	-0.0008	-55.9
0.0322	-0.0046	0.0007	0.003	-55.8
0.0345	-0.003	0.0045	0.0037	-55.8
0.0352	-0.0008	0.0082	0.0022	-55.7
0.0352	-0.0008	0.009	0.0007	-55.5
0.0352	-0.0008	0.009	-0.0015	-55.6
0.0315	-0.0008	0.012	-0.0046	-55.5
0.0292	-0.0008	0.0127	-0.0023	-55.2
0.0285	0.0007	0.0142	0.0007	-55.4
0.0277	0.003	0.015	0.003	-55.1
0.0255	0.0037	0.0165	0.0052	-55.3
0.021	0.0045	0.0187	0.0067	-55.1
0.0202	0.0037	0.0165	0.0052	-54.9
0.0202	0.003	0.0127	0.0052	-54.8
0.018	0.003	0.0142	0.0045	-54.7
0.0142	0.003	0.0135	0.003	-54.7
0.0067	0.0007	0.0127	0.003	-54.6
0.0015	-0.0008	0.012	0.0007	-54.5
0.0045	-0.0023	0.0082	0.0007	-54.3
0.0045	-0.0023	0.0082	0.0015	-54.3
0.0037	-0.0015	0.0067	-0.0015	-54.1
0.006	-0.003	0.0022	-0.0015	-54
0.0075	-0.0038	0.0007	-0.0015	-53.8
0.0112	-0.0038	-0.0023	-0.0023	-53.8
0.0142	-0.003	-0.0068	0.003	-53.8
0.0157	-0.0008	-0.0075	0.006	-53.6
0.0165	-0.0015	-0.0068	0.0082	-53.3
0.0142	0	-0.0083	0.006	-53.3
0.015	-0.0008	-0.0083	0.0022	-53.2
0.0127	-0.0008	-0.0098	-0.0015	-53.1
0.009	-0.0015	-0.0098	-0.0105	-52.9
0.0082	-0.0015	-0.0068	-0.0098	-52.7
0.0097	0	-0.0053	-0.0068	-52.7
0.009	0.0007	-0.0046	-0.0015	-52.4
0.009	0.0015	-0.0038	0.0007	-52.5
0.0082	0.0015	-0.003	-0.0008	-52.3
0.0067	0.003	-0.003	0	-52.1
0.0075	0.0052	-0.0015	0.0007	-52
0.0067	0.003	0.0015	0.0007	-51.8
0.0097	0.0037	0.0037	-0.0008	-51.8
0.0112	0.0015	0.0045	-0.0015	-51.4
0.012	0.0022	0.0045	-0.0008	-51.4
0.0135	0.003	0.009	-0.0008	-51.3
0.0142	0.0015	0.0082	-0.0008	-51.2
0.0165	0.0007	0.006	-0.0008	-51.1
0.0142	0.0007	0.0067	0.0007	-51
0.012	-0.0008	0.0082	0.0015	-50.8
0.0112	-0.0015	0.006	0.003	-50.6
0.0105	-0.003	0.0067	0.003	-50.6
0.0082	-0.0038	0.0082	0.0022	-50.4
0.0082	-0.0046	0.0075	0.003	-50.4
0.0082	-0.0046	0.0067	0.0045	-50
0.0067	-0.0046	0.0052	0.0045	-50
0.0067	-0.0046	0.003	0.003	-49.9
0.0052	-0.003	0	0.0007	-49.7
0.0037	-0.0038	-0.0046	0.0015	-49.6
0.0045	-0.0038	-0.0075	0.0022	-49.7
0.0045	-0.0038	-0.0091	0.0007	-49.3
0.0045	-0.0046	-0.0098	-0.0008	-49.2
0.0037	-0.0046	-0.0113	-0.003	-49.2
0.0015	-0.0046	-0.0105	-0.0053	-48.8
0.003	-0.0046	-0.0091	-0.0038	-48.9
0.0052	-0.003	-0.0083	-0.0023	-48.6
0.0045	-0.003	-0.0075	-0.0023	-48.4
0.0075	-0.003	-0.006	-0.0015	-48.2
0.0067	-0.0015	-0.0046	-0.0015	-48
0.0015	-0.0015	-0.0046	0.0007	-48
-0.0008	0.0007	-0.0038	0.0007	-47.7
-0.0038	0.0022	-0.006	-0.0015	-47.5
-0.0068	0.0022	-0.0053	-0.0008	-47.4
-0.0083	0.003	-0.0046	-0.0008	-47.2
-0.0075	0.0015	-0.0046	-0.0008	-47.1
-0.0068	0.0022	-0.003	0.0037	-46.8
-0.0091	0.003	-0.0046	0.0052	-46.5
-0.0113	0.003	-0.003	0.0067	-46.3
-0.012	0.0037	-0.0023	0.0082	-46.2
-0.0128	0.0045	-0.0023	0.0067	-45.9
-0.0128	0.0052	-0.003	0.0052	-45.8
-0.012	0.003	-0.0023	0.003	-45.6
-0.0135	-0.0008	-0.003	-0.003	-45.3
-0.0135	-0.0023	-0.0008	-0.0105	-45.3
-0.0135	-0.0023	-0.0015	-0.012	-45
-0.0143	-0.0015	-0.0068	-0.0105	-44.9
-0.0128	-0.003	-0.0053	-0.006	-44.6
-0.0091	-0.0038	-0.006	-0.0008	-44.5
-0.0053	-0.003	-0.003	-0.0008	-44.3
-0.0008	-0.0015	-0.003	0.0007	-44
0.0052	-0.0008	-0.0068	0.0015	-43.9
0.0112	-0.0015	-0.0083	0.0015	-43.7
0.0135	-0.0008	-0.0135	0.0045	-43.4
0.0157	-0.0008	-0.0143	0.006	-43.3
0.0165	-0.0008	-0.0173	0.0045	-43
0.0165	-0.0008	-0.0195	0.0037	-42.7
0.015	0.0007	-0.0195	0.0067	-42.6
0.012	0	-0.0181	0.0052	-42.4
0.0082	-0.0015	-0.0128	0.0015	-42.1
0.006	-0.0015	-0.0105	0.0007	-42
0.0022	-0.0023	-0.0046	0.0015	-41.5
-0.0015	-0.0015	-0.0008	0.0045	-41.4
-0.0053	-0.0023	0.0015	0.0015	-41.3
-0.0008	-0.0023	0.006	0.0007	-41.1
0.012	-0.0015	0.0105	-0.0008	-40.9
0.0277	-0.0046	0.0112	-0.0075	-40.8
0.048	-0.0015	0.012	-0.0053	-40.4
0.0645	0.0022	0.0135	0.0045	-40.3
0.0712	0.003	0.0127	0.006	-40
0.075	0.003	0.0142	0.003	-39.8
0.0712	0.0022	0.012	0	-39.7
0.0637	0.0015	0.0127	-0.0008	-39.2
0.0517	0.0022	0.0105	0.0015	-39.2
0.0397	0.0015	0.0052	0.0022	-38.8
0.0285	0.0007	0.0082	0.003	-38.4
0.018	-0.0008	0.0067	0.0037	-38.4
0.0067	-0.0015	0.0045	0.0037	-38.1
-0.003	0	0.0045	0.003	-38
-0.012	0.0007	0.0015	0.003	-37.7
-0.021	0.0007	0.0015	0.003	-37.4
-0.027	-0.0023	0.0015	0.0007	-37.1
-0.0346	-0.0038	-0.0008	-0.0015	-37
-0.0428	-0.003	-0.0053	-0.0008	-36.6
-0.0525	-0.0015	-0.0068	-0.0015	-36.6
-0.06	-0.0008	-0.0068	-0.0046	-36.3
-0.0638	-0.0008	-0.006	-0.003	-36
-0.0683	0.0007	-0.0083	0.0015	-36
-0.0683	0.0007	-0.0105	0.0045	-35.4
-0.0638	-0.0008	-0.0091	0.003	-35.5
-0.0593	-0.0023	-0.0083	0.003	-35.1
-0.0645	-0.0023	-0.0075	0.0007	-34.7
-0.0653	-0.0015	-0.0046	-0.0008	-34.6
-0.0555	-0.003	-0.006	0.0007	-34.2
-0.048	-0.003	-0.0068	0.0007	-34.1
-0.042	-0.0046	-0.0091	0.0022	-33.8
-0.042	-0.0046	-0.0105	0.003	-33.5
-0.0361	-0.0015	-0.0068	0.003	-33.1
-0.033	-0.0015	-0.0053	0.003	-33
-0.0293	-0.0008	-0.0053	0.0015	-32.7
-0.0195	-0.0015	-0.0038	0.0022	-32.4
-0.0105	-0.0015	-0.003	0.0037	-32
-0.0008	0.0007	-0.0015	0.003	-31.9
0.0045	0	0.0007	0.003	-31.6
0.0097	0.0015	0.003	0.003	-31.2
0.0105	0	0.0037	0.0007	-31.1
0.0105	-0.0008	0.0015	-0.0015	-30.6
0.0105	0.0015	-0.0008	0.0015	-30.4
0.0105	0.0045	0.0015	0.0007	-30.2
0.0105	0.0052	0.0007	-0.0046	-29.8
0.0142	0.003	-0.0023	-0.0015	-29.6
0.0195	0.003	-0.0015	0.0007	-29.4
0.0232	0.0037	0.0007	-0.0015	-29.1
0.027	0.003	0.0015	0.0015	-28.8
0.027	0.003	0.0052	0.0022	-28.4
0.0277	0.003	0.009	0	-28.2
0.0247	-0.0015	0.0127	0	-27.9
0.021	-0.0098	0.0172	-0.0046	-27.6
0.0172	-0.0158	0.0202	-0.0083	-27.4
0.0142	-0.0091	0.0232	-0.0053	-27
0.012	-0.003	0.0247	-0.0046	-26.7
0.009	-0.0023	0.0247	0.003	-26.4
0.006	0.003	0.0255	0.0165	-26.1
0	0.0045	0.0232	0.0157	-25.7
-0.003	0.0037	0.021	0.0127	-25.7
-0.0053	0.003	0.018	0.012	-25.2
-0.0091	0.0015	0.0127	0.0015	-25
-0.012	-0.0008	0.0112	-0.0068	-24.7
-0.015	-0.003	0.0112	-0.0075	-24.3
-0.015	-0.003	0.0082	-0.003	-24.1
-0.015	-0.0023	0.0045	-0.0105	-23.7
-0.0188	-0.0046	0.0015	-0.027	-23.4
-0.0218	-0.0053	0.0015	-0.0218	-23.3
-0.0218	-0.0008	-0.0015	-0.0046	-22.8
-0.0233	0.0015	-0.0023	-0.0068	-22.5
-0.0278	0.0015	-0.0068	-0.0083	-22.3
-0.0353	0.0045	-0.0098	0.003	-21.9
-0.042	0.003	-0.012	0.003	-21.7
-0.042	0.0015	-0.0173	0.0007	-21.4
-0.0405	0.0015	-0.0195	0.0015	-21
-0.033	0	-0.0195	0.0007	-20.7
-0.0256	-0.0023	-0.0188	0.003	-20.3
-0.0158	-0.003	-0.0158	0.003	-20.2
-0.0053	-0.0015	-0.0135	0.0037	-19.8
0.0052	-0.003	-0.0143	-0.0023	-19.5
0.0165	-0.0038	-0.0143	0	-19.1
0.024	-0.0008	-0.0128	0.0067	-18.7
0.0307	-0.0008	-0.0105	0.0007	-18.5
0.0345	0.0007	-0.0053	0.0007	-18.2
0.0345	0.0015	-0.0046	0.0007	-17.6
0.0367	0.0007	-0.0038	-0.0008	-17.5
0.0405	0.0007	-0.003	0.0015	-17.2
0.0457	-0.0023	-0.0023	0.003	-16.9
0.051	-0.0015	0.0007	0.0105	-16.4
0.0517	0.0015	0.0015	0.0165	-16.1
0.0495	0.0037	0.0052	0.0157	-15.8
0.0472	0.0037	0.009	0.0105	-15.5
0.045	0.0015	0.009	0.0067	-15
0.0412	0.0015	0.009	0.009	-14.8
0.0352	0.0015	0.006	0.0127	-14.4
0.0292	0	0.0052	0.0105	-14.1
0.0225	0.0007	0.0022	0.0067	-13.8
0.018	0.0007	0	0.0097	-13.5
0.012	0.0007	0	0.0075	-13.1
0.0052	0.0007	-0.0015	-0.0023	-12.9
0.0022	-0.0008	-0.0038	-0.0053	-12.4
0	0	-0.0053	0.0015	-12.2
-0.0015	0.0037	-0.0075	0.0067	-11.9
-0.003	0.003	-0.0068	0.0007	-11.4
-0.0015	0.003	-0.0053	-0.0046	-11.1
0	0.003	-0.0038	-0.0128	-10.8
0.0007	-0.0046	-0.0046	-0.0135	-10.4
0.0007	-0.0158	-0.0015	-0.0008	-10.2
0	-0.0165	0.0007	0.0067	-9.9
-0.0023	-0.0038	-0.0008	0.0045	-9.6
-0.0023	-0.0008	0	-0.0068	-9.1
-0.0053	-0.003	0	-0.0068	-8.9
-0.0046	-0.0015	0.0015	-0.0091	-8.7
-0.003	-0.0015	0.0015	-0.0225	-8.5
-0.003	0.0007	0	-0.0308	-8.2
-0.0038	-0.0023	-0.0023	-0.0158	-7.9
-0.0068	-0.0053	-0.0008	0.0067	-7.5
-0.0083	-0.0068	-0.0008	0.0015	-7.4
-0.0083	-0.006	0.0007	0.003	-7.2
-0.0105	-0.0053	0	0.0045	-6.9
-0.0135	-0.0046	-0.0008	-0.0091	-6.6
-0.0158	-0.0015	0.003	-0.0165	-6.4
-0.0173	-0.0008	0.006	-0.0098	-6.2
-0.0181	0.0045	0.0105	0.0157	-6.1
-0.0165	0.0052	0.0127	0.024	-5.8
-0.0173	0.0067	0.0097	0.0202	-5.7
-0.0195	0.0045	0.0067	0.012	-5.4
-0.0203	0.0015	0.0045	0.0067	-5.4
-0.0218	-0.0015	0.003	0.003	-5
-0.0218	-0.003	0.003	-0.0075	-5
-0.0233	-0.0023	0.0037	-0.006	-4.8
-0.0218	-0.0023	0.003	0.0105	-4.7
-0.0218	0.0007	0.003	0.0232	-4.5
-0.0195	0.0015	0.006	0.0217	-4.5
-0.0181	-0.0023	0.006	0.0105	-4.4
-0.0165	-0.0068	0.0045	-0.006	-4.2
-0.0165	-0.0083	0.0045	-0.0075	-4.1
-0.0128	-0.0053	0.0045	-0.0015	-4.1
-0.0091	-0.0008	0.003	-0.012	-4
-0.0046	0.0052	0.003	-0.0143	-4.1
0.0015	0.018	0.003	0.0007	-3.9
0.0075	0.018	0.003	0.0082	-4
0.0105	0.0097	0.0022	0.0105	-3.8
0.0135	0.0112	-0.003	0.0067	-3.8
0.015	0.0082	-0.0113	-0.0015	-3.6
0.0142	0.0052	-0.0203	0.0045	-3.6
0.0165	0.0037	-0.0293	0.0105	-3.6
0.024	-0.0008	-0.0278	0.0015	-3.5
0.0375	-0.0038	-0.0203	-0.0083	-3.5
0.0547	-0.0046	-0.0143	-0.0091	-3.5
0.0667	-0.0023	-0.0053	-0.0038	-3.4
0.0697	-0.0038	0.0015	-0.0046	-3.4
0.0712	-0.0046	0.0067	-0.0068	-3.4
0.075	-0.0053	0.0075	-0.0038	-3.4
0.0817	-0.0053	0.006	0.0015	-3.4
0.0832	-0.0053	0.0045	0.003	-3.6
0.0817	-0.0053	0.0015	0.003	-3.2
0.0825	-0.0053	0.0037	0.0045	-3.4
0.0825	-0.0046	0.0135	0.0052	-3.3
0.0772	-0.0015	0.024	0.0067	-3.2
0.0682	0.0007	0.0345	0.0075	-3.3
0.0457	0.0045	0.0412	0.009	-3.3
0.018	0.0082	0.0427	0.009	-3.3
-0.0015	0.0067	0.045	0.006	-3.3
-0.0165	0.006	0.0435	0.0067	-3.1
-0.0218	0.0067	0.0382	0.0052	-3.2
-0.0195	0.0045	0.033	0.0022	-3.3
-0.0158	0.0007	0.0232	-0.0038	-3.2
-0.0128	-0.012	0.0127	-0.0105	-3.2
-0.0195	-0.0256	0.0045	-0.0083	-3.2
-0.033	-0.0068	-0.003	-0.0038	-3.2
-0.0525	0.0082	-0.0105	-0.0046	-3.3
-0.0706	0.0067	-0.0143	-0.003	-3.2
-0.0833	0.0045	-0.0173	-0.003	-3.3
-0.093	-0.0023	-0.0173	-0.003	-3.2
-0.105	-0.0023	-0.0203	-0.003	-3.2
-0.1043	-0.0015	-0.0278	-0.0015	-3.3
-0.0983	0.0007	-0.0285	0	-3.4
-0.0953	0.0075	-0.03	0.0022	-3.4
-0.1043	0.009	-0.0308	0.0037	-3.6
-0.1328	0.0052	-0.0361	0.0037	-3.6
-0.1403	-0.0008	-0.039	0.003	-3.6
-0.1185	0.0007	-0.0436	0.003	-3.7
-0.0953	0.003	-0.048	0.003	-3.6
-0.0863	0.0052	-0.0473	0.0045	-3.8
-0.0863	0.0105	-0.0458	0.0067	-3.8
-0.0743	0.0127	-0.0436	0.003	-4
-0.0585	0.0142	-0.0361	0.0037	-4.1
-0.0578	0.0127	-0.0263	0.0052	-3.9
-0.0443	0.0142	-0.012	0.0052	-4.1
-0.0361	0.021	-0.0038	0.009	-4
-0.0353	0.0202	-0.003	0.0097	-4.1
-0.0608	0.0157	0.009	0.0067	-4.2
-0.0938	0.0135	0.0135	0.0045	-4.2
-0.0691	0.0007	0.012	-0.006	-4.4
-0.042	-0.0315	0.0247	-0.0143	-4.5
-0.024	-0.0713	0.024	-0.0128	-4.3
-0.0083	-0.0691	0.0247	-0.0091	-4.5
-0.0256	-0.06	0.018	-0.0105	-4.5
-0.0256	-0.0533	-0.0338	-0.0091	-4.7
-0.024	-0.0218	-0.123	0.0007	-4.8
-0.0165	0.0052	-0.261	0.0112	-4.7
-0.0165	0.0367	-0.3825	0.027	-4.9
-0.1065	0.0555	-0.4365	0.0442	-5
-0.2873	0.0622	-0.4808	0.042	-5
-0.6008	0.0442	-0.4223	0.0225	-5.3
-1.0433	-0.0135	-0.2625	0	-5.3
-1.2435	-0.0353	-0.0638	-0.0158	-5.3
-0.936	-0.0023	0.1845	-0.0285	-5.4
-0.2648	0	0.3765	-0.0368	-5.4
0.3562	-0.0105	0.4912	-0.0338	-5.5
0.7117	-0.0218	0.5145	-0.0353	-5.7
0.993	-0.0653	0.4747	-0.0428	-5.9
1.1767	-0.0825	0.4027	-0.0436	-6.1
1.2337	-0.099	0.318	-0.0428	-6
1.1895	-0.0938	0.258	-0.0293	-6.2
0.9457	-0.0555	0.2167	-0.0105	-6.3
0.6315	-0.0173	0.2025	-0.0015	-6.3
0.441	0.0052	0.1912	-0.003	-6.6
0.3157	0.0022	0.1815	-0.0083	-6.4
0.1605	-0.012	0.144	-0.0008	-6.3
0.0877	0.009	0.0862	0.0247	-6.5
0.0307	0.0465	0.0345	0.0405	-6.6
0.0615	0.0487	0.03	0.0427	-6.7
0.0742	0.048	0.1275	0.0405	-6.8
0.0532	0.039	0.2602	0.033	-7
0.0202	0.036	0.354	0.024	-7.3
-0.0383	0.027	0.3742	0.009	-7.3
-0.0443	0.0097	0.3315	-0.012	-7.4
-0.0743	0.0082	0.2715	-0.0218	-7.6
-0.0848	0.0082	0.21	-0.0083	-7.6
-0.1088	0.0165	0.144	0.006	-7.7
-0.1283	0.0255	0.0892	0.012	-8
-0.1455	0.0367	0.027	0.018	-7.9
-0.1696	0.033	-0.042	0.0142	-8.1
-0.1905	0.033	-0.1335	0.0135	-8.2
-0.21	0.0382	-0.2618	0.0127	-8.1
-0.2018	0.036	-0.3413	0.0127	-8.5
-0.1965	0.027	-0.3885	0.0187	-8.5
-0.18	0.0127	-0.4275	0.0135	-8.6
-0.1756	-0.0015	-0.465	0.0007	-8.8
-0.1658	-0.0248	-0.507	-0.0083	-8.9
-0.1575	-0.0293	-0.5213	-0.0083	-9
-0.1553	-0.0233	-0.5123	-0.0068	-9.2
-0.1448	-0.0165	-0.495	-0.003	-9.3
-0.135	-0.0053	-0.4785	0.003	-9.4
-0.1238	0.012	-0.45	0.012	-9.6
-0.117	0.03	-0.4185	0.0232	-9.6
-0.1043	0.0142	-0.375	0.0202	-9.9
-0.0938	-0.0195	-0.333	0.0127	-9.9
-0.0788	-0.0256	-0.309	0.003	-10
-0.06	-0.0135	-0.2753	-0.0263	-10.2
-0.0413	-0.0158	-0.24	-0.0593	-10.2
-0.0173	-0.0383	-0.1988	-0.0833	-10.3
0.0007	-0.0518	-0.1568	-0.0825	-10.2
0.018	-0.0428	-0.1238	-0.0353	-10.2
0.033	-0.0075	-0.0863	0.0187	-10.3
0.051	0.0172	-0.0383	0.042	-10.4
0.063	0.027	0.0007	0.0517	-10.4
0.0675	0.0457	0.0277	0.0502	-10.5
0.0772	0.0487	0.0502	0.0405	-10.4
0.0877	0.0502	0.0622	0.0382	-10.5
0.0952	0.0517	0.078	0.0382	-10.5
0.099	0.0435	0.0907	0.0232	-10.4
0.1035	0.0382	0.1065	-0.0008	-10.4
0.1057	0.0367	0.1177	-0.0158	-10.2
0.105	-0.0008	0.1192	-0.0555	-10
0.105	-0.1103	0.126	-0.1013	-9.9
0.1117	-0.1748	0.1245	-0.1155	-9.6
0.1125	-0.1253	0.1125	-0.0915	-9.6
0.1027	-0.0908	0.0945	-0.0495	-9.2
0.0922	-0.0743	0.078	-0.0091	-8.9
0.0855	-0.027	0.0705	0.0352	-9
0.0742	-0.003	0.075	0.0667	-8.7
0.0592	0.0067	0.087	0.096	-8.3
0.0367	0.0225	0.0997	0.1072	-8.1
0.0067	0.033	0.1102	0.0945	-8
-0.024	0.0277	0.1177	0.0802	-7.9
-0.0458	0.0195	0.126	0.027	-7.7
-0.0645	0.0037	0.132	-0.0458	-7.6
-0.0863	-0.0068	0.1372	-0.096	-7.3
-0.0923	-0.003	0.1447	-0.114	-7.1
-0.0915	0.0045	0.1477	-0.1043	-7
-0.0915	0.0195	0.1522	-0.0675	-6.9
-0.0871	0.033	0.1522	-0.0128	-6.8
-0.081	0.0427	0.1492	0.0337	-6.6
-0.0863	0.0367	0.1537	0.0405	-6.5
-0.1245	0.0277	0.1567	0.0292	-6.3
-0.1538	0.0225	0.1537	0.0307	-6.2
-0.1441	0.0217	0.1755	0.0367	-6
-0.156	0.0315	0.2175	0.033	-6
-0.1628	0.0427	0.2287	0.0255	-5.7
-0.1455	0.0487	0.2272	0.0255	-5.5
-0.1133	0.0577	0.2017	0.03	-5.5
-0.0706	0.063	0.1672	0.0225	-5.3
-0.048	0.0082	0.132	-0.0143	-5.4
-0.021	-0.0308	0.0795	-0.015	-5.4
-0.0068	-0.0113	0.0555	0.0157	-5.1
0.0015	-0.0053	0.0322	0.0202	-5.4
0.009	-0.003	0.0195	0.0307	-5.3
0.0142	-0.0075	0.0217	0.027	-5.4
-0.0015	-0.0165	0.0142	0.0232	-5.4
-0.042	-0.0518	0.0142	0.009	-5.3
-0.0135	-0.0833	0.0142	-0.0188	-5.4
0.0172	-0.0818	0.0165	0.003	-5.4
0.0075	-0.1155	0.0202	0.0217	-5.6
0.0172	-0.1095	0.0195	0.0187	-5.5
0.0127	-0.0293	0.0142	0.0112	-5.9
0.012	-0.0158	0.0052	-0.0038	-5.9
0.0322	-0.0105	-0.0068	0.003	-6.2
0.0615	0.0622	-0.0256	-0.0128	-6
0.0885	0.0855	-0.0383	-0.0346	-6.3
0.1005	0.075	-0.0436	-0.0278	-6.6
0.0982	0.063	-0.0563	-0.06	-6.8
0.0892	0.0637	-0.0683	-0.0878	-7.1
0.093	0.0735	-0.0735	-0.0593	-7.4
0.0892	0.0457	-0.0803	-0.0308	-7.4
0.078	-0.0053	-0.0856	-0.0165	-7.9
0.0637	-0.0488	-0.0856	-0.0195	-8
0.054	-0.0405	-0.0818	-0.0165	-8.5
0.045	0.003	-0.0856	-0.0015	-8.9
0.03	0.0172	-0.0878	0.0067	-9.1
0.0157	-0.0075	-0.0825	0.0217	-9.6
0.0015	-0.0015	-0.0795	0.0412	-9.9
-0.0038	0.0382	-0.0743	0.0532	-10.2
-0.0015	0.048	-0.0653	0.048	-10.6
-0.0068	0.0427	-0.0518	0.045	-10.8
-0.0158	0.03	-0.0368	0.0292	-11.3
-0.0158	-0.0046	-0.0248	-0.0143	-11.7
-0.012	-0.0405	-0.0135	-0.0465	-11.9
-0.0195	-0.0518	-0.0068	-0.0465	-12.4
-0.027	-0.0698	0.0037	-0.0218	-12.6
-0.0195	-0.0983	0.0067	-0.012	-12.8
-0.0075	-0.0668	0.0082	-0.0105	-13.3
0.0052	-0.0458	0.0052	-0.0053	-13.4
0.0292	-0.0511	-0.0091	-0.0046	-13.7
0.057	-0.024	-0.0165	-0.0023	-13.9
0.0787	-0.0053	-0.0203	0.0015	-14.2
0.0907	0.0202	-0.0143	0.0232	-14.3
0.078	0.033	-0.0128	0.0315	-14.4
0.0607	0.0337	-0.0165	0.0315	-14.8
0.0502	0.0352	-0.003	0.0315	-14.8
0.0225	0.0195	0.0052	0.0052	-14.6
-0.0098	0.0202	-0.0023	-0.0105	-14.9
-0.0218	0.0345	-0.0053	-0.003	-15
-0.0053	0.0495	-0.0105	0.0195	-15.1
0.0232	0.078	0.0045	0.0465	-15.1
0.048	0.1057	0.0427	0.0645	-15
0.042	0.0892	0.0727	0.0615	-15.1
0.0157	0.0427	0.093	0.042	-15.3
0.003	0.0345	0.0975	0.0292	-15
-0.0038	0.0187	0.0862	0.0052	-15.1
-0.0046	0.0007	0.0742	0.0037	-14.9
-0.0015	0.012	0.0592	0.0112	-14.9
-0.0053	-0.012	0.0367	-0.0083	-14.8
-0.0158	-0.0428	0.0172	-0.0248	-14.7
-0.0315	-0.0713	0.003	-0.0308	-14.3
-0.039	-0.0908	-0.0105	-0.0256	-14.4
-0.0405	-0.0878	-0.0181	-0.0158	-14
-0.0413	-0.054	-0.024	0.027	-14
-0.0383	-0.0015	-0.033	0.0255	-13.7
-0.042	0.0052	-0.0488	-0.03	-13.4
-0.0405	0.0307	-0.0578	-0.0706	-13.5
-0.0428	0.0217	-0.054	-0.1238	-13.1
-0.0525	-0.0548	-0.0503	-0.0998	-13
-0.0511	-0.1373	-0.0465	-0.045	-12.9
-0.054	-0.177	-0.0511	-0.0263	-12.5
-0.0675	-0.1103	-0.0495	0.0045	-12.5
-0.0706	-0.0518	-0.048	-0.003	-12.2
-0.063	-0.0128	-0.0518	-0.0203	-12.2
-0.0563	-0.0068	-0.0443	-0.0398	-12.1
-0.045	-0.042	-0.0323	-0.0428	-12.2
-0.0278	-0.021	-0.0346	-0.0015	-11.9
-0.0165	0.0067	-0.0473	0.0165	-12.1
-0.0128	-0.0046	-0.0465	0.0067	-11.8
0.0007	-0.0008	-0.03	0.0045	-12
0.0157	-0.0046	-0.021	0.0037	-11.7
0.0232	-0.0158	-0.0158	0.0135	-11.8
0.024	0.018	-0.0218	0.033	-11.9
0.0165	0.0367	-0.0278	0.045	-11.7
0.0052	0.0502	-0.0181	0.051	-11.9
-0.0038	0.0615	-0.0113	0.054	-11.9
0.0045	0.0577	-0.0105	0.063	-11.9
0.0735	0.0622	-0.0195	0.0652	-12
0.1672	0.054	-0.0233	0.0427	-11.9
0.1695	0.0465	-0.0195	0.0195	-12
0.1485	0.0232	-0.0218	0.0007	-12
0.1387	-0.0083	-0.0181	-0.024	-12.2
0.1027	-0.0113	-0.0083	-0.0203	-11.9
0.0907	-0.0105	-0.0015	0.0067	-12.1
0.0742	-0.0195	0.0037	0.0082	-11.8
0.0592	-0.0068	0.0075	-0.0015	-12.2
0.0397	0.0285	0.0082	-0.0173	-12.1
0.0225	0.045	0.0127	-0.0315	-12.2
0.021	0.0255	0.0202	-0.039	-12.3
0.027	0.0255	0.0195	-0.027	-12.2
0.0255	0.0315	0.012	-0.0038	-12.2
0.0052	0.024	0.0165	-0.003	-12.2
-0.0098	0.0195	0.0232	-0.0015	-12.2
-0.0165	0.0097	0.0157	0.0067	-12.3
-0.0053	0.009	0.0045	0.012	-12.2
-0.0083	0.003	-0.0008	0.021	-12.5
-0.0165	0.0007	0.003	0.0202	-12.3
-0.0278	0.0022	0.0045	0.0195	-12.3
-0.045	-0.0038	0.003	0.0127	-12.2
-0.0555	-0.0053	0.012	-0.0008	-12.4
-0.0743	-0.0083	0.0165	-0.0053	-12.2
-0.078	0.0022	0.0165	0.003	-12.3
-0.0803	0.0135	0.0202	0.012	-12.1
-0.0735	0.0187	0.027	0.012	-12.2
-0.066	0.0217	0.0382	0.0217	-12.1
-0.0691	0.0232	0.0405	0.0127	-12.1
-0.0563	0.0105	0.045	-0.0128	-12.2
-0.0256	-0.0068	0.0525	-0.0105	-12.1
-0.0195	-0.0128	0.0502	-0.015	-11.9
-0.0436	-0.0203	0.0495	-0.0165	-11.9
-0.0413	-0.0248	0.0525	-0.012	-11.8
-0.048	-0.0308	0.045	-0.0128	-11.9
-0.0495	-0.0278	0.033	-0.0038	-11.9
-0.0323	-0.012	0.0247	-0.0015	-11.8
-0.021	-0.0105	0.018	0	-11.7
0.0165	-0.0083	0.018	0.0007	-11.7
0.0457	-0.0068	0.0225	0.0007	-11.6
0.0532	-0.0023	0.0322	0.006	-11.9
0.0637	0.0022	0.0285	0.0075	-11.6
0.0667	0.0022	0.0105	0.0067	-11.7
0.0652	0.0015	0.0015	0.0082	-11.7
0.0675	0.0015	-0.006	0.0135	-11.6
0.1125	0.0007	-0.0128	0.018	-11.7
0.1477	-0.0008	-0.0165	0.009	-11.7
0.0967	-0.0046	-0.027	-0.003	-11.6
0.1132	-0.0083	-0.0323	-0.0105	-11.7
0.159	-0.0091	-0.0375	-0.0203	-11.6
0.1237	-0.0038	-0.0353	-0.0083	-11.6
0.0892	0.003	-0.0315	0.015	-11.6
0.057	0.0045	-0.0346	0.012	-11.7
0.0217	0.0007	-0.0293	0.0045	-11.5
-0.0015	-0.0015	-0.0263	-0.0046	-11.6
-0.0233	-0.003	-0.027	-0.003	-11.3
-0.0375	-0.0015	-0.0278	0.0082	-11.6
-0.0503	0.003	-0.0293	0.0135	-11.5
-0.0691	0.0105	-0.027	0.0195	-11.6
-0.0893	0.0127	-0.024	-0.0038	-11.7
-0.105	0.0067	-0.0225	-0.0346	-11.5
-0.1088	0.003	-0.024	-0.0315	-11.7
-0.108	0.0045	-0.0278	-0.0128	-11.7
-0.0975	0.0082	-0.0278	0.0007	-11.4
-0.0773	0.012	-0.0233	0.0015	-11.7
-0.057	0.0105	-0.0233	0.003	-11.7
-0.0458	-0.0053	-0.0218	0.0022	-11.7
-0.0555	-0.0293	-0.0233	0.0007	-11.7
-0.0638	-0.0346	-0.0233	-0.0046	-11.7
-0.0593	-0.0195	-0.0165	-0.012	-11.7
-0.0615	-0.0083	-0.0105	-0.0128	-11.7
-0.0698	-0.0046	-0.0075	-0.0083	-11.5
-0.0871	-0.0015	-0.0135	-0.0046	-11.5
-0.084	-0.0046	-0.0165	-0.0023	-11.4
-0.0533	-0.0015	-0.0143	0.003	-11.6
-0.045	0.0015	-0.0105	0.003	-11.6
-0.0518	-0.0008	-0.006	0.003	-11.3
-0.0593	-0.0008	-0.006	0	-11.3
-0.0721	-0.0008	-0.0046	-0.0008	-11.3
-0.0788	-0.0008	-0.0046	0	-11.2
-0.0833	-0.0015	-0.0046	0.0052	-11.4
-0.0765	0.0015	-0.0053	0.021	-11.1
-0.0638	0.0045	-0.0046	0.0292	-11.3
-0.0555	0.003	-0.006	0.0337	-11.2
-0.0503	0.003	-0.0038	0.027	-11.1
-0.0518	0.0007	0.003	-0.0046	-11.1
-0.0533	-0.0046	-0.0008	-0.0353	-11.1
-0.0503	-0.0068	-0.0023	-0.0413	-10.8
-0.0458	-0.0098	0.0015	-0.045	-11.1
-0.039	-0.0128	0.0022	-0.0338	-10.8
-0.0346	-0.006	0.003	-0.0046	-10.8
-0.0346	0.0015	0	0.009	-10.8
-0.033	0.0045	-0.003	0.0127	-10.7
-0.0308	0.0052	-0.0008	0.0172	-10.7
-0.0248	0.0037	0.006	0.0232	-10.6
-0.0143	0.0015	0.0127	0.0202	-10.5
0.0007	0.0052	0.018	0.0142	-10.6
0.0112	0.0127	0.0202	0.012	-10.4
0.0075	0.009	0.024	0.0067	-10.4
0.0052	0.0045	0.0292	-0.0038	-10.4
0.0082	0.003	0.0315	-0.0128	-10.2
0.0097	0.0015	0.036	-0.0046	-10.1
0.0127	-0.0023	0.0405	0.0202	-10.1
0.0165	-0.0046	0.042	0.045	-9.8
0.0255	-0.0075	0.0427	0.0457	-9.9
0.0292	-0.0233	0.0442	0.024	-9.6
0.0345	-0.0308	0.0442	-0.0075	-9.6
0.0367	-0.0285	0.0382	-0.0428	-9.7
0.0345	-0.012	0.0337	-0.0503	-9.4
0.0367	0.018	0.033	-0.0165	-9.5
0.0457	0.0307	0.03	0.0007	-9.4
0.054	0.0442	0.0217	-0.0053	-9.1
0.0577	0.054	0.015	-0.0046	-9.3
0.0562	0.0375	0.0127	-0.0165	-8.8
0.0472	0.0045	0.0105	-0.0195	-9
0.0367	-0.0188	0.009	-0.0083	-8.7
0.0345	-0.0195	0.0082	0	-8.8
0.033	-0.0413	0.0075	0.0052	-8.6
0.0307	-0.0548	0.006	0.0127	-8.6
0.0292	-0.0233	0.0127	0.0375	-8.5
0.0255	0	0.0307	0.0442	-8.6
0.0195	-0.0023	0.033	0.0202	-8.3
0.0127	-0.0135	0.0127	-0.0098	-8.2
0.0157	-0.0233	-0.0015	-0.0308	-8.3
0.018	-0.0143	-0.0083	-0.0278	-8.1
0.0217	-0.0023	-0.0158	-0.0091	-8.1
0.027	0.006	-0.015	0.012	-8.1
0.0315	0.0157	-0.0143	0.018	-8.1
0.039	0.015	-0.0128	0	-7.9
0.0427	0.0127	-0.0143	-0.0135	-7.8
0.0502	0.012	-0.0181	-0.012	-7.8
0.0555	0.012	-0.0195	-0.0053	-7.7
0.06	0.0127	-0.0256	-0.0038	-7.7
0.0615	0.009	-0.0293	-0.0105	-7.5
0.0622	0.0052	-0.0308	-0.0135	-7.6
0.0667	0.0015	-0.033	-0.0158	-7.4
0.0652	0.0007	-0.0368	-0.0105	-7.4
0.06	0.0007	-0.0413	0.0015	-7.2
0.048	-0.0038	-0.0443	0.0075	-7.2
0.0367	-0.0053	-0.0413	0.0105	-7.2
0.0307	-0.0046	-0.0405	0.012	-7.1
0.0112	-0.0015	-0.039	0.012	-7.1
-0.0053	0.0015	-0.0405	0.012	-6.9
0.0022	0.0007	-0.0503	0.0105	-6.8
0.012	0.0015	-0.0495	0.0127	-6.9
0.0217	0.0067	-0.0428	0.0127	-6.8
0.024	0.0045	-0.0353	0.0075	-6.8
0.0127	0.0015	-0.0285	0.0067	-6.7
0.009	0	-0.0308	0.0052	-6.5
0.003	-0.0015	-0.033	0.0075	-6.6
-0.0046	-0.0008	-0.0361	0.0127	-6.6
-0.0083	-0.003	-0.0436	0.0127	-6.3
-0.0038	-0.0038	-0.0555	0.003	-6.4
0.0045	-0.0068	-0.0675	-0.0083	-6.3
0.0007	-0.0105	-0.0675	-0.0143	-6.2
-0.0046	-0.0113	-0.0608	-0.0091	-6.2
-0.003	-0.0075	-0.0518	-0.0075	-6.1
0.0045	-0.0038	-0.0443	-0.0128	-6.1
0.009	-0.003	-0.0346	-0.0181	-6
0.0127	-0.0046	-0.024	-0.0181	-6
0.0142	-0.0046	-0.0173	-0.006	-6
0.0135	-0.0023	-0.012	0.0045	-5.8
0.0135	0.0007	-0.0023	0.0045	-5.9
0.0082	-0.0008	0.009	0.0052	-5.7
-0.0015	0.0022	0.0195	0.0105	-5.8
-0.0158	0.0045	0.0277	0.009	-5.6
-0.0248	0.003	0.0322	0.0082	-5.7
-0.0256	0.003	0.0352	0.015	-5.4
-0.027	0.003	0.039	0.0187	-5.6
-0.0293	0.003	0.0405	0.018	-5.4
-0.033	0.0007	0.0435	0.0112	-5.4
-0.0368	-0.0015	0.0465	0.009	-5.4
-0.0338	-0.0015	0.045	0.009	-5.3
-0.0353	-0.0023	0.0457	0.006	-5.2
-0.0368	-0.003	0.0435	0.003	-5.2
-0.0353	-0.0046	0.0405	-0.0091	-5
-0.0368	-0.0046	0.039	-0.024	-5.2
-0.0368	-0.0053	0.039	-0.0285	-5
-0.0383	-0.0053	0.042	-0.0248	-5
-0.0361	-0.0068	0.0382	-0.0195	-4.9
-0.0375	-0.0015	0.0382	-0.0046	-4.8
-0.039	0.003	0.0375	-0.0015	-4.9
-0.0405	-0.0015	0.0405	-0.0135	-4.8
-0.0323	-0.0008	0.042	-0.0113	-4.6
-0.0181	0.003	0.0442	-0.0105	-4.7
-0.0091	0.0037	0.0472	-0.0008	-4.5
-0.0053	0.003	0.048	0.0037	-4.5
-0.0098	0.0007	0.0487	-0.0015	-4.5
-0.0143	0.0022	0.0465	0.0067	-4.4
-0.0113	0.0022	0.0442	0.0067	-4.4
-0.0068	0.0037	0.042	0.0097	-4.4
-0.0091	0.0037	0.039	0.015	-4.2
-0.012	0.0015	0.0382	0.0195	-4.3
-0.0105	0.0015	0.0382	0.0232	-4.1
-0.0128	-0.0015	0.0375	0.018	-4.2
-0.0098	-0.0008	0.0367	0.0157	-4
-0.0046	0	0.0352	0.0045	-4.1
-0.0023	-0.0015	0.0292	-0.0165	-3.9
0	-0.003	0.0255	-0.027	-4
0.0015	-0.0038	0.024	-0.0203	-3.9
-0.0008	-0.0015	0.0217	-0.0113	-3.8
-0.0023	0.0015	0.0195	-0.003	-3.7
-0.0023	0.0015	0.015	0.003	-3.8
-0.0023	0.0045	0.012	0.0045	-3.8
0.0127	0.009	0.0082	0.0105	-3.6
0.0352	0.0067	0.0007	0.012	-3.5
0.0165	0.0022	-0.0038	0.009	-3.5
0.015	0.0007	-0.0091	0.0135	-3.5
0.0637	-0.0015	-0.0158	0.0187	-3.5
0.0262	-0.0015	-0.0218	0.009	-3.3
-0.042	-0.003	-0.0233	-0.0023	-3.3
-0.0585	-0.0053	-0.0218	-0.0053	-3.3
-0.0593	-0.0075	-0.0256	-0.0158	-3.2
-0.0383	-0.0075	-0.027	-0.012	-3.2
-0.0308	-0.0038	-0.0285	-0.0008	-3.2
-0.0225	-0.0038	-0.03	-0.003	-3
-0.0263	-0.0023	-0.027	-0.0023	-3.2
-0.0353	0.0007	-0.0278	0.0045	-2.9
-0.0278	0.0037	-0.027	0.0075	-3
-0.0173	0.0052	-0.0293	0.0105	-2.9
-0.006	0.0045	-0.0353	0.015	-2.8
-0.0046	0.003	-0.0375	0.0165	-2.9
-0.0015	0.0007	-0.042	0.009	-2.7
-0.003	-0.0023	-0.0458	0.0015	-2.7
0.0007	-0.0015	-0.0443	0.0015	-2.8
0.0052	0.0015	-0.0405	-0.0008	-2.7
0.0165	0.0015	-0.0361	0.0022	-2.5
0.0292	0.0022	-0.0308	0.003	-2.5
0.0367	-0.0008	-0.0315	-0.0113	-2.6
0.0405	-0.0046	-0.0225	-0.0195	-2.5
0.039	-0.003	-0.0105	-0.0105	-2.4
0.0367	-0.003	-0.0113	-0.0015	-2.3
0.0307	-0.0053	-0.012	0.003	-2.4
0.0232	-0.0046	-0.0135	-0.0015	-2.3
0.0157	-0.006	-0.0195	-0.0083	-2.2
0.0112	-0.0053	-0.0195	-0.0083	-2.2
0.0112	-0.0075	-0.0165	-0.0053	-2
0.012	-0.0075	-0.0181	-0.0053	-2.2
0.0142	-0.0046	-0.0195	-0.0015	-1.9
0.018	-0.003	-0.0195	0.0082	-1.9
0.0165	0.0007	-0.0188	0.012	-2
0.0142	0.0022	-0.0165	0.0082	-1.8
0.0142	0.0045	-0.015	0.0082	-1.9
0.012	0.0007	-0.0158	0.0045	-1.8
0.0097	-0.0046	-0.0158	-0.0128	-1.6
0.006	-0.0068	-0.0158	-0.0181	-1.6
0.0067	-0.0091	-0.0143	-0.0038	-1.8
0.0007	-0.0105	-0.012	-0.0135	-1.5
-0.0046	-0.0046	-0.0068	-0.0143	-1.6
-0.0075	0.0052	-0.0008	0.012	-1.4
-0.012	0.0127	-0.0008	0.018	-1.4
-0.0165	0.0195	0.0007	0.0225	-1.4
-0.0233	0.0105	0	0.012	-1.4
-0.0293	-0.0083	-0.0015	-0.0083	-1.3
-0.033	-0.0105	-0.0008	-0.003	-1.2
-0.0383	-0.0023	-0.0008	0.0022	-1
-0.0428	0.009	0.0022	0.0157	-1.2
-0.0488	0.0052	0.0007	0.0195	-0.9
-0.054	-0.0068	0.0007	0.0082	-0.9
-0.0578	0.0007	0.0075	0.0105	-0.9
-0.06	0.006	0.0105	0.0157	-0.8
-0.0608	0.0007	0.0157	0.0142	-0.8
-0.06	0.0007	0.0172	0.0022	-0.8
-0.0578	-0.0053	0.0157	-0.0128	-0.6
-0.0518	-0.0053	0.0157	-0.0165	-0.8
-0.0458	-0.003	0.0172	-0.0135	-0.5
-0.0405	0	0.0195	-0.0135	-0.5
-0.0315	0.003	0.018	-0.0038	-0.5
-0.0195	0.0045	0.0187	0.0097	-0.3
-0.0091	0.0037	0.018	0.0142	-0.5
0.0022	-0.0015	0.0195	0.012	-0.4
0.012	-0.006	0.0195	0.0105	-0.4
0.024	-0.0105	0.0157	0.0157	-0.3
0.0367	-0.0091	0.012	0.0195	-0.2
0.0517	-0.003	0.0112	0.0277	-0.3
0.0705	0.0097	0.0105	0.018	-0.1
0.093	0.0225	0.0105	-0.0218	0
0.111	0.0307	0.0112	-0.0465	0
0.12	0.0292	0.0097	-0.0511	0
0.1252	0.03	0.0097	-0.0346	0.1
0.126	0.0352	0.0097	-0.0075	0
0.1222	0.0337	0.012	-0.0008	0.3
0.1117	0.0052	0.0105	-0.0113	0.1
0.0997	-0.0518	0.009	-0.024	0.2
0.0907	-0.0668	0.0105	-0.0203	0.1
0.0817	-0.0788	0.009	-0.0023	0.3
0.0742	-0.0885	0.0097	0.003	0.4
0.063	-0.0375	0.0112	-0.0015	0.3
0.0532	-0.0128	0.0127	-0.0098	0.4
0.0435	-0.0083	0.0082	-0.0046	0.6
0.036	0.0037	0.0045	0.012	0.4
0.0292	0.0052	0.0052	0.0052	0.5
0.0225	0.009	0.0022	0	0.5
0.0157	0.009	-0.0015	0.0075	0.6
0.009	0.012	-0.0008	0.0105	0.6
0.003	0.0135	-0.003	0.0142	0.7
-0.0015	0.0105	-0.003	0.0127	0.5
-0.006	0.0097	-0.003	0.0127	0.9
-0.0098	0.009	-0.0046	0.0127	0.6
-0.0158	0.0075	-0.0068	0.009	0.8
-0.0218	0.0067	-0.0113	0.0067	0.7
-0.0256	0.0052	-0.0113	0.0045	0.7
-0.0256	0.003	-0.0128	0.006	0.9
-0.027	0.003	-0.015	0.0067	0.7
-0.0285	0.003	-0.0143	0.0105	0.8
-0.0278	0.003	-0.0135	0.0127	0.9
-0.0293	0.003	-0.0143	0.0172	0.8
-0.0315	0.003	-0.0158	0.021	0.9
-0.033	0.003	-0.0143	0.0232	0.9
-0.0308	0.0045	-0.012	0.0255	0.9
-0.0315	0.003	-0.0143	0.0045	0.9
-0.033	-0.003	-0.0173	-0.027	1
-0.033	-0.0068	-0.0203	-0.0458	1
-0.033	-0.0091	-0.0225	-0.0518	1
-0.0338	-0.0068	-0.0233	-0.0315	0.9
-0.0338	-0.0038	-0.0181	-0.0038	1.1
-0.0315	-0.0023	-0.0135	0.0015	1.1
-0.0308	-0.0015	-0.0135	0.009	1.2
-0.0278	0	-0.0128	0.0142	1.2
-0.0278	0.003	-0.0105	0.0142	1.1
-0.0278	0.0067	-0.0091	0.0157	0.9
-0.0248	0.0082	-0.0083	0.006	1.3
-0.024	0.0075	-0.0046	0.0015	1.1
-0.024	0.0022	-0.0046	-0.0023	1.3
-0.0233	0	-0.0015	-0.0015	1.3
-0.0225	-0.0015	0.0022	-0.0008	1.2
-0.0203	-0.0015	0.003	-0.0023	1.3
-0.0181	0.0015	0.0022	0.0082	1.3
-0.0195	0.0007	0.003	0.0217	1.4
-0.0203	0.003	0.0075	0.033	1.3
-0.0188	0.0052	0.009	0.0307	1.3
-0.0143	0.003	0.0067	0.0142	1.4
-0.0135	-0.0015	0.006	-0.0083	1.3
-0.0143	-0.003	0.0067	-0.0233	1.3
-0.012	-0.0023	0.0082	-0.0195	1.2
-0.0105	-0.0046	0.009	-0.0188	1.3
-0.0083	-0.0038	0.0097	-0.0203	1.5
-0.0083	-0.0008	0.006	-0.0158	1.3
-0.0068	-0.0015	-0.0008	-0.015	1.3
-0.0068	-0.0038	-0.0008	-0.0143	1.5
-0.0053	-0.003	0.0045	-0.012	1.5
-0.003	-0.003	0.0075	-0.0105	1.6
-0.0046	-0.003	0.009	-0.003	1.6
-0.0015	-0.0008	0.009	0.006	1.4
-0.0008	0.0007	0.0067	0.0142	1.5
-0.0008	0.0015	0.0037	0.0165	1.5
0	0.0015	0.0022	0.009	1.4
0.0007	0.0007	0	0.0007	1.7
0.0007	-0.0008	-0.0015	-0.0008	1.6
0.0015	-0.0008	-0.0038	-0.003	1.6
0.0022	-0.0008	-0.0053	-0.006	1.5
0	-0.0008	-0.006	-0.0075	1.5
0	-0.0008	-0.0083	-0.0038	1.7
0	0.0007	-0.0075	0.003	1.5
0.0022	0.0007	-0.0068	0.0067	1.6
0.0045	0.0015	-0.0068	0.0127	1.6
0.0067	0.0007	-0.0083	0.0172	1.5
0.0082	-0.0015	-0.0091	0.0142	1.6
0.0097	0.0007	-0.0091	0.012	1.7
0.0142	0.003	-0.0113	0.0105	1.7
0.018	0.0037	-0.012	0.0112	1.6
0.0195	0.0052	-0.012	0.0142	1.5
0.018	0.0067	-0.0128	0.0142	1.6
0.0195	0.0067	-0.0158	0.012	1.7
0.018	0.0052	-0.0173	0.0082	1.5
0.0165	0.0022	-0.0113	0.003	1.7
0.0157	-0.0008	-0.0091	-0.0008	1.5
0.0142	-0.0023	-0.0046	-0.003	1.7
0.009	-0.0038	-0.003	-0.0046	1.8
0.003	-0.003	0	-0.0015	1.7
0.0022	-0.0015	0.0052	0	1.8
0	-0.0015	0.0075	-0.003	1.7
-0.0015	-0.0015	0.012	-0.0038	1.7
-0.0023	-0.0015	0.015	-0.0046	1.8
-0.0053	-0.0015	0.015	-0.0015	1.6
-0.006	0.0007	0.0135	0.0015	1.7
-0.0083	0.0007	0.0135	0.0045	1.8
-0.0091	0.003	0.0135	0.0067	1.7
-0.0091	0.003	0.0142	0.0082	1.8
-0.0113	0.0015	0.0127	0.0097	1.8
-0.012	0.0007	0.015	0.012	1.7
-0.0135	-0.003	0.0165	0.0022	1.8
-0.0143	-0.006	0.015	-0.0128	1.7
-0.0135	-0.0091	0.0135	-0.0248	1.8
-0.015	-0.012	0.012	-0.0375	1.7
-0.0143	-0.0128	0.0127	-0.0428	1.6
-0.0143	-0.0083	0.0157	-0.027	1.8
-0.015	-0.003	0.0172	-0.0165	1.6
-0.0128	-0.0008	0.0195	-0.0135	1.6
-0.0128	0.003	0.0217	-0.0008	1.7
-0.012	0.0052	0.0217	0.0105	1.7
-0.0135	0.0052	0.0217	0.0165	1.6
-0.0143	0.003	0.021	0.0142	1.8
-0.0135	0.0037	0.0202	0.0127	1.5
-0.0143	0.003	0.021	0.015	1.7
-0.012	0.0022	0.018	0.0082	1.7
-0.0105	0.0007	0.018	0.006	1.8
-0.0098	-0.0015	0.0202	0.006	1.8
-0.0091	0.0007	0.0165	0.0075	1.5
-0.0083	0.0007	0.0105	0.0052	1.8
-0.0075	0.0007	0.0045	-0.0015	1.6
-0.0068	0.0007	-0.003	-0.003	1.5
-0.0075	0.0022	-0.0113	0.0015	1.7
-0.0068	0.0045	-0.0188	0.009	1.6
-0.0015	0.0037	-0.0263	0.0157	1.5
-0.0008	0.0015	-0.033	0.018	1.6
0	0	-0.039	0.0195	1.6
0.0007	0.0007	-0.042	0.0307	1.6
0.0045	0.0007	-0.042	0.0292	1.7
0.009	-0.0053	-0.042	0.0015	1.5
0.0105	-0.0091	-0.0413	-0.0203	1.7
0.0127	-0.0091	-0.0405	-0.0443	1.5
0.0142	-0.0113	-0.0405	-0.066	1.5
0.0127	-0.0075	-0.039	-0.0503	1.6
0.0112	0	-0.0383	-0.021	1.5
0.0097	0.0015	-0.0368	-0.0091	1.7
0.009	0.0045	-0.0323	-0.0038	1.5
0.0105	0.0052	-0.0285	0	1.4
0.012	0.0015	-0.0278	0.0067	1.5
0.0112	0.0015	-0.0278	0.0157	1.3
0.0112	0.0007	-0.0263	0.018	1.4
0.012	-0.0008	-0.0248	0.018	1.4
0.0135	-0.0015	-0.0233	0.0165	1.3
0.0157	-0.0015	-0.0195	0.018	1.3
0.018	0.0015	-0.0158	0.0255	1.5
0.018	0.0007	-0.0135	0.027	1.3
0.0202	0.0007	-0.0083	0.0277	1.5
0.0202	0.0007	-0.0038	0.015	1.3
0.0195	-0.003	-0.003	-0.0053	1.5
0.0165	-0.003	-0.0008	-0.0195	1.4
0.0165	-0.0068	-0.0008	-0.0375	1.3
0.0165	-0.0091	-0.0008	-0.0218	1.4
0.0135	-0.0046	0.0007	0.0112	1.3
0.0112	-0.0015	0.0022	0.0127	1.4
0.0082	-0.003	0.0045	0.0045	1.3
0.006	-0.0015	0.006	-0.0098	1.3
0.0015	-0.0023	0.0097	-0.0158	1.3
-0.0008	-0.0015	0.0135	-0.0015	1.3
-0.0008	-0.0023	0.0127	0.0015	1.4
-0.0023	-0.0046	0.0135	-0.0098	1.3
-0.003	-0.0046	0.0165	-0.0158	1.3
-0.0046	-0.0008	0.015	-0.0068	1.3
-0.0038	0.0052	0.0157	0.0067	1.2
-0.0053	0.0075	0.012	0.012	1
-0.0068	0.009	0.0105	0.012	1.2
-0.0068	0.009	0.0075	0.0135	1.2
