File Name: depie.log
Channel 4: 'Recto Femoral', 11403 values, engineering units: mV, no filters.
Channel 5: 'Biceps Femoral', 11403 values, engineering units: mV, no filters.
Channel 6: 'Vasto Medial', 11403 values, engineering units: mV, no filters.
Channel 7: 'EMG Semitendinoso', 11403 values, engineering units: mV, no filters.
Channel 8: 'Flexo-Extension', 11403 values, engineering units: deg, no filters.

0	0.0052	0.0007	-0.003	-4.6
-0.0015	-0.0068	0.003	-0.0091	-4.5
-0.0053	-0.0458	-0.0008	-0.0098	-4.6
-0.0068	-0.0398	-0.0008	-0.0068	-4.6
-0.003	-0.0368	-0.0038	-0.0046	-4.5
0	-0.039	-0.003	-0.0015	-4.7
0	-0.0128	0.0022	-0.0008	-4.6
-0.0015	-0.0128	0.0015	-0.003	-4.6
-0.0015	-0.0158	0.0007	-0.0015	-4.5
0.0045	-0.0143	0.0022	-0.0015	-4.6
0.0015	-0.0053	0.0045	0.0045	-4.7
-0.0046	0.003	0.003	0.0045	-4.5
-0.0046	-0.0015	0.0015	0.0045	-4.7
-0.003	0.0052	0.0007	0.0067	-4.6
-0.0015	0.0052	-0.0015	0.006	-4.8
-0.0046	0.0067	0.0007	0.003	-4.6
-0.0015	0.006	-0.003	0.003	-4.6
-0.0008	0.006	-0.0046	0.0052	-4.6
0.0007	0.0082	-0.003	0.0067	-4.8
0.0037	0.0075	-0.0046	0.0112	-4.5
0.0045	0.0052	0	0.0097	-4.8
0.0015	0.003	0.0022	0.0045	-4.5
0.0022	0.003	0.0007	0.0007	-4.8
0.0015	0.0022	0.0015	-0.0015	-4.5
0.0015	0.0015	0.0015	-0.0068	-4.6
0.0045	-0.0068	-0.0015	-0.0083	-4.4
0.0075	-0.0158	-0.0015	-0.003	-4.8
0.009	-0.0105	-0.003	0	-4.6
0.0052	0.0127	-0.0038	0	-4.5
0.003	0.033	-0.0038	0.0022	-4.5
0.0007	0.0255	-0.003	0.003	-4.7
-0.003	0.0097	-0.003	0.0015	-4.5
-0.0023	0.012	-0.0015	0.003	-4.6
-0.0046	0.0157	0.0007	0.0045	-4.6
-0.0083	0.0142	0.003	0.0037	-4.6
-0.012	0.0097	0.0045	0.0007	-4.5
-0.0135	-0.0046	-0.0008	-0.0008	-4.6
-0.0083	-0.0091	-0.0008	-0.0008	-4.5
-0.003	-0.0218	0.003	-0.0038	-4.7
0.0015	-0.0315	0.0037	-0.0015	-4.6
0.0052	-0.0053	0.0037	0.0022	-4.6
0.0082	0.0007	0.003	0.0015	-4.6
0.006	-0.0015	0.003	-0.0046	-4.5
0.0007	0.0075	0.0022	-0.0038	-4.7
-0.0038	0.0082	0.0022	0.0015	-4.5
-0.0091	0.0135	0.0037	0.009	-4.7
-0.0068	0.0112	0.0052	0.0127	-4.6
-0.0008	0.0015	0.0037	0.0112	-4.5
0.006	-0.0008	-0.0008	0.0082	-4.7
0.0052	0.009	-0.0008	0.0075	-4.7
0.0022	0.0127	0.0015	0.003	-4.6
0.003	0.0075	-0.0008	-0.0046	-4.6
0.0015	-0.0008	-0.003	-0.012	-4.5
0.003	-0.021	-0.003	-0.0158	-4.7
0.0135	-0.0346	-0.0046	-0.0135	-4.7
0.018	-0.0293	-0.0053	-0.0083	-4.6
0.009	-0.0143	-0.0046	-0.0038	-4.5
0.0075	-0.0053	-0.003	-0.0015	-4.7
0.0045	-0.0046	-0.0046	-0.0008	-4.6
0.003	-0.0015	-0.003	0.003	-4.8
0.0015	-0.0015	-0.003	0.0022	-4.7
-0.003	-0.0008	-0.0053	0.0007	-4.8
-0.003	0.0007	-0.003	0.0007	-4.5
-0.003	0	0.0015	0.0007	-4.8
-0.003	-0.0015	0.0007	0.0015	-4.6
-0.0068	0.0045	0.0007	0.0015	-4.6
-0.0083	0.0082	-0.0008	0.0007	-4.6
-0.0038	0.0067	-0.003	0	-4.8
-0.0023	0.0052	-0.003	0.0007	-4.6
-0.0046	0.0015	0	0.0015	-4.7
-0.0046	0.003	0.0015	0.0015	-4.7
-0.0046	0.003	0.0037	0.003	-4.6
-0.0046	0.0015	0.0045	0.0045	-4.7
-0.0015	0.0007	0.0022	0.0045	-4.5
0.0007	0.0022	0.003	0.0052	-4.8
0.0022	0.0015	-0.0008	0.0045	-4.5
0.0022	-0.0008	-0.006	0.0037	-4.8
-0.0008	-0.0046	-0.0053	0.0015	-4.6
0	-0.0091	-0.0008	0	-4.8
-0.0008	-0.0046	0.0007	0.0045	-4.5
-0.0008	0.0015	0.0015	0.0022	-4.7
0	0.003	0.0007	0.0007	-4.7
-0.0023	-0.003	0.0015	-0.0023	-4.8
-0.0046	-0.0128	0.0015	-0.0046	-4.6
-0.003	-0.012	0.0007	-0.0023	-4.7
0.0022	-0.0023	-0.0023	-0.0008	-4.7
0.0007	0.0015	-0.0038	0.0007	-4.9
-0.0023	0.0007	-0.003	0.0007	-4.5
-0.0046	0.0022	-0.0046	0.0007	-4.7
-0.0038	0.0037	-0.006	-0.0015	-4.7
0.0007	0.0045	-0.0083	-0.0008	-4.8
0.0007	0.003	0.003	-0.0008	-4.7
-0.0015	-0.0015	0.0112	-0.0008	-4.8
-0.0046	-0.0015	0.0075	0.003	-4.8
-0.0038	-0.0008	0.0045	0.003	-4.7
-0.0068	-0.0015	-0.003	0.0007	-4.8
-0.0113	-0.0015	-0.0075	0	-4.8
-0.006	0.0022	-0.003	0.0022	-4.7
0.0037	0.0037	0.0052	0.003	-4.8
0.0075	0.0015	0.009	0.0045	-4.7
0.0075	0.0015	0.003	0.003	-4.8
0.0067	0.0007	0	0.0015	-4.6
0.003	-0.003	0.0015	0.0007	-4.9
-0.0008	-0.0038	0.0045	-0.0008	-4.6
0.003	-0.003	0.0052	0.0007	-4.7
0.0067	0	0	0.0022	-4.9
0.0045	-0.0008	-0.003	0	-4.7
-0.0015	-0.0008	-0.006	0.0015	-5
-0.003	0.0015	-0.0075	0.0015	-4.7
-0.0008	-0.0008	-0.0023	-0.0008	-4.8
-0.003	-0.003	-0.0015	-0.0008	-4.5
-0.006	-0.0008	-0.0023	0.0007	-4.7
-0.0015	-0.0015	-0.0046	0	-4.8
-0.0015	-0.0023	-0.0053	0.0007	-4.8
-0.003	-0.0015	-0.0053	0.0007	-4.7
0.0007	-0.0015	-0.0075	-0.0008	-4.8
-0.0015	-0.0015	-0.0083	0	-4.7
-0.0015	-0.0015	-0.0053	0.0015	-4.7
0	0	-0.003	0.0015	-4.8
0.0015	0.0022	-0.0008	0.003	-4.8
0.0007	0.0015	0.0007	0.0022	-4.6
0	0.0007	0.0022	0	-4.9
0.003	0.0015	0.003	0	-4.8
0.0015	-0.0008	0.0015	-0.0008	-5
0.0007	-0.003	0.003	-0.0015	-4.7
-0.003	-0.0015	0.003	-0.0015	-4.8
-0.0015	0.0015	0.0015	-0.0015	-4.7
0.0037	0.0045	0.0015	-0.0015	-4.8
0.0052	0.0015	0.0007	0	-4.8
0.009	0.0007	-0.0008	-0.0008	-4.8
0.0082	0.0007	-0.0008	-0.003	-4.7
0.0045	0	0	-0.0015	-4.7
-0.0015	-0.006	0.0015	-0.0023	-4.7
-0.003	-0.0135	0.0022	-0.003	-4.9
-0.0038	-0.012	-0.0015	0.0007	-4.7
-0.0091	-0.003	-0.0015	0.0037	-4.8
-0.0038	-0.0008	0.0007	0.003	-4.8
-0.0008	-0.0008	-0.0008	0.0022	-4.7
-0.0038	-0.0015	-0.0008	0	-4.7
-0.0046	-0.0008	-0.0015	0.0007	-4.7
-0.0053	0.0067	0.0015	0.0052	-4.8
-0.0046	0.0135	0.0007	0.0075	-4.5
0.0007	0.0157	-0.0046	0.0067	-4.8
0.006	0.0165	-0.0046	0.0067	-4.8
0.0082	0.0165	-0.0008	0.0045	-4.8
0.0067	0.009	0.003	0	-4.8
0.0045	0.003	0.0015	0.0007	-4.7
0.0045	-0.0181	-0.0008	-0.0015	-4.8
-0.0008	-0.0518	-0.0015	-0.0053	-4.7
-0.003	-0.0368	0.0007	0	-4.8
0.0007	-0.0053	0.003	0.0067	-4.8
-0.0008	-0.003	0.0007	0.006	-4.7
-0.0015	0.009	-0.0023	0.0067	-4.8
0.003	0.0052	-0.0023	0.0045	-4.6
0.0007	0.003	-0.0015	-0.0015	-5
-0.0008	0.0052	0.0007	-0.0023	-4.7
0.003	-0.0023	0.0007	-0.003	-4.9
0.003	0.0015	0	-0.0023	-4.6
0.0015	-0.006	-0.0008	-0.003	-4.7
0.0007	-0.0038	0.0015	-0.0015	-4.8
0.003	0.003	0.0045	0.003	-4.7
0.003	0.006	0.0045	0.003	-4.6
-0.0008	0.0067	0.0052	0.0015	-4.8
-0.0008	0.0022	0.006	0.0007	-4.6
-0.0015	0.003	0.009	0.0015	-5
-0.0023	0.0052	0.006	0.0052	-4.7
-0.0008	0.0075	-0.0015	0.0045	-4.9
0.0007	0.0067	-0.006	0.003	-4.7
-0.0008	0.0067	-0.0083	0.0037	-4.9
0	0.0097	-0.0068	0.0022	-4.9
0.0015	0.0127	-0.003	0.0052	-4.7
0.0045	0.0187	-0.003	0.006	-4.9
0.0045	0.0195	-0.0053	0.0007	-4.7
-0.0008	0.0045	-0.0053	-0.0053	-4.8
-0.003	-0.0218	-0.003	-0.0105	-4.6
-0.0015	-0.0323	-0.0015	-0.0091	-4.8
-0.0053	-0.0405	-0.0015	-0.0098	-4.9
-0.006	-0.054	-0.0008	-0.0083	-4.9
-0.003	-0.0405	0.0007	-0.003	-4.8
-0.0046	0.0052	0.0037	0	-4.8
-0.0015	0.0195	0.009	-0.0008	-4.8
0.0015	0.0007	0.0105	-0.0015	-4.9
-0.0015	-0.0008	0.0045	-0.0008	-4.8
-0.0023	-0.0023	0.003	0.0007	-4.9
0.003	0.0052	-0.0015	0.003	-4.6
0.0052	0.0082	-0.003	0.003	-4.9
0.0045	0.0037	-0.0015	0.0015	-4.6
0.003	0.0067	-0.003	0.0015	-5
0.003	0.0045	0.0007	0.0015	-4.8
-0.0008	0.003	-0.0008	0.003	-4.9
-0.0083	-0.0008	-0.0008	0.0015	-4.8
-0.0098	0.0007	-0.0046	0.0022	-5
-0.006	0.003	-0.0091	0.0052	-5
-0.0008	0.003	-0.006	0.0052	-4.9
0.0015	0.0045	-0.0015	0.0052	-4.9
-0.0015	0.0067	0.0015	0.0052	-5
-0.0046	0.0075	0	0.0067	-4.8
-0.0015	0.0037	-0.0008	0.0067	-4.9
-0.0008	0.003	-0.0015	0.0045	-4.8
0.0007	0.0037	-0.0046	0.003	-4.8
0.003	0.0045	-0.0053	0.0015	-4.8
0.0037	0.0052	-0.0046	0.0007	-4.9
0.0045	0.003	0.0007	-0.0008	-5
0.0052	-0.0023	0.0007	-0.0015	-4.7
0.0045	-0.0053	-0.0015	-0.0046	-5
0.0015	-0.0105	-0.0015	-0.006	-4.8
-0.0008	-0.0046	-0.003	-0.0015	-4.9
0	0.0015	-0.0038	-0.003	-4.9
0.0022	-0.0113	-0.0046	-0.0046	-4.9
0.0015	-0.0128	-0.0023	-0.003	-5
-0.0038	-0.0068	-0.003	-0.0015	-4.8
-0.0091	-0.0053	-0.003	-0.0015	-5
-0.0053	-0.003	-0.0008	-0.0008	-4.8
0.003	0.0022	0	0.0037	-5
0.0052	0.006	0.0015	0.0052	-4.9
0.003	0.0082	-0.0008	0.0067	-4.8
0.0007	0.0082	-0.0008	0.0052	-5
0.0007	0.0022	0.0045	0.0052	-4.8
0	0	0.0052	0.003	-5
0.0015	-0.0015	0.0045	0.0015	-4.8
0.0015	-0.0008	0.0082	0.003	-5
0.0015	-0.0008	0.009	0.0015	-4.8
0	-0.0015	0.0067	0.0015	-5
-0.0038	-0.0015	0.0037	-0.0008	-4.9
-0.006	-0.0008	0.0052	0.0015	-5
-0.003	0.003	0.0052	0.0007	-4.8
0.0007	0.003	0.0007	-0.0015	-5
0	0.0022	-0.0008	-0.0015	-4.8
0.0007	-0.0023	-0.0015	-0.0023	-4.9
0.0037	-0.0075	-0.0015	-0.0008	-4.9
0.0045	-0.0053	-0.003	0.0015	-5
0.0045	-0.0015	-0.003	0.003	-4.8
0.003	0	-0.0015	0.0015	-4.8
0.0015	-0.0008	-0.0023	0	-4.8
0.0007	-0.0008	-0.0015	0.0015	-4.9
0	0.0015	0.0015	0.0015	-5
0.0007	0.0045	0.0022	0.003	-4.9
-0.0008	0.0037	0.0007	0.0022	-5
0.003	0	-0.0008	0.0007	-4.9
0.0067	-0.0008	-0.0023	0	-5
0.003	-0.0015	0.0015	-0.0015	-5
-0.003	-0.003	0.0037	-0.0015	-4.9
-0.0053	-0.0023	0.0015	0.0022	-4.8
-0.0053	-0.0015	-0.0046	0.0022	-4.8
-0.0015	0	-0.0105	0.0007	-5.1
0.0067	0	-0.0068	0.0015	-4.8
0.006	-0.0015	-0.0053	-0.0008	-5
0.0015	-0.003	-0.0068	-0.0015	-5
-0.0015	-0.0023	-0.0053	-0.0008	-4.9
-0.0053	-0.0008	-0.0053	0.0007	-5.1
-0.0053	0.0007	-0.0023	0.0015	-4.8
-0.0015	0.0015	-0.0015	0.0015	-5.1
0.0007	0.0007	-0.0008	0.0022	-4.8
0.003	-0.0015	-0.0015	0.0007	-4.8
0.0007	-0.0015	0.0007	0.0015	-4.9
0	0.0022	0	0.0007	-5
0.0007	0.0007	0	-0.0015	-5
-0.0083	-0.0046	0.0015	-0.003	-4.9
-0.0098	-0.0015	0.0007	-0.0015	-5
-0.006	0.0015	-0.0015	0	-5
-0.0075	0.0037	-0.0046	0.0015	-5
-0.0015	0.003	-0.0023	0.003	-5
0.003	0.003	-0.0015	0.0037	-4.9
0.0015	0.0015	-0.0023	0.0037	-5
0.0015	-0.0008	-0.0015	0.0045	-4.8
-0.0008	-0.0068	0.0007	0.0015	-4.8
0.0007	-0.0053	0.0045	0.0007	-4.9
0.003	0.0052	0.0015	0.0007	-5
0.003	0.006	0.0007	0	-5.1
0.003	0.0052	0.0015	-0.0008	-4.8
0.0022	0.0067	0.0037	0	-5.1
0.003	0.0015	0	0.0007	-4.9
0.0015	-0.0008	-0.0015	0	-5
-0.0015	-0.0038	-0.0008	-0.0023	-5
-0.0091	-0.0046	-0.003	-0.0015	-5
-0.0075	-0.003	-0.0008	0	-5
0.0007	-0.0023	0.0015	0.0007	-5
0.003	0.0007	0.0037	-0.0008	-5.1
-0.0015	0.0037	0.0007	-0.003	-5
-0.0091	0.003	-0.0023	-0.0015	-5.1
-0.0075	0.003	0	-0.0015	-5.1
-0.003	0.003	-0.0015	0.0007	-4.9
-0.0038	0.0022	-0.0023	0.0015	-5
-0.0015	-0.0008	-0.0008	0.0007	-5
-0.0008	-0.0105	0.0015	-0.003	-5.1
0.0022	-0.021	0.0015	-0.0008	-4.9
0.0015	-0.0105	-0.0008	0.0045	-5
0.0007	0.0067	0	0.009	-5
0.0007	0.0082	0.0015	0.0105	-5
0.0007	0.0127	0.0007	0.0075	-4.9
0.0045	0.0112	0.0022	0.0022	-4.9
0.0067	0.0052	0.003	0	-5
0.006	0.0052	-0.0015	-0.003	-5
0.003	-0.0046	-0.0053	-0.0083	-5
0.003	-0.0098	-0.0015	-0.0098	-5
0.003	-0.0158	-0.0023	-0.0105	-5
0.0015	-0.024	-0.0023	-0.0105	-5
0.0007	-0.021	0.0037	-0.0068	-5
-0.0023	-0.0128	0.0075	-0.0046	-5
-0.0046	-0.021	0.0082	-0.0015	-5.1
-0.0053	-0.0128	0.0052	-0.0008	-5
-0.0053	0.003	0.0015	-0.0015	-5.1
-0.0038	-0.0053	0.0007	-0.0015	-5
0	-0.006	0.006	0.003	-5
0.0067	0.0052	0.0052	0.0052	-5
0.0067	0.0082	0.0007	0.0052	-5.1
0.0052	0.0075	0.0015	0.0067	-5
0.0022	0.0067	-0.0015	0.0045	-4.9
0.0007	0.0067	-0.0046	0.003	-5
-0.0008	0.0052	-0.0023	0.0022	-4.8
-0.0015	0.003	-0.0023	0.0015	-5
0.0015	0.0037	-0.0015	0.0015	-5
0.0022	0.003	-0.0046	0.0007	-5
0.0007	0.0015	-0.003	0.0015	-5.1
0.0015	0.0015	-0.0015	0.0015	-4.9
0	0.0015	-0.0023	0.003	-5.1
0.0007	0.003	-0.0023	0.0015	-4.9
0.0007	0.003	-0.0015	0.0007	-5.1
0	0.0052	-0.003	0.0015	-5
0.0007	0.0045	-0.0038	0.0007	-5.1
0.0007	0.0045	-0.0023	0	-5.1
0.0007	0.0052	-0.0008	0.0007	-5
0.0007	0.0045	-0.0015	0.003	-5
0.0015	0.0075	-0.0015	0.0037	-5.1
0.003	0.0067	-0.0008	0.003	-5
0.0045	0.0022	0.0015	0.0015	-5
0.0052	-0.0015	0.0015	0.0015	-4.8
0.0037	-0.0038	0.0007	0.0015	-5
0.0015	-0.0046	0.0015	0	-5
0.0007	-0.003	0.0015	-0.0008	-5.1
-0.0015	-0.0083	0.0015	-0.003	-4.9
-0.0015	-0.012	0.0007	-0.003	-5.1
-0.0008	-0.003	-0.0015	-0.0008	-5
-0.003	0.0015	-0.0023	-0.0023	-5
-0.003	-0.0083	-0.0015	-0.003	-5.1
-0.003	-0.0083	-0.0008	0.0015	-5
-0.0053	-0.003	-0.0008	0.0082	-5.1
-0.0075	-0.0015	0.0022	0.0082	-5
-0.003	0.006	0.0045	0.0082	-5
0.0007	0.0105	-0.0008	0.009	-5.2
0.003	0.0097	-0.003	0.0052	-5
0.0007	0.0037	-0.003	0.0022	-5.2
-0.003	0.0045	-0.0015	0	-5
-0.0038	-0.0015	0.0015	-0.0015	-5.2
-0.0015	-0.0233	0	-0.006	-5.1
-0.0015	-0.0368	-0.003	-0.0091	-5
-0.0008	-0.0195	-0.0015	-0.0083	-5
-0.003	-0.0046	-0.0015	-0.0068	-4.8
-0.0015	-0.006	-0.0046	-0.0038	-5.1
-0.0008	0.0045	-0.0038	-0.003	-5
-0.006	0.018	-0.003	-0.0023	-5.2
-0.003	0.0255	-0.0053	0.003	-4.8
0.0037	0.0142	-0.0023	0.0052	-5
0.0067	0.0135	0.0015	0.009	-5
0.003	0.009	0.0007	0.012	-5.1
0.0015	0.003	-0.0046	0.0052	-5
0	0.009	-0.0015	0.003	-5
-0.0023	0.0052	0.0007	0.0007	-5.1
-0.0015	0.0015	-0.0015	-0.0008	-5
-0.0015	-0.0143	0.0007	0.0015	-5
-0.0015	-0.0203	-0.0008	0.0015	-5.1
-0.0023	-0.0105	0.0007	0.0007	-5
-0.0015	-0.012	0	-0.0015	-5.1
0.0007	-0.012	-0.0015	-0.0015	-5.1
0.0007	-0.0091	0.0007	0	-5.2
0.0007	-0.0068	-0.0008	0.0007	-5.2
-0.0008	-0.0038	-0.0008	0.0022	-5.1
-0.0008	-0.0046	-0.0023	0.0015	-5.1
-0.0008	-0.0053	0.0007	-0.0008	-5.2
0	-0.0046	0.0015	0	-5
0.0022	0	0.0007	0.0015	-5
0.0007	0.0045	0.003	0.0022	-5
-0.0015	0.0067	0.0022	0.003	-5.4
-0.0015	0.012	-0.0023	0.0052	-5
0	0.012	-0.0015	0.0052	-5.3
-0.0008	0.0105	0.0015	0.0037	-4.9
-0.0053	0.012	-0.0008	0.0045	-5.2
-0.0053	0.003	-0.0008	0.0052	-5
-0.0023	-0.0091	-0.003	0.003	-5.1
-0.003	0.0007	-0.0038	0.0015	-5.1
-0.0008	0.0105	-0.0008	-0.0015	-5
0.0015	0.003	0.0007	-0.0053	-5.3
-0.0015	-0.0053	0.0045	-0.0105	-4.9
-0.0015	-0.024	0.0022	-0.0143	-5.2
-0.0008	-0.0233	0.0022	-0.015	-5
0.0007	-0.0225	0.0015	-0.0143	-5
0.003	-0.0233	0.0015	-0.0098	-5.1
0.0007	-0.0105	0.003	-0.0023	-5
0.0007	-0.0053	0	0.003	-5.2
-0.0008	0.0007	-0.0008	0.0037	-5
-0.0008	0.003	0.0007	0.0037	-5.1
0.0015	0.003	0.0015	0.003	-5.1
0.0007	0.0037	-0.0008	0.003	-5
0.003	0.0045	-0.0046	0.003	-5.2
0.0045	0.006	-0.0046	0.003	-5
0.0045	0.0052	-0.0046	0.003	-5.1
0.0052	0.0045	-0.0023	0.0022	-5
0.0067	0.0045	-0.0008	0.0015	-5
0.0045	0.0045	0.0007	0.003	-5
0.0015	0.0052	0	0.0037	-5.1
-0.006	0.0067	-0.0015	0.0045	-5.1
-0.0075	0.0052	-0.0008	0.0015	-5.2
-0.0023	0.0075	-0.003	0.0015	-5
-0.0038	0.0067	-0.0038	0.0007	-5.1
-0.0015	0.006	-0.0053	0.0007	-5
-0.0015	0.0067	-0.0046	0.003	-5.1
0.0052	0.0067	0.0015	0.0007	-5
0.0307	-0.0023	0.0075	-0.0008	-5.2
0.0532	-0.0113	0.009	0	-5
0.0495	-0.0053	0.0082	0.0015	-5.1
0.0427	0.0037	0.0075	0.0037	-5
0.0345	0.0045	0.0037	0.0022	-5
0.0217	-0.0023	0.0022	0.0007	-5
0.0157	-0.0165	0.0015	-0.0008	-5
0.0052	-0.0181	0	0.0015	-5.1
0.0007	0	0.0007	0.003	-5
-0.0053	0.0022	0	0.003	-5
-0.0091	0.0007	-0.003	0.0022	-4.9
-0.0098	0.0015	-0.0038	0.0045	-5.2
-0.0113	0.0022	-0.0015	0.003	-5.2
-0.0098	0.0045	-0.003	0.0007	-5
-0.0143	0.0045	-0.003	0.0015	-5
-0.0158	0.0015	-0.0038	0	-5
-0.0181	0	-0.0038	-0.0008	-5.1
-0.021	0.0007	-0.0015	-0.0015	-5.1
-0.021	-0.0015	-0.003	-0.0008	-5.2
-0.0158	-0.0008	-0.0015	0.0007	-5
-0.0083	-0.0068	-0.0015	0.0015	-5
-0.0046	-0.0105	0.0007	0.0045	-5.1
-0.0046	-0.0023	0.0022	0.0052	-5.1
-0.0091	0	0.0015	0.0037	-5
-0.0083	0.003	-0.0015	0.003	-5
-0.0091	-0.0008	-0.0023	0.0007	-5.1
-0.0053	-0.0038	0.0007	-0.0023	-5.2
0	0	0.0015	-0.0015	-5
-0.0008	0.0015	0	-0.0008	-5
-0.003	-0.0068	-0.0023	0.0007	-5
-0.0053	-0.012	-0.003	0.0045	-5.1
-0.0053	0.0022	-0.0015	0.006	-5.1
-0.006	0.0157	0	0.0067	-5
-0.0068	0.015	0.0007	0.0075	-5.2
-0.0083	0.0195	-0.0008	0.009	-5
-0.0083	0.018	-0.0008	0.0067	-5.1
-0.0091	0.0067	-0.0008	-0.0015	-5
-0.0091	-0.0135	0	-0.0113	-5.1
-0.0083	-0.0233	0.0007	-0.0128	-5
-0.006	-0.012	-0.0008	-0.0091	-5
-0.0038	-0.0008	-0.0015	-0.0098	-5.2
-0.0015	0.0022	-0.0015	-0.0083	-5.1
-0.0008	0.003	-0.0023	-0.003	-5.1
-0.0008	-0.0015	-0.003	-0.003	-5.1
-0.0008	-0.0128	-0.0046	0	-5.1
-0.0008	-0.0083	-0.0046	0.0127	-5.4
-0.0015	0.012	-0.0038	0.0172	-5.1
-0.0008	0.0112	-0.0023	0.012	-5.3
-0.0015	0.0082	-0.0046	0.0045	-5
-0.0015	0.018	-0.0038	-0.0038	-5.2
-0.003	0.0187	-0.0023	-0.0105	-5
-0.0023	0.0157	-0.0038	-0.0128	-5.2
-0.0023	-0.0128	-0.0046	-0.0173	-5.2
-0.0015	-0.0495	-0.0038	-0.0165	-5.1
-0.0015	-0.0555	-0.0015	-0.0046	-5.2
-0.003	-0.0443	-0.0015	0.0067	-5
-0.0068	-0.0458	-0.003	0.0112	-5.2
-0.0091	-0.0233	-0.003	0.0112	-5.2
-0.0038	0.0045	-0.003	0.0052	-5.2
0	0.015	-0.0008	0.003	-5.1
0	0.0345	0.003	0.0052	-5.1
0	0.0262	0.0007	0.009	-5.2
0.0007	0.0165	0	0.0082	-5.1
0.0015	0.0105	0	0.0007	-5.2
0.0015	-0.0105	-0.0015	-0.006	-5.1
0	-0.021	-0.0008	-0.003	-5.2
0.0022	0.0022	-0.0008	0.0007	-5.2
0.003	0.03	0.0007	-0.0008	-5
0.0022	0.03	0.003	0.0045	-5.3
0.0022	0.033	0.0015	0.0082	-5.1
0.0015	0.012	-0.0008	0.0045	-5.2
0.0007	-0.0195	0.0007	-0.0008	-5.2
0.0045	-0.0218	0.0015	-0.0015	-5.2
0.003	-0.003	0.0015	-0.0053	-5
0.0015	0.003	0.0015	-0.0068	-5
0.0007	-0.0068	0	-0.0023	-5.2
0.0022	-0.0008	0.0007	0.0052	-5.2
0.0015	0.0052	0	0.0105	-5.1
-0.0008	0.009	-0.0008	0.009	-5.2
-0.0015	0.0037	0.0007	0.0052	-5.1
-0.0015	-0.0053	0.0007	-0.0008	-5.3
-0.0008	-0.0083	-0.0008	-0.0068	-5
0	-0.0053	-0.0015	-0.0113	-5.4
0.0015	-0.0053	-0.0008	-0.012	-5
0	-0.0105	0	-0.0098	-5.2
-0.0015	-0.0143	0.0007	-0.0075	-5.2
-0.0008	-0.0195	0.0015	-0.0046	-5.2
0.0015	-0.0068	0.0015	-0.0008	-5.2
0.0015	0.0015	0.0007	0.0015	-5.1
0.0015	0.003	-0.0008	0.0045	-5.2
0.003	0.0067	0.0015	0.0045	-5.2
0.0007	0.0075	0.003	0.0075	-5.2
0.0022	0.0097	0.0007	0.0067	-5.2
0.0015	0.0082	0.0007	0.006	-5.2
0.0007	0.0052	0	0.0052	-5.3
0.0007	0.0007	-0.0015	0.0015	-5.2
-0.0008	-0.0046	-0.0015	-0.0015	-5.3
0	-0.0105	-0.0023	-0.0015	-5.1
-0.0008	-0.0083	0	0.0007	-5.4
0	-0.0008	0.003	0.0007	-5.2
0.0007	-0.003	0.0015	0.0022	-5.2
-0.0008	-0.0015	0.0015	0.0015	-5.3
-0.0015	-0.0015	0.0007	0.0007	-5.1
-0.0008	0.0015	-0.0015	0.0015	-5.4
-0.0008	0.0052	0.0022	0	-5.3
-0.0008	0.003	0.0037	0.0015	-5.2
0	0.0045	0	0.0037	-5.3
0.0015	0.0037	-0.003	0.0045	-5.2
0.0007	0.0022	-0.0053	0.0052	-5.2
0.0007	0.003	-0.0038	0.0045	-5.2
0.0022	0.003	-0.0038	-0.0023	-5.4
0.0007	0.0007	-0.0023	-0.006	-5.2
0.0015	0.0007	-0.003	-0.0038	-5.2
0.0022	0.003	-0.0015	-0.0015	-5.4
0.0015	0.0037	0.0015	-0.0023	-5.3
0.0007	0.0045	0.0015	0.0007	-5.4
0.0007	-0.0008	0.0022	0.0007	-5.1
0	-0.0091	0.003	0.003	-5.3
-0.0008	-0.0105	0.0007	0.009	-5.2
0.0007	-0.0008	0.0015	0.0135	-5.4
0.0015	0.0052	0.0007	0.0127	-5.3
0.0007	0.003	-0.0008	0.0007	-5.4
0	0.0052	-0.0008	-0.0068	-5.4
-0.0008	0.006	-0.0023	-0.0075	-5.4
-0.0015	0.0067	-0.003	-0.0015	-5.3
-0.0008	0.0135	-0.0015	0.0112	-5.4
-0.0008	0.0217	0.0007	0.0172	-5.4
-0.003	0.018	0.0022	0.0045	-5.4
-0.0038	-0.0038	0.0015	-0.0091	-5.3
-0.0015	-0.0053	0.003	-0.0053	-5.4
0.0022	0.0195	0.0022	0.0052	-5.4
0.0022	0.0195	-0.0008	0.0075	-5.4
0.0015	0.0015	-0.0023	0.0045	-5.2
0.0015	-0.0278	-0.0046	-0.0015	-5.4
0.0007	-0.0495	-0.003	-0.0091	-5.5
0	-0.0518	-0.0053	-0.0143	-5.4
0.0007	-0.0533	-0.0053	-0.0143	-5.5
0	-0.0256	-0.003	-0.0188	-5.6
-0.0008	-0.0053	-0.003	-0.0308	-5.4
0	-0.015	0	-0.0225	-5.4
0.0015	-0.0188	0	-0.0038	-5.4
0.0015	-0.0105	0	0.0037	-5.5
0.0015	0.0022	0.0007	0.0067	-5.4
0.0015	0.0007	-0.0008	0.0067	-5.6
0.0007	0.0045	-0.0015	0.0075	-5.4
-0.0008	0.0082	0	0.0097	-5.4
-0.0015	0.0105	0.0015	0.009	-5.4
-0.0008	0.0142	0.0007	0.0097	-5.5
-0.0015	0.012	0.0037	0.0082	-5.6
-0.0008	0.0105	0.0037	0.0052	-5.5
-0.0008	0.0052	0.003	0.0045	-5.6
-0.0008	0.0052	0.0022	0.0052	-5.4
0.0007	0.0052	0.0015	0.009	-5.6
0.0007	0.003	0.0022	0.012	-5.4
0.0007	0.0045	0.0015	0.0142	-5.5
0	0.0052	0.0015	0.012	-5.6
0	0.0075	0.0007	0.0052	-5.6
0	0.0045	0	-0.0023	-5.6
0.0007	0.0052	-0.0015	-0.0083	-5.6
-0.0008	0.0067	0.0007	-0.0083	-5.6
-0.0015	0.0067	0.0015	0.0015	-5.6
0.0007	0.0052	0.0015	0.0135	-5.6
0.0007	0	0.0007	0.021	-5.7
-0.0015	-0.0113	-0.0008	0.0202	-5.5
-0.0023	-0.0158	-0.0015	0.0127	-5.8
-0.0023	-0.006	-0.0015	0.0067	-5.7
-0.0015	-0.003	-0.003	-0.0068	-5.8
-0.0008	-0.0068	-0.0046	-0.0346	-5.8
-0.0015	-0.0046	-0.003	-0.0346	-5.7
-0.0015	0.0045	-0.0015	-0.0173	-5.9
-0.0008	0.018	-0.0015	-0.0173	-5.8
-0.0008	0.0195	-0.0023	-0.0075	-5.8
-0.0008	0.0142	-0.0023	-0.0008	-5.9
-0.0008	0.0105	-0.0015	0.003	-5.8
-0.0008	0.0082	-0.0015	0.0105	-5.9
0	0.009	-0.0008	0.0127	-5.7
-0.0008	0.0142	-0.0008	0.0195	-5.9
0.0007	0.0187	-0.0008	0.0165	-5.9
-0.0008	0.0165	0	0.0127	-5.8
-0.0023	0.0097	0.0022	0.0105	-5.9
-0.0015	-0.0075	0.0015	-0.0015	-5.9
-0.0015	-0.03	-0.0008	-0.0091	-6
-0.0015	-0.0428	-0.003	-0.0068	-5.9
0	-0.0443	-0.0015	-0.0046	-6
-0.0015	-0.0315	-0.0008	-0.0053	-5.9
-0.0015	-0.0195	-0.0015	0.0045	-6.2
-0.0008	-0.0158	0	0.0052	-6
0.0007	0.0067	-0.0008	-0.0015	-6
0.0015	0.0322	-0.0046	-0.0046	-6
0	0.0427	-0.0053	-0.0165	-6
-0.0008	0.0165	-0.0053	-0.0218	-6.2
-0.0008	-0.0203	-0.0053	-0.0158	-6
0.0007	-0.0293	-0.0053	-0.0143	-6.2
0.0007	-0.0143	-0.0015	-0.0068	-6.1
0.0015	-0.0075	0	0	-6.1
0.0022	-0.0068	0.0022	0.0052	-6.3
0.0022	0.006	0.0067	0.024	-6.1
0.0007	0.015	0.012	0.0405	-6.3
0.0007	0.0172	0.0127	0.0442	-6.1
0.0015	0.0165	0.0067	0.0405	-6.3
0	0.0247	0.003	0.0195	-6.2
-0.0008	0.0247	-0.0015	-0.015	-6.4
0.0015	0.024	-0.0015	-0.0383	-6.2
0.0007	0.0232	-0.0015	-0.03	-6.2
0	0.0105	-0.0046	-0.0165	-6.3
0.0007	-0.0015	-0.0015	-0.0195	-6.4
0	-0.0248	-0.0046	-0.0165	-6.2
-0.0015	-0.0428	-0.0053	-0.003	-6.5
0.0007	-0.0248	-0.003	0.012	-6.3
0.0007	-0.0285	-0.0015	0.0135	-6.5
-0.0008	-0.0638	0.0007	0.0045	-6.3
0.0007	-0.0443	0.0007	-0.003	-6.6
-0.0008	-0.0181	0.0015	-0.021	-6.4
-0.0008	-0.0165	0.0015	-0.0203	-6.3
0	-0.0053	0.0007	-0.006	-6.5
-0.0015	-0.0046	-0.003	-0.0113	-6.5
-0.0015	-0.0015	-0.0038	-0.012	-6.8
-0.003	0.0022	-0.003	-0.0046	-6.5
0	0.003	-0.0046	0.0015	-6.8
0.0007	0.0067	-0.0038	0.0052	-6.6
-0.0015	0.0105	-0.0046	0.0082	-6.6
-0.0008	0.0165	-0.003	0.0127	-6.8
-0.0008	0.0165	-0.0015	0.0112	-6.5
0.0007	0.0157	-0.0015	0.009	-6.8
0.0007	0.015	-0.0008	0.0045	-6.8
-0.0015	0.0127	0.0015	0.0067	-6.9
-0.003	0.0135	0.0052	0.0127	-6.7
-0.0008	0.0097	0.0052	0.0165	-6.9
0	0.0007	0.0007	0.0082	-6.8
-0.0008	-0.0128	-0.0008	0.0015	-6.8
0	-0.012	0.0007	0.0142	-6.8
-0.0008	0.0015	0.003	0.0202	-6.8
0	0.0067	0.0015	0.0165	-7
-0.0008	0.0082	0	0.003	-7
-0.0015	0.0052	0.0007	-0.0128	-7
-0.0023	0.0015	0.0045	-0.0143	-7.1
-0.0023	-0.0015	0.003	0.0022	-7.1
-0.0015	-0.0075	0.0007	0.0187	-7.1
-0.0023	-0.003	-0.0008	0.0202	-7.1
-0.0015	0.0052	-0.0015	0.009	-7.1
-0.0008	0.0045	0	-0.0091	-7.1
-0.0008	0.006	0.0007	-0.0143	-7.1
-0.0008	0.009	-0.0008	-0.0046	-7.3
0	0.0105	0.0022	0.0067	-7.2
-0.0015	0.0082	0.0015	0.0075	-7.2
-0.0015	-0.0015	0.0007	0.0075	-7.1
-0.0015	-0.0023	0.0015	0.0172	-7.2
-0.0008	-0.003	0.003	0.0127	-7.3
0	-0.0091	0.0015	-0.0203	-7.3
-0.003	-0.0091	0	-0.0308	-7.3
-0.0023	0	0.0015	-0.0083	-7.3
-0.0008	0.003	0.0007	0.012	-7.3
0.0007	0.0052	-0.0008	0.0187	-7.3
0.0007	0.0067	-0.0023	-0.0015	-7.4
-0.0015	-0.0038	-0.0015	-0.0353	-7.5
-0.0023	-0.0068	0.0015	-0.048	-7.4
-0.0008	-0.0015	0.0007	-0.027	-7.5
0	0.0007	-0.0038	-0.0008	-7.4
0.0007	0.0007	-0.003	0.0097	-7.7
0	0.0007	0.0007	0.012	-7.5
0	-0.0008	-0.0008	0.009	-7.7
0.0007	0.0007	-0.0015	0.0195	-7.5
-0.0008	-0.0023	-0.0008	0.0082	-7.7
0	-0.003	-0.0015	-0.0135	-7.7
-0.0015	-0.0015	-0.0008	-0.015	-7.7
-0.003	-0.0023	0	-0.0046	-7.7
-0.0008	0.0022	0.0015	0.0127	-7.7
-0.0015	0.0045	0.0015	0.009	-7.7
0.0007	-0.0008	0.0007	0	-7.8
0.0007	-0.0068	0	-0.0128	-7.6
0	-0.006	0.0007	-0.027	-7.9
0.0007	-0.0053	0	-0.0181	-7.8
0.0007	-0.0046	-0.0023	0	-7.9
0.0015	-0.0008	-0.0008	0.0067	-7.9
0.0007	0.0015	0	0.0052	-7.9
0.0007	0.0052	0.003	0.0112	-7.9
0.0007	0.009	0.0007	0.018	-8
0.0015	0.0105	-0.0015	0.0217	-8.1
0.0007	0.0052	-0.0008	0.015	-7.9
0.0007	0	-0.0008	-0.0023	-8.1
0.0007	-0.0083	-0.0008	-0.0128	-7.9
0	-0.0233	-0.0008	-0.0098	-8.1
0.0007	-0.0278	-0.0015	0.0052	-8.1
0.0022	-0.0105	-0.0008	0.024	-8.1
0.0022	-0.0046	-0.0008	0.0277	-8.1
0.0015	-0.0068	0	0.0105	-8.1
0.0015	-0.0046	0.0007	-0.0053	-8.2
0.0015	-0.0046	0.0007	-0.003	-8.2
0.0007	0.0045	-0.0008	0	-8.3
0	0.012	0.0007	-0.0008	-8.2
0.0007	0.0157	0.0007	-0.0053	-8.2
-0.003	0.0127	-0.0008	-0.003	-8.3
-0.0023	0.0082	-0.0023	0.0037	-8.2
-0.0015	0.003	-0.0015	-0.0008	-8.5
-0.0015	-0.0008	0	-0.0023	-8.3
-0.0023	0.0097	0	-0.0098	-8.4
-0.0015	0.0067	0.0015	-0.0105	-8.4
0	-0.0008	-0.0008	0.0007	-8.5
-0.0008	-0.0008	-0.003	0.0082	-8.5
-0.0015	-0.0053	-0.0008	0.0105	-8.4
-0.0015	-0.0008	-0.0008	0.0082	-8.6
-0.0015	-0.0023	-0.0023	0.0015	-8.6
-0.0008	-0.0053	-0.0023	-0.0015	-8.5
0.0007	-0.0015	-0.0023	0.0045	-8.6
0.0015	-0.0023	0	0.006	-8.6
0.0015	-0.003	0.0007	0.0045	-8.8
0.0007	-0.0015	0.0015	0	-8.7
0	-0.003	-0.0008	-0.0158	-8.6
-0.003	-0.003	-0.003	-0.0105	-8.8
-0.0023	0.0022	-0.0015	0.0142	-8.6
-0.0008	0.003	-0.0015	0.0045	-8.8
-0.0008	0.003	-0.0023	-0.0165	-8.7
-0.0008	0.0037	0.0007	-0.0195	-9
-0.0008	0.0067	0.0007	-0.0015	-8.8
0	0.0112	-0.0015	0.024	-8.9
-0.0008	0.0105	0	0.0217	-8.9
-0.0008	0.0082	-0.0008	0.0217	-9
0.0007	0.0037	-0.0008	0.0157	-9.1
0.003	-0.0015	0	-0.0046	-9
0.0037	-0.0075	0	-0.0181	-9
0.0037	-0.0165	0.0037	-0.0181	-9.1
0.0015	-0.0233	0.0022	-0.0083	-9
0.0007	-0.0023	-0.0008	-0.003	-9.1
0.0015	0.0195	-0.0015	0.0045	-9.1
0.0015	0.0052	-0.0015	0.006	-9.3
0.003	-0.003	-0.0008	0.0022	-9.1
0.0022	-0.0165	-0.0008	-0.0015	-9.5
0.0007	-0.0368	-0.0015	-0.0083	-9.1
0.0007	-0.0353	-0.0023	-0.003	-9.5
0.0007	-0.012	-0.0015	-0.003	-9.4
0.0007	0.0022	-0.003	-0.0098	-9.4
0	0.0007	-0.0023	-0.0075	-9.4
-0.0008	0.0052	-0.0015	0.0007	-9.5
-0.0015	0.0007	-0.0046	0.0067	-9.5
-0.0008	0.0052	-0.0038	0.0165	-9.4
0.0007	0.0052	0.0007	0.0165	-9.5
0	0.0052	0.0015	0.0142	-9.6
-0.0023	0.0105	0.0015	0.027	-9.6
-0.0015	0.0097	0.0007	0.0195	-9.6
-0.0023	0.0112	0.0007	-0.0046	-9.5
-0.003	0.0052	-0.0015	-0.0195	-9.7
-0.0015	0.0022	-0.0015	-0.0353	-9.6
0.0015	0	0.0007	-0.0293	-9.7
0.0015	0.0022	0.0015	-0.0075	-9.8
0.0015	0.0045	-0.0008	0.0015	-9.7
0.0022	0.003	-0.0015	0.0007	-9.8
0.0037	-0.0083	-0.0008	-0.0083	-9.9
0.0015	-0.0256	0	-0.0128	-9.9
0	-0.0195	0.0015	0.003	-9.9
0.0007	-0.003	0.0045	0.015	-9.8
0.0015	0.0022	0.0052	0.012	-10
0.0015	0.0075	0.0052	0.009	-9.9
0.0015	0.0105	0.003	0.0135	-10.1
0.0007	0.009	0.0037	0.0262	-10
0.0015	0.0105	0.0037	0.0352	-10.2
0	0.003	0.003	0.0337	-10
-0.0008	-0.0023	0.0015	0.0157	-10.1
-0.0008	-0.006	-0.0008	-0.0181	-10.2
0	-0.0053	0.0015	-0.027	-10.2
0.0007	-0.0008	0.0015	-0.024	-10.2
-0.0023	-0.003	-0.003	-0.0346	-10.2
-0.0038	-0.0038	-0.0023	-0.0165	-10.6
-0.003	-0.0038	-0.0008	-0.0008	-10.4
-0.003	-0.0015	-0.0023	0.0157	-10.4
-0.003	0.0015	-0.0015	0.021	-10.4
-0.003	-0.0015	-0.0008	-0.0015	-10.4
-0.003	-0.0053	-0.0015	-0.003	-10.8
0	-0.0091	0.0007	-0.0105	-10.4
-0.0008	-0.0053	0.0045	-0.0195	-10.8
0	0.0045	0.0067	-0.0091	-10.7
-0.0008	0.0067	0.0015	0.0075	-10.7
-0.0023	0.0067	0.0015	0.0202	-10.8
-0.003	0.0045	0.0045	0.021	-10.6
-0.0046	0.0045	0.0015	0.018	-10.8
-0.0046	0.012	0.0015	-0.0008	-10.8
-0.0046	0.0232	0.0007	-0.012	-11
-0.0023	0.0255	0.0015	0.0015	-10.8
-0.003	-0.0075	0.0007	0.0142	-11
-0.003	-0.0375	-0.0015	0.012	-10.9
-0.003	-0.0278	-0.0015	-0.0225	-11.1
-0.0015	-0.0181	-0.0015	-0.0525	-11
-0.0008	-0.0105	-0.0008	-0.0555	-11.1
-0.003	-0.0023	-0.0046	-0.0315	-11.1
-0.003	-0.0015	-0.0053	0.0022	-11.2
-0.0053	-0.0075	-0.0053	0.0112	-11.1
-0.0046	-0.0053	-0.0038	0.0195	-11.3
-0.0046	0.0037	-0.003	0.0172	-11.2
-0.0038	-0.0008	-0.0038	0.0112	-11.5
-0.0008	0.0007	-0.003	0.009	-11.2
-0.003	0.0022	-0.003	0.0067	-11.4
-0.003	0.0067	-0.003	0.0067	-11.3
-0.003	0.0105	-0.0023	0.0007	-11.4
0.003	0.0052	-0.0023	0.0067	-11.6
0.012	0.0015	-0.0008	0.0157	-11.6
0.015	0.0045	0.0015	0.024	-11.7
0.0172	0.0082	0	0.0255	-11.6
0.0142	-0.003	-0.0015	0.009	-11.7
0.0082	-0.015	-0.003	-0.0046	-11.8
0.0022	-0.0233	-0.0015	-0.006	-11.7
-0.0008	-0.0098	0.0007	0.0045	-11.8
-0.0023	0.0097	-0.0023	0.0082	-11.8
-0.0046	0.0105	-0.0023	0.006	-11.8
-0.006	0.009	-0.0015	0.0007	-11.9
-0.0075	0.006	0	0	-11.9
-0.0083	0.0075	0	0.0007	-12
-0.0083	0.0082	-0.0008	0.003	-11.8
-0.0083	0.012	0.0007	0.0082	-12.1
-0.0075	0.0127	0	0.0075	-12.1
-0.0053	0.0127	-0.0008	0.0045	-12.2
-0.0046	0.0105	-0.003	-0.0083	-12.1
-0.0068	0.0015	-0.0046	-0.0158	-12.2
-0.006	-0.0083	-0.0046	-0.0105	-12.4
-0.0053	-0.027	-0.0023	-0.0068	-12.3
-0.003	-0.0353	-0.0008	-0.0113	-12.3
0	-0.0278	-0.0008	-0.0143	-12.5
0.0007	-0.015	-0.0008	-0.0015	-12.3
0.0015	-0.0008	-0.0015	0.0195	-12.6
0.0015	0.0082	-0.0023	0.033	-12.5
0.0022	0.0127	-0.0038	0.0247	-12.8
0.0015	0.0112	-0.0015	0.0022	-12.6
0.0007	0.009	0.0007	-0.0158	-12.8
-0.0008	0.009	0.0015	-0.012	-12.6
-0.0008	0.0082	0.0045	0.0022	-12.8
0.0007	0.0067	0.003	-0.0046	-12.8
-0.0008	0.0052	-0.0008	-0.0143	-12.8
-0.0015	0.0045	0.0007	-0.0195	-13.1
-0.0015	0.0007	-0.003	-0.0165	-13
-0.0046	-0.0233	-0.0083	-0.0038	-13.1
-0.0046	-0.0338	-0.0046	0.0037	-13.1
-0.0046	-0.0038	-0.0015	0.0082	-13.1
-0.0038	0.0037	-0.0008	0.0067	-13.2
-0.003	-0.0015	-0.003	0.0037	-13.2
-0.0023	0.0045	-0.0015	0.0127	-13.4
-0.0015	0.003	-0.0015	0.0195	-13.1
0	0.0097	-0.003	0.0247	-13.4
0.0037	0.0195	-0.0015	0.027	-13.5
0.0045	0.0277	0.0015	0.0187	-13.4
0.0022	0.0277	0.006	0.0127	-13.6
0.0045	0.0157	0.0052	0.0007	-13.4
0.003	-0.0015	0.0037	-0.0083	-13.6
0.0007	-0.0053	0.0007	-0.0158	-13.7
0	-0.0008	-0.0015	-0.0203	-13.8
0.003	-0.0068	0	-0.0203	-13.8
0.0052	-0.021	-0.0023	-0.0346	-13.8
0.0052	-0.0436	-0.0023	-0.0375	-14
0.0067	-0.0548	0.0007	-0.0143	-13.9
0.0067	-0.0458	0.0015	0.0052	-14
0.0075	-0.0203	0.0022	0.0105	-14
0.006	-0.003	0.0015	0.009	-14
0.0045	0.0007	0.0015	0.0112	-14.2
0.0045	0.0045	0.0015	0.012	-14.1
0.003	0.003	0	0.0045	-14.4
0.0045	0.0015	-0.0008	-0.0075	-14.2
0.003	0.0037	-0.0008	-0.0113	-14.4
0.0022	0.006	-0.0023	-0.0023	-14.4
0.003	0.0045	-0.0015	0.0045	-14.3
0.003	0.0052	0.0015	0.0007	-14.5
0.0045	0.0052	0.0015	-0.0023	-14.3
0.0045	0.0045	0.0045	0	-14.7
0.003	0.0052	0.0105	0.0037	-14.5
0.003	0.0067	0.0112	0.006	-14.7
0.003	0.009	0.0067	0.0067	-14.8
0.0015	0.0067	0.0045	0.0015	-14.6
0.0015	0.0045	0.0045	0.0007	-15
0.0015	0.0075	0.0045	0.0037	-14.8
0.0045	0.0105	0.0022	-0.003	-15
0.0015	0.0105	-0.0008	-0.0053	-14.9
0.0015	0.009	0	0.0022	-14.9
0.0015	0.0052	-0.003	0.0052	-15.1
0.0015	0.0007	-0.0046	0.0007	-15.1
0.003	0	-0.003	0	-15.2
0.0007	0.003	-0.0053	0.0067	-15.3
0.0015	0.0037	-0.0053	0.0067	-15.4
0.0007	0.0015	-0.006	0.003	-15.1
0.0015	0.0007	-0.006	0.009	-15.4
0.0037	-0.0023	-0.0046	0.0157	-15.4
0.003	-0.0015	-0.0038	0.0135	-15.6
0.0015	-0.0015	-0.0053	0.0045	-15.5
0.0015	-0.003	-0.0068	-0.0075	-15.5
0	-0.003	-0.0046	-0.0075	-15.5
0	-0.0038	-0.003	0.006	-15.8
-0.0008	-0.0046	-0.003	0.0067	-15.6
-0.003	-0.0053	-0.0046	0.0007	-16.1
-0.0015	-0.0015	-0.0038	0.0045	-15.8
-0.0008	0.003	-0.0015	0.0172	-15.9
-0.003	0.003	-0.0008	0.0202	-15.9
-0.0046	-0.0008	-0.0008	0.003	-16.1
-0.0053	-0.0053	-0.003	-0.0285	-16.2
-0.0053	-0.0105	-0.0015	-0.0503	-16.2
-0.0038	-0.0091	-0.0008	-0.0203	-16.2
-0.003	-0.0015	-0.0015	0.0037	-16.4
-0.003	0.0022	-0.0023	0.0007	-16.2
-0.0038	0.0015	-0.0015	0.003	-16.3
-0.0046	-0.0008	0.0007	0.0097	-16.4
-0.0046	-0.0008	-0.0008	0.0225	-16.6
-0.0053	-0.0008	0.0007	0.0052	-16.5
-0.0053	-0.003	-0.0008	-0.015	-16.7
-0.0068	-0.0046	-0.0008	-0.0233	-16.5
-0.0053	-0.0046	-0.0023	-0.0188	-16.8
-0.0075	-0.0015	-0.0046	0.0022	-16.7
-0.0053	-0.0015	-0.0023	0.0007	-16.7
-0.0068	-0.003	-0.003	0.0007	-16.9
-0.0053	-0.003	-0.0008	0.0015	-17
-0.0015	-0.003	0.0022	-0.0105	-17.1
-0.0023	-0.003	0.003	-0.0091	-17
-0.0023	-0.0008	0.0037	0.0015	-17.1
-0.0015	0.0015	0.0015	0.003	-17.1
-0.0023	0.0052	0.0007	0.0112	-17.2
-0.003	0.0082	0.0007	0.0232	-17.3
-0.0015	0.0097	0.0015	0.0217	-17.4
0	0.0045	0.0022	0.0142	-17.4
0	-0.0015	0.0015	-0.0068	-17.5
0.0007	-0.0038	0.003	-0.0181	-17.6
-0.0008	-0.0023	0.0052	-0.003	-17.6
-0.0008	-0.0053	0.003	0.0007	-17.6
0.003	-0.0083	0.0022	-0.003	-17.8
0.003	-0.0075	0.0022	-0.0015	-17.6
0.0022	-0.0038	-0.0015	-0.0023	-17.9
0.0015	0.0015	-0.0038	0.0082	-17.8
0.0007	0.006	-0.0053	0.0247	-18
0.0007	0.0075	-0.0053	0.0202	-17.9
-0.0015	0.003	-0.0046	0.0067	-18
0.0007	0.0015	-0.0015	-0.0053	-18.2
0.0007	0.003	-0.0008	0.0015	-18.1
0.0015	0.0015	-0.0015	0.0142	-18.2
-0.0023	0.003	-0.003	-0.0008	-18.4
-0.003	0.0037	-0.0023	0.0052	-18.2
-0.0023	0.0045	-0.0015	0.0127	-18.5
-0.0023	0.003	-0.0008	0.006	-18.5
-0.0015	-0.0015	0.003	0.0045	-18.7
-0.0015	-0.0053	0.0067	-0.0143	-18.6
-0.0008	-0.0053	0.0037	-0.0233	-18.7
0.0007	-0.006	0.0007	-0.0143	-18.6
0.0007	-0.0053	-0.0008	-0.0105	-18.8
0.0015	-0.0008	-0.0008	-0.003	-18.7
0.003	0.0015	-0.0008	0.0052	-18.9
0.0007	0.0022	-0.003	0.0135	-19
0.0052	0	-0.0015	0.0127	-18.8
0.0067	-0.0053	0.0007	0.0045	-18.9
0.0067	-0.0068	0.0015	-0.0098	-19.2
0.0045	-0.0068	0.003	-0.0173	-19.1
0.003	-0.003	0.0037	0.0007	-19.2
0.0015	-0.0015	0.003	0.009	-19.2
0.0007	-0.0038	0.0007	-0.0008	-19.4
0.0015	-0.0015	0.0007	0.0015	-19.4
0.0015	0.0015	0	-0.0023	-19.5
-0.0015	0.0007	-0.0008	0.0015	-19.6
-0.0015	0.0015	0	-0.003	-19.4
0.0007	0	0.0007	-0.0128	-19.7
-0.0008	-0.0008	-0.0008	-0.0068	-19.5
0	-0.0015	0.0022	-0.0135	-19.8
-0.0008	-0.0046	0.0022	-0.0091	-19.7
0.0007	-0.0008	0.0015	0.003	-19.9
0.0015	0.0015	0.0015	0.0052	-19.8
0	0.0022	-0.0015	0.009	-20
-0.0008	0.003	-0.003	0.012	-19.9
-0.0015	0.0037	-0.0015	0.0157	-20.1
-0.0008	0.006	-0.0008	0.0142	-20.2
0.0015	0.0037	0	0.012	-20.1
0.0015	0.003	0.0007	0.0202	-20.3
0.0007	0.0067	0.0015	0.0292	-20.3
0.0007	0.0067	0.0015	0.0262	-20.3
-0.0008	0.0037	0.0022	0.015	-20.5
-0.0023	-0.0015	0.0007	0.018	-20.3
-0.003	-0.0053	-0.0023	0.015	-20.7
-0.003	-0.012	-0.0038	-0.0165	-20.5
-0.0023	-0.0135	-0.003	-0.03	-20.7
-0.0023	-0.0075	-0.0053	-0.0308	-20.7
-0.003	-0.0068	-0.0068	-0.0256	-20.8
-0.0046	-0.0053	-0.003	0	-20.8
-0.003	-0.0038	-0.0008	0.003	-20.9
-0.0008	-0.0015	0.0007	0.0007	-20.9
0.0007	0	0.003	-0.0038	-21.1
0.0007	0.0015	0.0045	-0.0053	-21.1
0.0022	0.0045	0.003	0.012	-21.1
0.0015	0.0037	-0.0008	0.0082	-21.2
-0.0038	-0.0008	-0.0023	-0.021	-21.4
-0.0046	-0.0068	-0.0038	-0.042	-21.2
-0.0068	-0.0068	-0.0068	-0.0263	-21.4
-0.0068	-0.003	-0.003	-0.0046	-21.4
-0.003	0.0007	0.0037	0.0015	-21.3
-0.003	0.003	0.0037	-0.0053	-21.5
-0.0046	0.0045	0.0015	-0.0023	-21.6
-0.0046	0.006	0	0.0157	-21.7
-0.0053	0.0082	-0.0053	0.0165	-21.6
-0.006	0.0082	-0.003	0.0262	-21.8
-0.0053	0.0045	0	0.033	-21.7
-0.003	0.0007	0.0007	0.0097	-21.9
-0.0038	-0.0015	0.0022	-0.0008	-21.8
-0.0046	-0.0046	0.0015	-0.0008	-22
-0.003	-0.0083	0.0022	-0.0091	-22
-0.0038	-0.006	0.0007	-0.0075	-21.8
-0.0038	-0.0053	-0.0008	-0.0083	-22.2
-0.0023	-0.0083	0.0037	-0.0203	-22.2
-0.0053	-0.0128	0.0052	-0.0203	-22.2
-0.003	-0.0128	0.0067	-0.003	-22.3
0.003	-0.0053	0.0082	0.0157	-22.3
0.003	-0.0046	0.0052	0.0202	-22.5
0.0052	-0.0046	0.003	0.018	-22.4
0.0052	0.0007	0.0007	0.0157	-22.7
0.0052	0.003	-0.0008	0.0067	-22.4
0.0045	0.003	-0.0008	-0.0053	-22.7
0.0015	0.003	-0.0038	-0.0218	-22.5
0.0015	0.0067	-0.0023	-0.0308	-22.7
0.0045	0.012	-0.0008	-0.0165	-22.6
0.0052	0.0165	-0.0023	0.0112	-22.8
0.0045	0.0165	-0.0023	0.0232	-22.8
0.003	0.0127	-0.0015	0.0232	-22.8
0.003	0.0105	-0.0015	0.0202	-23.1
0.0045	0.0037	0	0.0067	-22.9
0.0007	-0.0091	0	0.0015	-23.1
-0.0053	-0.0181	0.0022	0.0255	-23.1
-0.0083	-0.006	0.0045	0.0405	-23.2
-0.0053	0.0007	0.0045	0.0142	-23.4
-0.0046	-0.0038	0.0052	-0.033	-23.1
-0.003	-0.0068	0.0082	-0.0608	-23.4
-0.0015	-0.006	0.0045	-0.0218	-23.4
-0.0023	0.0045	0	0.0142	-23.4
-0.0008	0.0052	-0.0015	0.0217	-23.6
0	0.0052	-0.0015	0.0345	-23.6
0	0.006	-0.0008	0.0262	-23.6
-0.0008	0	-0.0015	0.0165	-23.8
-0.0046	-0.0068	-0.0023	-0.0015	-23.7
-0.0046	-0.0128	0.0007	-0.039	-24
-0.0023	-0.0128	0.0007	-0.0465	-23.9
-0.0015	-0.0091	-0.0008	-0.0338	-24.2
-0.003	-0.0053	-0.0015	-0.0225	-24
-0.0015	-0.0008	-0.0023	-0.0128	-24.1
-0.0023	0.003	-0.0008	0.0007	-24
-0.0023	0.0052	-0.0015	0.0292	-24.3
-0.003	0.0007	-0.0046	0.0315	-24.4
-0.0038	-0.0068	0.0007	-0.0068	-24.3
-0.003	-0.0128	0.0015	-0.0368	-24.5
-0.0015	-0.012	0.0007	-0.0308	-24.3
-0.0015	-0.0053	-0.0023	-0.0113	-24.6
-0.0008	0.0015	-0.0068	0.0127	-24.5
-0.0008	0.006	-0.0098	0.0345	-24.7
-0.0015	0.0015	-0.0068	0.0187	-24.7
-0.0008	-0.0015	-0.003	0.0052	-24.6
-0.0008	0.0007	-0.0053	-0.006	-25.1
-0.0015	0.003	-0.003	-0.0046	-24.7
-0.0015	0.009	-0.0053	0.0202	-25
-0.0015	0.0112	-0.006	0.0352	-25
0.0007	0.0127	0.0007	0.0502	-25
0	0.012	0.0015	0.0487	-25.1
0.0022	0.0067	0.003	0.0187	-25.1
0.0015	-0.0015	0.0037	-0.0233	-25.2
0	-0.0091	0.0015	-0.0518	-25.3
0.0015	-0.006	-0.0015	-0.039	-25.4
0.0015	0.0015	-0.006	-0.0105	-25.5
0.0022	0.0007	-0.0091	-0.0053	-25.6
0.003	-0.0046	-0.0091	-0.0015	-25.5
0.0052	-0.0053	-0.0068	0.0067	-25.6
0.0045	-0.012	-0.0053	-0.0105	-25.7
0.0052	-0.0128	-0.0008	-0.0188	-25.7
0.0045	-0.0091	-0.0008	-0.0165	-25.6
0.003	-0.0053	-0.003	-0.0068	-25.7
0.0022	0.0045	-0.003	0.0082	-25.7
0.0015	0.0067	-0.0015	0.0127	-26
0.0015	0.0082	-0.0015	0.0225	-25.8
0.0007	0.009	-0.0015	0.042	-26.1
0	0.0097	0.003	0.0502	-26
0	0.0082	0.0067	0.036	-26.1
-0.0008	0.003	0.0105	0.0135	-26.1
-0.0008	0.0015	0.009	-0.015	-26.2
0.0015	0.0022	0.009	-0.0218	-26.3
0.0015	0.0052	0.0052	0.0022	-26.3
-0.0008	0.003	-0.0008	0.0105	-26.4
-0.0008	-0.0046	-0.0023	0.009	-26.5
-0.0008	-0.0105	-0.0015	-0.0046	-26.5
-0.0008	-0.0113	-0.0038	0.0045	-26.6
-0.0008	-0.006	-0.0053	0.024	-26.6
-0.0015	-0.0105	-0.0053	-0.0068	-26.9
-0.0015	-0.0173	-0.0038	-0.0323	-26.6
-0.0023	-0.0203	-0.006	-0.0323	-26.9
0	-0.0143	-0.0038	-0.0263	-26.8
0.0007	-0.0083	0.0007	-0.0353	-26.9
0	-0.0053	0.0037	-0.075	-27
0	-0.0068	0.0022	-0.096	-27
0	0.003	-0.0015	-0.0593	-27.4
0.0015	0.0097	-0.0015	-0.0128	-27
-0.0015	0.0135	-0.0068	0.0097	-27.4
-0.0023	0.018	-0.003	0.0247	-27.2
0	0.0142	0.0037	0.0307	-27.3
0.0015	0.0157	0.0067	0.0442	-27.3
0.0052	0.0165	0.0127	0.069	-27.4
0.0037	0.0217	0.012	0.093	-27.5
0.0007	0.0142	0.0105	0.0675	-27.5
-0.0008	-0.0038	0.0082	0.0052	-27.5
0.0007	-0.0195	0.003	-0.0503	-27.7
-0.0008	-0.024	0.0007	-0.0615	-27.6
-0.0008	-0.0143	-0.003	-0.0256	-28
-0.0008	-0.0038	-0.0091	0.009	-27.8
-0.0008	0.0015	-0.006	0.0277	-27.9
0.0007	-0.0023	-0.0046	0.0217	-27.9
0.0015	-0.0091	-0.0105	0.0082	-28
0.0007	-0.0203	-0.012	-0.0181	-28.2
0.0015	-0.0195	-0.0135	-0.0346	-28.1
0.0015	-0.0105	-0.015	-0.0105	-28.3
0.0015	-0.003	-0.0143	0.0105	-28.3
0.0022	0.0015	-0.012	0.0195	-28.3
0.0022	-0.0038	-0.006	0.012	-28.4
0.003	-0.0046	-0.006	0.0045	-28.3
0.003	0.0037	-0.0038	0.003	-28.5
0.0052	0.0052	-0.003	-0.003	-28.5
0.003	0.0037	0.0015	-0.0075	-28.8
0.0015	0.0105	0.0045	-0.0068	-28.5
0.0007	0.0127	0.0022	-0.0038	-28.8
0.0022	0.012	0.003	0.0052	-28.8
0.0022	0.0127	0.006	0.009	-28.8
0.0007	0.0082	0.006	-0.0046	-29
0	0.006	0.0052	-0.0068	-28.9
0.0007	0.0052	0.0037	0.0037	-29.2
0.0007	0.0105	0.0015	0.0052	-29.1
0.0007	0.018	0.0045	-0.0015	-29.3
0.0007	0.0142	0.0067	0.0015	-29.2
-0.0015	0.0015	0.0067	0.0045	-29.3
-0.0015	-0.0008	0.0067	0.018	-29.4
-0.0053	0.0082	0.0052	0.033	-29.3
-0.0053	0.003	0.0052	0.024	-29.5
-0.0068	-0.0015	0.0045	0.0135	-29.7
-0.0053	-0.0023	0.0067	0.0105	-29.7
-0.0046	-0.0053	0.0015	0.0187	-29.7
-0.0046	-0.003	0.0007	0.033	-29.7
-0.003	-0.003	0.003	0.0375	-30
-0.003	-0.0113	0.003	0.0277	-29.9
-0.0046	-0.0195	0.003	0.0172	-30.1
-0.003	-0.0218	0.0037	0.0165	-30.2
-0.003	-0.0218	0.0037	-0.0068	-30.2
-0.003	-0.0188	-0.0015	-0.03	-30.3
-0.0046	-0.0181	-0.0068	-0.0353	-30.4
-0.0038	-0.0143	-0.0091	-0.0315	-30.6
-0.0053	-0.006	-0.0113	-0.0278	-30.6
-0.003	-0.0038	-0.0038	-0.0443	-30.6
-0.0015	-0.006	-0.0023	-0.0585	-30.6
-0.0015	-0.0091	-0.0068	-0.0773	-30.5
0	-0.0053	-0.003	-0.0863	-30.9
-0.0008	0.003	0	-0.0593	-30.8
0.0007	0.0142	0.0037	-0.027	-31.1
-0.0008	0.021	0.0052	0.0075	-30.9
-0.003	0.024	0.0052	0.0315	-31.1
-0.003	0.0247	0.0045	0.0337	-31.1
-0.003	0.0202	0.0022	0.0495	-31.3
-0.0046	0.0127	0.0015	0.0555	-31.4
-0.0038	0.0007	0.003	0.0187	-31.4
-0.0015	-0.0053	0.0015	-0.0143	-31.5
-0.0008	-0.0053	-0.0015	-0.0158	-31.6
-0.0008	-0.0008	-0.0015	0.0082	-31.6
-0.0015	0.0052	-0.0015	0.0322	-31.8
-0.0023	0.003	0.0007	0.0315	-31.9
-0.003	-0.0008	0.0045	0.0277	-32.1
-0.003	-0.0046	0.003	0.0202	-32
-0.0053	-0.0128	-0.0015	0.0112	-32.3
-0.006	-0.0225	-0.003	0.003	-32.2
-0.006	-0.027	-0.003	-0.0143	-32.3
-0.0053	-0.0285	-0.0008	-0.0278	-32.5
-0.003	-0.0285	0.0015	-0.027	-32.6
-0.0015	-0.015	0	-0.0113	-32.8
-0.003	-0.0068	-0.0046	-0.0128	-32.7
-0.003	-0.0068	-0.006	-0.015	-33.1
-0.0015	-0.0046	-0.003	0.003	-32.9
0.0007	0.0045	-0.0015	0.0112	-33
0.0015	0.0135	-0.0008	0.0172	-33.2
0.0015	0.0157	0.0015	0.024	-33.3
0.0007	0.0195	0.0015	0.0315	-33.5
0.0007	0.0217	0.003	0.0495	-33.4
-0.0008	0.027	0.0037	0.048	-33.5
-0.0008	0.0255	0.006	0.024	-33.7
0.0007	0.0165	0.0082	-0.003	-33.8
-0.0008	0.012	0.0045	-0.0068	-34.2
-0.0015	0.012	0.0015	0.0127	-33.9
-0.0008	0.0127	0.0007	0.0277	-34.2
-0.0008	0.0082	0.003	0.018	-34.1
0.0022	0.0007	0.003	0.0052	-34.5
0.003	-0.0038	0.003	0.0097	-34.4
0.0022	-0.0023	0.0052	0.0015	-34.7
0.0007	-0.0046	0.006	0.003	-34.7
0.0015	-0.0068	0.0052	0.0157	-34.8
0.0015	-0.0128	0.0022	0.0165	-34.9
0.0007	-0.0225	-0.0008	0.012	-35
0.0015	-0.0278	-0.003	-0.0075	-35.1
0.0015	-0.03	-0.0083	-0.039	-35.4
0.0022	-0.027	-0.0105	-0.063	-35.4
0.0007	-0.0263	-0.012	-0.0706	-35.7
-0.0015	-0.0248	-0.0143	-0.0668	-35.7
0.0007	-0.015	-0.012	-0.0623	-35.9
0.0015	-0.0008	-0.0091	-0.0615	-36
0.0007	0.0075	-0.0075	-0.0533	-36
0.003	0.018	-0.003	-0.0278	-36
0.0022	0.0292	-0.0008	0.0112	-36.1
0.003	0.0345	-0.0008	0.048	-36.5
0.003	0.0315	0.0015	0.0555	-36.3
0.0045	0.0232	-0.0015	0.0367	-36.8
0.0015	0.018	-0.0038	0.0292	-36.6
-0.0008	0.0142	-0.0046	0.0345	-36.9
0.0015	0.006	-0.0053	0.0322	-36.9
-0.0008	-0.0046	-0.0038	0.0217	-37.1
0.0007	-0.0053	0	0.0105	-37.2
0.0045	0.0022	0.0045	0.0165	-37.4
0.0045	0.0015	0.006	0.0202	-37.4
0.0037	-0.003	0.0037	0.0157	-37.4
0.0022	-0.0083	-0.0008	0.009	-37.5
0.0007	-0.0181	-0.003	-0.0023	-37.7
-0.003	-0.0308	-0.0046	-0.012	-37.7
-0.0008	-0.0375	-0.006	-0.0346	-38
0.0045	-0.0368	-0.0038	-0.054	-37.9
0.0075	-0.0308	-0.0023	-0.0533	-38.3
0.009	-0.0195	-0.0015	-0.0405	-38.2
0.0097	-0.0173	0	-0.0278	-38.4
0.0097	-0.0135	0.0015	-0.0278	-38.4
0.0067	0	0.0037	-0.012	-38.7
0.0075	0.0187	0.0052	0.0195	-38.6
0.0067	0.0315	0.0052	0.0412	-38.9
0.0067	0.0337	0.003	0.0517	-38.9
0.0045	0.0322	0.0007	0.054	-39.2
0.003	0.0292	0.0015	0.0517	-39.2
0.0007	0.024	0.003	0.0465	-39.4
-0.0008	0.012	0.0015	0.0345	-39.4
0.0007	-0.0008	-0.0015	0.0037	-39.4
-0.0008	-0.012	-0.0015	-0.0315	-39.7
0.003	-0.0128	-0.0008	-0.0405	-39.8
0.006	-0.0053	0.0015	-0.0346	-39.9
0.0052	-0.003	0.0037	-0.0293	-39.9
0.0052	0.0007	0.003	-0.021	-40.1
0.003	-0.0008	0.0007	-0.0158	-40.2
0	-0.0008	-0.0008	-0.0068	-40.6
-0.0008	0.0015	-0.0008	0.0015	-40.3
-0.0038	0.003	-0.003	0.0165	-40.6
-0.0068	0.003	-0.0038	0.0292	-40.9
-0.0105	-0.0008	-0.0046	0.0292	-40.9
-0.0195	-0.0046	-0.0038	0.027	-41
-0.0256	-0.0083	-0.003	0.0217	-41.1
-0.0256	-0.0083	-0.0053	0.0217	-41.2
-0.0233	-0.0083	-0.0046	0.0337	-41.2
-0.0203	-0.0128	-0.003	0.0457	-41.4
-0.0181	-0.0203	-0.0015	0.0435	-41.7
-0.015	-0.0218	0.0022	0.0232	-41.7
-0.0091	-0.0195	0.0045	-0.0008	-41.9
-0.0091	-0.0181	0.0007	-0.012	-41.8
-0.0053	-0.0068	-0.006	-0.0068	-42.3
-0.0015	-0.0038	-0.0083	-0.0075	-42.2
-0.0008	-0.0068	-0.006	-0.0293	-42.5
0.0015	-0.0075	-0.0053	-0.0578	-42.5
0.0045	-0.0098	-0.0053	-0.0856	-42.5
0.0067	-0.0046	-0.006	-0.0938	-42.8
0.006	0.0015	-0.0053	-0.0758	-42.9
0.0067	0.009	-0.0046	-0.0495	-43.2
-0.003	0.012	-0.0091	-0.0315	-43.2
-0.0188	0.0052	-0.0128	-0.0263	-43.3
-0.0218	0.0015	-0.0083	-0.024	-43.5
-0.0181	0.0007	-0.0046	-0.0181	-43.4
-0.0143	0.006	-0.0015	-0.0015	-43.7
-0.0091	0.009	-0.0008	0.0007	-43.7
-0.0053	0.0097	-0.0015	0.0082	-44
-0.003	0.015	0.0052	0.0232	-44
-0.0023	0.018	0.0105	0.0292	-44.3
-0.0015	0.0202	0.0127	0.0382	-44.4
0.0015	0.0202	0.0172	0.0427	-44.4
0	0.0195	0.0172	0.0495	-44.7
0.0007	0.0187	0.0172	0.0502	-44.8
0.0007	0.0142	0.0187	0.0502	-44.9
0.0022	0.0105	0.0165	0.0577	-45
0.0052	0.0067	0.0127	0.0592	-45
0.0067	0.0052	0.0097	0.06	-45.5
0.0082	0.0067	0.0082	0.0562	-45.4
0.0105	0.0052	0.0105	0.0457	-45.7
0.012	-0.0008	0.0127	0.0367	-45.7
0.009	-0.0113	0.0127	0.0285	-45.9
0.009	-0.0188	0.0082	0.0105	-46
0.0105	-0.0225	0.0037	-0.0105	-46.2
0.0082	-0.0263	0	-0.0203	-46.4
0.006	-0.0346	-0.0053	-0.042	-46.5
0.0082	-0.0465	-0.0105	-0.0683	-46.8
0.0075	-0.0503	-0.0105	-0.084	-46.7
0.0097	-0.0375	-0.0075	-0.0833	-47.1
0.0127	-0.0203	-0.006	-0.0765	-47.1
0.012	-0.0075	-0.0091	-0.0713	-47.3
0.012	0.0007	-0.012	-0.0585	-47.3
0.0142	0.0075	-0.0128	-0.0375	-47.5
0.0157	0.015	-0.0143	-0.0203	-47.8
0.0157	0.0157	-0.0128	-0.0068	-47.7
0.0157	0.0142	-0.0091	0.003	-47.9
0.0105	0.018	-0.006	0.006	-47.9
0.0052	0.0255	-0.0008	0.0195	-48.1
0.0007	0.0285	0.0007	0.0307	-48.3
-0.0046	0.0195	-0.0023	0.0337	-48.3
-0.0046	0.0127	-0.0015	0.033	-48.6
-0.0053	0.0052	0	0.0187	-48.8
-0.0083	0.0037	0.0007	0.0105	-48.9
-0.0083	0.0105	0.0007	0.0127	-49.1
-0.0091	0.012	0.0015	0.0345	-49.1
-0.0091	0.0135	-0.0023	0.063	-49.4
-0.0068	0.0112	-0.0068	0.0772	-49.5
-0.0046	0.0052	-0.0068	0.078	-49.7
-0.0023	0.003	-0.0053	0.066	-49.8
0	-0.0008	-0.0075	0.048	-50
0.0015	-0.0098	-0.0105	0.0232	-50.3
0.0015	-0.0173	-0.0135	0.0165	-50.3
0.0015	-0.0218	-0.0143	0.0142	-50.5
0.0037	-0.0248	-0.0128	-0.0181	-50.6
0.0045	-0.0225	-0.0105	-0.0465	-51
0.0045	-0.0195	-0.0105	-0.06	-50.9
0.0052	-0.0195	-0.0098	-0.0653	-51.2
0.006	-0.0195	-0.0105	-0.0683	-51.3
0.0067	-0.0256	-0.0098	-0.093	-51.4
0.0067	-0.0278	-0.0083	-0.114	-51.7
0.0097	-0.0158	-0.0038	-0.1148	-51.7
0.012	0.009	0.0052	-0.0968	-51.9
0.0112	0.0292	0.009	-0.0495	-51.8
0.009	0.036	0.009	0.0022	-52.1
0.0075	0.0352	0.009	0.0345	-52.2
0.003	0.0307	0.0082	0.0517	-52.3
0.0007	0.0262	0.012	0.0555	-52.6
-0.0015	0.0232	0.0127	0.0547	-52.6
-0.0015	0.018	0.0135	0.0532	-52.9
-0.003	0.012	0.0127	0.0532	-52.9
-0.0053	0.0082	0.009	0.0502	-53
-0.0053	0.0022	0.0067	0.0435	-53.1
-0.0135	-0.0008	0.0037	0.036	-53.5
-0.027	-0.0023	0.0015	0.027	-53.5
-0.0278	-0.0068	0.0007	0.0217	-53.5
-0.0203	-0.0083	0.0022	0.0187	-53.8
-0.0181	-0.0091	0.0007	0.0157	-53.7
-0.0128	-0.0128	0.0015	0.0052	-54
-0.0091	-0.0165	0.0007	-0.0068	-54.2
-0.0083	-0.0143	0.0007	-0.0091	-54.3
-0.0046	-0.0113	0.003	-0.0008	-54.4
-0.003	-0.0098	0.003	0.0097	-54.6
-0.0008	-0.0083	0.0142	0.006	-54.9
-0.0008	-0.012	0.0862	-0.0053	-55
-0.0023	-0.0128	0.2062	-0.0158	-55
-0.0008	-0.0083	0.2085	-0.0218	-55.4
0.0015	-0.0046	0.1515	-0.0203	-55.2
0.0045	0.0015	0.1402	-0.0158	-55.6
0.006	0.003	0.093	-0.015	-55.5
0.0067	0.0037	0.0697	-0.0038	-55.8
0.009	0.009	0.0442	0.0172	-56
0.0075	0.015	0.0172	0.042	-56
0.0075	0.0232	0.0052	0.0727	-56.3
0.0067	0.024	-0.0188	0.102	-56.4
0.003	0.0165	-0.0248	0.1102	-56.3
0.0015	0.0105	-0.0405	0.0997	-56.5
0.0007	0.0045	-0.0443	0.078	-56.7
-0.0015	-0.0091	-0.0533	0.0397	-57
-0.0046	-0.0278	-0.0653	-0.0068	-56.9
-0.0068	-0.039	-0.0706	-0.0638	-57.2
-0.0053	-0.0503	-0.0773	-0.1388	-57.1
-0.003	-0.057	-0.078	-0.2108	-57.5
0	-0.0458	-0.0788	-0.2295	-57.5
0.0022	-0.0248	-0.0765	-0.198	-57.7
0.0015	-0.0128	-0.0803	-0.1673	-57.8
0.0022	-0.0075	-0.0803	-0.1335	-58
0.0007	0.0052	-0.0758	-0.0803	-58.1
-0.0075	0.0187	-0.0675	-0.0173	-58.3
-0.0128	0.0225	-0.0593	0.0345	-58.3
-0.0083	0.0255	-0.057	0.06	-58.5
-0.0075	0.0285	-0.048	0.0652	-58.8
-0.0053	0.0315	-0.0405	0.0667	-58.8
0	0.0367	-0.0308	0.0727	-59
0.0007	0.0405	-0.0233	0.084	-59.2
0	0.039	-0.0218	0.1057	-59.1
0	0.033	-0.0165	0.1237	-59.3
-0.0015	0.024	-0.015	0.123	-59.5
-0.0038	0.0112	-0.0218	0.102	-59.5
-0.003	-0.0105	-0.0293	0.0765	-59.6
-0.0046	-0.0346	-0.0315	0.0472	-59.7
-0.0038	-0.054	-0.033	0.0007	-59.9
-0.0008	-0.0578	-0.0278	-0.0428	-59.9
0.0007	-0.0443	-0.0195	-0.0773	-60.4
0.0052	-0.0293	-0.0158	-0.1013	-60.2
0.0067	-0.0068	-0.0128	-0.0968	-60.4
0.0082	0.0082	-0.0091	-0.0788	-60.5
0.0082	0.0135	-0.0083	-0.0375	-60.6
0.0075	0.0195	-0.003	0.003	-60.7
0.009	0.0225	0.003	0.0187	-60.9
0.0082	0.027	0.0075	0.0292	-60.9
0.0082	0.021	0.0097	0.0345	-61
0.0082	0.0165	0.012	0.0405	-61.1
0.0082	0.0165	0.012	0.0405	-61.5
0.0082	0.015	0.0127	0.042	-61.4
0.0067	0.0157	0.0127	0.0562	-61.6
0.0045	0.0142	0.0105	0.087	-61.7
0.0022	0.0142	0.009	0.1185	-61.8
0.0015	0.009	0.0067	0.108	-61.8
0.0015	-0.0008	0.0052	0.0727	-62.1
0.0015	-0.0181	0.0052	0.0262	-62.2
0.0007	-0.0353	0.0045	-0.0256	-62.3
0.0015	-0.0436	0.0045	-0.0728	-62.3
0.0037	-0.0518	0.003	-0.1275	-62.6
0.003	-0.057	0.0015	-0.1613	-62.7
0.0022	-0.0383	0.0007	-0.1583	-62.9
0.0015	-0.0053	0.0022	-0.123	-62.9
0.0015	0.0157	0.0052	-0.0458	-63.1
0.0007	0.03	0.0052	0.0412	-63.1
0.0007	0.0337	0.0045	0.1012	-63.3
-0.003	0.027	0.0045	0.1252	-63.3
-0.0053	0.0195	0.0052	0.108	-63.5
-0.0046	0.0127	0.009	0.0795	-63.6
-0.0023	0.0097	0.012	0.0457	-63.7
0.0015	-0.003	0.0127	-0.0135	-64
0.0022	-0.0181	0.012	-0.0773	-64
0.006	-0.0233	0.0082	-0.12	-64.4
0.0052	-0.027	0.0067	-0.1388	-64.1
0.003	-0.0285	0.0082	-0.1403	-64.4
0.003	-0.0165	0.0067	-0.1155	-64.6
-0.0008	-0.0068	0.003	-0.0788	-64.7
-0.0023	-0.003	0.0007	-0.0315	-64.6
-0.003	0.0052	-0.0008	0.0187	-64.6
0	0.0105	-0.0008	0.0502	-64.9
-0.0015	0.0142	0.0015	0.0727	-65
-0.0038	0.018	0.0007	0.075	-65.2
-0.0046	0.0202	-0.0015	0.072	-65.2
-0.0046	0.0165	-0.0023	0.0712	-65.3
-0.0046	0.0187	0	0.0727	-65.5
-0.0053	0.0157	0.003	0.0705	-65.6
-0.0068	0.0067	0.0015	0.0562	-65.8
-0.0053	0.0007	-0.0008	0.0442	-65.7
-0.0068	-0.0158	-0.0015	0.0367	-66
-0.0053	-0.0308	-0.003	0.0097	-65.9
-0.0046	-0.0428	-0.0038	-0.042	-66.1
-0.0053	-0.039	-0.003	-0.0818	-66.4
-0.0023	-0.0218	0.0037	-0.1088	-66.5
0.003	-0.0128	0.0082	-0.1223	-66.5
0.0045	-0.0038	0.0082	-0.1043	-66.6
0.0045	0.003	0.009	-0.0743	-66.9
0.003	0.009	0.0082	-0.027	-66.9
0.0022	0.0165	0.0067	0.0255	-66.9
0.0022	0.024	0.0052	0.0712	-67.2
0.0007	0.0285	0.0067	0.1072	-67.1
0.0007	0.0285	0.009	0.126	-67.4
-0.0015	0.0255	0.009	0.1327	-67.3
0	0.0217	0.0105	0.132	-67.5
-0.0023	0.021	0.0082	0.12	-67.7
-0.0046	0.0157	0.0082	0.0765	-67.8
-0.0015	0.0045	0.0112	0.0127	-68
-0.0015	-0.003	0.0082	-0.0473	-68.1
-0.0015	-0.0008	0.0067	-0.0803	-68.1
-0.0015	0.0007	0.006	-0.0825	-68.3
-0.0046	-0.0015	-0.0008	-0.0818	-68.4
-0.0083	-0.0195	-0.0015	-0.075	-68.7
-0.0083	-0.0503	-0.0015	-0.0593	-68.5
-0.0091	-0.0533	0.0015	-0.0436	-68.9
-0.0105	-0.012	0.0045	-0.0181	-68.6
-0.0128	0.0112	0.0052	-0.0053	-68.9
-0.0143	0.0067	0.0052	-0.003	-69
-0.0143	0.0067	0.0015	-0.0015	-69.2
-0.0135	-0.0068	-0.003	0.0022	-69.4
-0.0128	-0.0128	-0.0083	0.003	-69.3
-0.0113	-0.0181	-0.012	-0.012	-69.6
-0.0105	-0.0256	-0.0128	-0.024	-69.5
-0.0075	-0.0195	-0.0091	-0.0165	-69.8
-0.003	-0.0083	-0.0053	0.009	-69.8
-0.0008	0.0022	-0.0046	0.042	-69.9
0.0015	0.0015	-0.006	0.0517	-70.1
0.0015	0.0015	-0.0068	0.048	-70.1
0.0007	0.0037	-0.0046	0.0555	-70.4
0.0022	0.0052	-0.003	0.051	-70.4
0.003	0.009	0	0.0487	-70.6
0.003	0.0052	-0.003	0.03	-70.7
0.0045	-0.0023	-0.0053	-0.0346	-70.7
0.0052	0.0052	0.0015	-0.0893	-71
0.0067	0.0195	0.0052	-0.129	-71
0.0052	0.018	0.003	-0.1298	-71.1
0.0015	0.018	0.003	-0.063	-71.2
0.0007	0.024	0.0037	-0.0195	-71.5
0.0007	0.0165	0.0067	-0.0008	-71.5
0.003	0.0157	0.0075	0.0217	-71.6
0.0007	0.012	0.0052	0.0427	-71.7
-0.003	0.0007	0.003	0.0727	-71.8
-0.0008	-0.0023	0.0052	0.0735	-71.9
-0.0023	-0.0015	0.0052	0.06	-72.2
-0.0038	-0.0015	0.003	0.0457	-72
-0.0053	0.0037	0	0.0472	-72.4
-0.006	0.0022	-0.0046	0.0682	-72.4
-0.006	-0.0053	-0.0083	0.0615	-72.7
-0.0046	-0.012	-0.0091	0.0255	-72.6
-0.0015	-0.0233	-0.006	-0.0405	-72.9
-0.0015	-0.033	-0.0046	-0.0975	-72.9
-0.0015	-0.0383	-0.006	-0.1125	-73
-0.0015	-0.0308	-0.0008	-0.1088	-73.1
0.0007	-0.0173	0.0015	-0.0885	-73.2
0.0015	0.0022	0.0045	-0.0375	-73.4
0.0007	0.0255	0.0082	0.0082	-73.2
0.0007	0.0292	0.0067	0.0285	-73.5
-0.0008	0.0247	0.0075	0.0727	-73.7
0.0007	0.0285	0.009	0.1035	-73.8
0.0045	0.0345	0.009	0.09	-73.9
0.0067	0.0375	0.0105	0.0547	-73.8
0.006	0.0307	0.009	0.0067	-74.1
0.003	0.012	0.0015	-0.0181	-74.1
-0.0015	-0.0053	-0.0038	-0.0315	-74.4
-0.003	-0.0128	-0.0068	-0.0533	-74.5
-0.0015	-0.027	-0.0083	-0.0563	-74.7
-0.0046	-0.0375	-0.0098	-0.0465	-74.7
-0.021	-0.039	-0.0113	-0.0443	-74.8
-0.0638	-0.0488	-0.0128	-0.0225	-75
-0.0825	-0.048	-0.0098	-0.006	-75
-0.0593	-0.0135	-0.0046	-0.015	-75.2
-0.0511	0.0052	-0.0046	-0.0135	-75.2
-0.0361	0.0247	0.0007	0.0052	-75.3
-0.0203	0.0382	0.0045	0.024	-75.3
-0.012	0.0277	0.0052	0.0367	-75.5
0.0022	0.0255	0.0075	0.0472	-75.6
0.0067	0.0157	0.0067	0.0577	-75.7
0.0127	-0.0008	0.006	0.069	-75.8
0.015	-0.0338	0.0075	0.0577	-76.1
0.0195	-0.048	0.0045	0.0367	-76.1
0.024	-0.0338	0.003	0.0135	-76.3
0.0277	-0.0308	0.0052	-0.027	-76.2
0.0315	-0.0225	0.0037	-0.039	-76.4
0.033	-0.0158	0.0007	-0.033	-76.5
0.0352	-0.0075	-0.0008	-0.024	-76.8
0.0352	0.0157	0	-0.0068	-76.9
0.0345	0.033	0.0015	-0.0023	-76.9
0.033	0.0405	0.0007	0.027	-77
0.033	0.033	0.0007	0.0517	-77.1
0.03	0.0247	0	0.048	-77.2
0.0277	0.03	0	0.0442	-77.3
0.0255	0.0105	0	0.0382	-77.4
0.027	-0.0195	0.0075	0.0285	-77.5
0.0277	-0.0015	0.009	0.012	-77.6
0.0255	0.018	0.0067	0.0105	-77.9
0.0232	0.0277	0.006	0.0255	-77.6
0.0157	0.036	-0.0015	-0.0015	-78.1
0.0082	-0.0046	-0.0128	-0.045	-78
0.0045	-0.0278	-0.0218	-0.021	-78.3
0.0015	-0.0293	-0.0195	-0.0173	-78.2
0.0045	-0.0413	-0.0128	-0.0915	-78.4
0.0075	-0.0428	-0.0083	-0.18	-78.7
0.009	-0.0503	-0.0053	-0.2378	-78.7
0.0097	-0.0436	-0.0068	-0.2093	-78.8
0.0075	-0.0173	-0.0083	-0.129	-78.8
0.0052	0.0015	-0.0053	-0.0361	-79
0.0067	0.0052	-0.0046	0.0352	-79
0.0067	0.0165	-0.003	0.057	-79.1
0.0052	0.0315	-0.0008	0.0855	-79.2
0.0037	0.0382	0.0045	0.117	-79.1
0.0007	0.0247	0.012	0.1575	-79.2
-0.003	0.0285	0.0142	0.189	-79.4
-0.0053	0.0442	0.0105	0.1785	-79.4
-0.0083	0.018	0.0067	0.1425	-79.7
-0.0091	0.0037	0.0045	0.09	-79.7
-0.0128	-0.0195	-0.0046	0.0427	-80
-0.015	-0.0383	-0.0083	-0.0263	-80
-0.0135	-0.0458	-0.0083	-0.1215	-80.2
-0.012	-0.0315	-0.0098	-0.1553	-80.2
-0.0158	0.0172	-0.0128	-0.1155	-80.4
-0.0195	0.009	-0.0165	-0.0735	-80.4
-0.0203	-0.0263	-0.0165	-0.0398	-80.6
-0.0203	-0.0158	-0.0128	-0.0195	-80.7
-0.0165	0.0045	-0.0053	-0.0165	-80.8
-0.0128	0.0082	-0.0015	-0.012	-80.8
-0.0083	0.0195	0.0015	-0.0038	-80.9
-0.0068	0.0292	0.003	-0.0083	-81
-0.0083	0.0352	0.0007	-0.0195	-81.2
-0.0083	0.012	0.0022	-0.0158	-81
-0.0068	-0.0143	0.0082	0.0082	-81.4
0	-0.012	0.0127	0.042	-81.3
0.0045	0.0195	0.018	0.0705	-81.6
0.0082	0.0352	0.0165	0.093	-81.5
0.0097	0.012	0.015	0.1027	-81.7
0.0142	0.0082	0.012	0.0877	-81.7
0.021	0.0015	0.0067	0.0547	-81.9
0.0255	0.0045	0.0067	0.012	-81.9
0.0307	-0.0075	0.0052	-0.024	-82
0.0315	-0.027	0.0015	-0.0675	-82.1
0.0307	-0.0263	-0.003	-0.1088	-82.4
0.027	-0.0308	-0.006	-0.0773	-82.5
0.0232	-0.0353	-0.0083	-0.0233	-82.6
0.0187	-0.0285	-0.0113	0.0067	-82.6
0.0135	-0.0135	-0.0053	0.0292	-82.9
0.0097	-0.0053	0	-0.003	-82.8
0.003	0.0052	0.0015	-0.039	-83.1
-0.0038	0.0105	0	-0.0361	-83
-0.012	0.024	0.0007	-0.0015	-83.3
-0.0173	0.0345	0	0.0547	-83.3
-0.0233	0.0345	-0.0015	0.0892	-83.3
-0.0278	0.0277	-0.0015	0.1087	-83.7
-0.0293	0.0052	-0.0046	0.0937	-83.5
-0.03	-0.0135	-0.0053	0.0667	-83.8
-0.0293	-0.0181	-0.006	0.0592	-83.9
-0.0263	-0.0195	-0.0053	0.003	-84
-0.024	-0.027	-0.003	-0.0953	-84.2
-0.024	-0.024	-0.0046	-0.1448	-84.1
-0.0233	-0.0113	-0.003	-0.1163	-84.5
-0.024	0.006	-0.0008	-0.0645	-84.4
-0.024	0.0157	-0.0038	-0.0285	-84.5
-0.024	0.0262	-0.0075	0.0202	-84.6
-0.021	0.0367	-0.0046	0.045	-84.7
-0.0188	0.0165	-0.003	0.012	-84.8
-0.0158	-0.042	-0.0046	0.0045	-84.7
-0.0135	-0.0945	-0.0053	0.0292	-85.1
-0.0113	-0.063	-0.003	0.015	-85.1
-0.006	-0.027	0.006	-0.0383	-85.3
-0.0046	-0.0683	0.0142	-0.0818	-85.3
-0.0015	-0.063	0.0195	-0.0555	-85.5
-0.0015	0.0052	0.0202	0.0262	-85.5
-0.0053	0.0652	0.0195	0.114	-85.6
-0.0098	0.1072	0.018	0.1972	-85.8
-0.015	0.1462	0.0097	0.2332	-85.8
-0.0173	0.1215	-0.0023	0.2437	-85.9
-0.0181	0.0405	-0.0135	0.2227	-86.1
-0.0128	0.0067	-0.0165	0.1155	-86.3
-0.0083	-0.0398	-0.0181	-0.0555	-86.4
-0.003	-0.0795	-0.0203	-0.2761	-86.5
-0.0015	-0.1358	-0.027	-0.4395	-86.7
-0.0023	-0.1328	-0.0285	-0.4448	-86.7
-0.0008	-0.0511	-0.0248	-0.4005	-86.9
0.0022	-0.0068	-0.021	-0.2858	-86.9
0.0045	0.0697	-0.0158	-0.1028	-86.9
0.003	0.096	-0.0105	-0.0046	-87.1
0.0037	0.0952	-0.0046	0.093	-87
0.0067	0.0967	0.0067	0.1425	-87.2
0.012	0.054	0.0142	0.1305	-87.3
0.0127	0.018	0.0202	0.1342	-87.3
0.0105	-0.027	0.018	0.0742	-87.6
0.0082	-0.084	0.0112	0.0562	-87.4
0.0052	-0.09	0.0127	0.1177	-87.8
0.0052	-0.0653	0.009	0.156	-87.7
0.0022	-0.0465	0.0015	0.1882	-87.9
0.0045	0.033	0.0007	0.2227	-87.8
0.0105	0.0345	0.0037	0.1935	-88.2
0.0127	0.003	0.006	0.0975	-88.2
0.0105	-0.006	0.0067	-0.042	-88.4
0.0045	-0.0181	0.003	-0.165	-88.6
0.0015	-0.0323	-0.0008	-0.192	-88.6
-0.0008	-0.0465	-0.0091	-0.1283	-88.9
0.0007	-0.0053	-0.0181	-0.0691	-88.7
0.0007	-0.0128	-0.0181	-0.0645	-88.9
0.0007	-0.0135	-0.015	-0.0608	-89
-0.0008	-0.0248	-0.0113	-0.078	-89
-0.003	-0.0218	-0.0098	-0.078	-89.4
-0.0008	-0.0053	-0.0053	-0.0623	-89.4
0.0022	-0.0203	-0.0008	-0.084	-89.5
0.003	0.0232	0.0007	-0.0765	-89.5
0.003	0.0397	0.0067	-0.057	-89.6
0.0045	0.042	0.0082	-0.024	-89.7
0.0037	0.081	0.0075	0.0442	-89.7
0.0037	0.0817	0.0067	0.081	-90
0.0037	0.0352	0.0015	0.1027	-89.9
0.0037	0.0195	0.003	0.1357	-90
0.006	0.0195	0.009	0.1627	-90.1
0.0052	-0.0053	0.0135	0.1462	-90.4
0.0052	-0.006	0.018	0.1252	-90.3
0.0045	0.0172	0.021	0.1387	-90.5
0.0052	0.0255	0.0217	0.1147	-90.6
0.003	0.0075	0.0157	0.0735	-90.6
-0.0008	-0.0113	0.0067	0.0547	-90.7
-0.0015	0.003	0.0015	0.0757	-90.9
-0.0015	0.0315	0	0.084	-90.9
0.0015	-0.0015	-0.0015	0.0217	-91.4
0.0022	-0.075	-0.0083	-0.0436	-91.3
0.0037	-0.0691	-0.0135	-0.1223	-91.6
0.0075	-0.0225	-0.015	-0.1478	-91.4
0.0097	-0.0046	-0.0113	-0.135	-91.6
0.012	0.027	-0.0091	-0.213	-91.8
0.0105	0.0217	-0.0135	-0.2955	-91.8
0.0045	-0.0323	-0.0158	-0.2761	-92.1
0.0015	-0.0368	-0.0113	-0.162	-91.9
-0.0015	-0.0105	-0.0083	-0.0405	-92.2
-0.003	-0.0135	-0.0075	0.024	-92.2
-0.003	-0.039	-0.0083	0.0555	-92.1
-0.0038	-0.0728	-0.0075	0.0675	-92.3
-0.0015	0.0052	-0.0015	0.0705	-92.3
-0.0008	0.0667	0.0015	0.0502	-92.6
-0.0008	-0.012	0.0007	0.0285	-92.5
-0.0015	-0.0008	0.0052	0.0607	-92.9
-0.0015	0.0367	0.0075	0.084	-92.8
-0.0015	0.0142	0.0082	0.0697	-92.9
-0.0015	-0.0413	0.0067	0.0712	-93.2
-0.0053	-0.0495	0.0007	0.1042	-93.1
-0.0091	0.0345	-0.0008	0.165	-93.3
-0.0083	0.0877	0.0022	0.192	-93.2
-0.0068	0.0855	0.0045	0.129	-93.5
-0.003	0.033	0.003	0.006	-93.6
-0.003	-0.0368	0.0015	-0.0593	-93.7
-0.0015	-0.0443	-0.0015	-0.0465	-93.8
0.003	-0.0308	-0.0015	-0.063	-94.1
0.0007	-0.0293	-0.0046	-0.0938	-94.1
-0.003	-0.03	-0.0083	-0.1485	-94.2
-0.0046	-0.0428	-0.0105	-0.1711	-94.3
-0.003	-0.0346	-0.0083	-0.1193	-94.4
-0.0015	-0.0465	-0.003	-0.0923	-94.4
0.003	-0.0383	0.006	-0.0495	-94.7
0.0045	0.0292	0.0157	0.0172	-94.4
0.0015	0.057	0.0202	0.0915	-94.9
-0.0015	0.0592	0.018	0.1815	-94.7
-0.0053	0.06	0.0075	0.2167	-94.9
-0.0068	0.0202	0.0075	0.1957	-95
-0.0023	-0.0278	0.0105	0.156	-95
0.0007	-0.024	0.0052	0.1087	-95.3
-0.0015	0.003	-0.0015	0.0465	-95.3
0.0015	0.027	-0.0053	-0.0706	-95.5
0.0052	0.0112	-0.0098	-0.2123	-95.6
0.0037	-0.0165	-0.0128	-0.2513	-95.6
0.0037	0.0037	-0.0135	-0.2093	-96.1
0.0045	0.0045	-0.0165	-0.1748	-95.9
0.003	-0.0263	-0.0158	-0.1253	-96.1
0.003	-0.0706	-0.0143	-0.0563	-96
0.0045	-0.0383	-0.0105	0.0105	-96.3
0.006	0.0352	-0.0015	0.0352	-96.1
0.0075	0.012	0.0015	0.0337	-96.4
0.0045	0.006	0.0052	0.0592	-96.4
0.003	0.0105	0.0105	0.099	-96.4
0.003	0.003	0.0097	0.1237	-96.5
0.0052	0.0015	0.0052	0.1162	-96.6
0.0075	-0.0083	0.003	0.084	-96.9
0.0082	0.0052	0.0052	0.0607	-96.9
0.0067	0.0045	0.0052	0.0307	-97
0.0045	-0.0023	0.0067	-0.0428	-97.2
0.0022	-0.0218	0.009	-0.0691	-97.2
-0.003	0.0082	0.0075	-0.0315	-97.3
-0.0083	0.0442	0.0052	-0.0008	-97.3
-0.0143	0.0615	0.0015	0.0675	-97.6
-0.0165	0.0757	-0.0113	0.0855	-97.7
-0.0195	0.0367	-0.0225	0.078	-97.7
-0.0181	0.0202	-0.0256	0.1155	-98
-0.0128	0.0045	-0.0218	0.0847	-97.9
-0.0068	-0.0405	-0.0195	0.0232	-98.2
-0.0015	-0.1073	-0.0195	-0.0691	-98.2
0.0015	-0.1373	-0.0105	-0.1928	-98.5
0.0082	-0.1095	-0.003	-0.3128	-98.4
0.0097	-0.0953	0.0007	-0.3421	-98.5
0.0052	-0.0458	-0.0023	-0.2228	-98.7
0.0015	0.009	-0.0015	-0.0593	-98.7
0	0.045	0.0067	0.09	-98.8
0.0007	0.105	0.0202	0.1575	-98.9
0.0037	0.117	0.0292	0.1507	-98.9
0.0075	0.0952	0.03	0.1395	-99.1
0.0075	0.03	0.0285	0.138	-98.9
0.0045	-0.0113	0.021	0.1297	-99.4
0.0015	0.0022	0.0157	0.0682	-99.1
0.0015	-0.003	0.012	0.009	-99.5
-0.003	-0.003	0.0075	0.0157	-99.5
-0.0046	-0.0053	-0.0046	0.027	-99.8
-0.0068	0.0052	-0.0181	-0.0188	-99.9
-0.0053	-0.0105	-0.0218	-0.0863	-99.8
-0.003	-0.0008	-0.0203	-0.0856	-99.9
-0.0046	0.0262	-0.0181	-0.0518	-99.9
-0.006	-0.0091	-0.0195	-0.0368	-100.2
-0.0068	-0.0398	-0.0128	0.0255	-100.1
-0.0015	-0.0503	-0.0098	0.0517	-100.4
0.003	-0.0495	-0.0083	-0.0128	-100.4
0.0045	-0.0195	-0.0053	-0.0218	-100.4
0.0037	0.033	-0.003	-0.042	-100.6
0.0007	0.0465	0.0007	-0.108	-100.5
-0.0015	0.0397	0.0015	-0.114	-100.6
-0.0023	0.0345	0.012	-0.0856	-100.7
-0.0008	0.0232	0.0165	-0.024	-100.8
-0.0023	0.0022	0.018	0.0105	-101
-0.0023	0	0.0165	0.0285	-100.9
-0.0053	0.0352	0.009	0.0705	-101.1
-0.0091	0.0045	0.0015	0.0915	-101
-0.0068	0.0082	0.0007	0.141	-101.3
-0.003	0.03	0.0015	0.1522	-101.3
-0.0008	0.003	-0.0023	0.075	-101.5
0.0022	-0.0181	-0.0053	-0.0068	-101.6
0.0067	-0.0405	-0.0038	-0.0803	-101.7
0.0052	-0.0495	-0.006	-0.0863	-102
-0.0008	-0.054	-0.0113	-0.0046	-102.1
-0.0046	-0.0368	-0.0128	0.0555	-101.9
-0.0083	-0.033	-0.015	0.039	-102.2
-0.003	-0.0143	-0.0135	0.0255	-102
0.0022	-0.0091	-0.0083	0.0502	-102.4
0.0052	-0.0046	0.0007	0.0367	-102.2
0.0082	-0.0015	0.0045	-0.0608	-102.4
0.0075	-0.0091	0.003	-0.159	-102.6
0.0052	0.0037	0.009	-0.1598	-102.7
0.0015	0.012	0.0105	-0.09	-102.7
0	0.0277	0.009	-0.0375	-102.5
-0.0046	-0.0053	0.0007	-0.0165	-102.8
-0.006	0.003	-0.0023	0.0442	-102.8
-0.003	0.048	0	0.0877	-102.8
-0.0023	0.0225	0.0015	0.0967	-103
-0.0015	-0.0098	0.0022	0.1087	-103.1
0	-0.0113	0.0067	0.1027	-103.1
-0.0015	-0.0165	0.0052	0.0967	-103.3
-0.0023	-0.0015	0.0052	0.069	-103.4
0.0007	0.0097	0.0052	0.0195	-103.5
0	-0.0068	-0.006	-0.0428	-103.5
-0.003	-0.021	-0.0113	-0.1035	-103.9
-0.0015	-0.0278	-0.0105	-0.1253	-103.5
-0.0008	-0.0091	-0.0068	-0.078	-103.8
0.003	0.0015	0.0022	-0.0338	-103.8
0.0067	0.0165	0.0082	-0.054	-104
0.0082	-0.003	0.0067	-0.0645	-103.9
0.0075	-0.03	0.0082	-0.0488	-104.1
0.0097	0.0082	0.012	0.021	-104.1
0.0067	0.0367	0.012	0.0742	-104.1
-0.0008	0.054	0.0157	0.1335	-104.2
-0.006	0.0832	0.0142	0.1972	-104.2
-0.0143	0.0825	0.0037	0.1785	-104.2
-0.0158	0.0457	-0.006	0.192	-104.5
-0.0135	0.039	-0.0083	0.141	-104.4
-0.0075	0.0097	-0.0091	0.012	-104.9
-0.0075	-0.0893	-0.0203	-0.1418	-104.8
-0.0083	-0.1441	-0.0233	-0.2475	-105.1
-0.003	-0.156	-0.0165	-0.216	-104.9
-0.0008	-0.1343	-0.0098	-0.1943	-105.1
-0.0008	-0.0818	-0.0075	-0.1628	-105.1
-0.0023	-0.0511	-0.0046	-0.1485	-105.1
-0.0008	-0.0383	-0.0015	-0.1448	-105.3
-0.0015	-0.0158	-0.0008	-0.06	-105.2
-0.0015	0.042	0.009	0.0277	-105.4
0.0022	0.102	0.018	0.1005	-105.3
0.003	0.108	0.018	0.165	-105.5
0.0037	0.1162	0.0195	0.1995	-105.6
0.006	0.1237	0.021	0.168	-105.5
0.0105	0.0862	0.0187	0.093	-105.7
0.012	0.0547	0.012	0.0495	-105.7
0.009	0.0285	0.0007	0.048	-105.9
0.006	0.0232	-0.0091	0.0285	-105.9
0.0052	0.03	-0.0105	-0.003	-106.1
0.0015	-0.039	-0.012	-0.0195	-106.2
-0.003	-0.0765	-0.0105	-0.024	-106.2
-0.0046	-0.0195	-0.006	-0.0015	-106.3
-0.003	-0.003	-0.0083	0.021	-106.2
-0.003	-0.0458	-0.0143	0.0637	-106.5
-0.0008	-0.048	-0.0113	0.1252	-106.4
0.0052	0.0187	-0.0008	0.0765	-106.7
0.0105	-0.024	0.0007	-0.0653	-106.6
0.009	-0.048	-0.0046	-0.1275	-106.8
0.0022	-0.0278	-0.0135	-0.1643	-106.9
-0.003	-0.0473	-0.015	-0.2333	-107
-0.0113	-0.0256	-0.0218	-0.2078	-107.1
-0.021	-0.0361	-0.0353	-0.1298	-107.1
-0.0195	-0.0375	-0.0338	-0.0713	-106.9
-0.0165	-0.0548	-0.0285	-0.0383	-107.2
-0.0113	-0.0465	-0.0203	-0.0165	-107.2
-0.0046	-0.0098	-0.0053	0.0157	-107.3
0.0022	-0.0181	0.0105	0.0577	-107.1
0.0052	-0.0143	0.0202	0.1147	-107.3
0.0045	0.048	0.027	0.1522	-107.3
0.0045	0.1072	0.0345	0.222	-107.3
0.003	0.1515	0.0405	0.3345	-107.5
0.0067	0.1552	0.042	0.3255	-107.4
0.0135	0.1372	0.0352	0.2452	-107.5
0.009	0.093	0.018	0.0982	-107.7
0.0045	-0.063	-0.0008	-0.168	-107.7
0.0045	-0.0983	-0.012	-0.3255	-108.1
0.0045	-0.0893	-0.0218	-0.372	-108.1
0.003	-0.1418	-0.0233	-0.3481	-108.2
0	-0.1673	-0.0091	-0.2625	-108
0.0007	-0.1028	0.003	-0.1763	-108.3
-0.0015	0.0022	0.0022	-0.0653	-107.9
-0.0075	0.0097	-0.0053	0.042	-108.1
-0.0135	0.0502	-0.0075	0.12	-108.3
-0.0195	0.0607	-0.0046	0.1162	-108
-0.0203	0.0532	-0.0023	0.0697	-108.5
-0.0195	0.033	-0.0046	0.0517	-108.2
-0.0143	-0.0046	-0.0091	0.0982	-108.6
-0.012	-0.0105	-0.0143	0.1042	-108.5
-0.0143	-0.0278	-0.0105	0.108	-108.7
-0.0165	0.0277	-0.003	0.1777	-108.6
-0.0143	0.0502	0.0015	0.1672	-108.6
-0.0023	0.0157	0.012	0.1042	-108.7
0.0082	-0.0375	0.0232	-0.0046	-108.9
0.0135	-0.0346	0.0262	-0.0743	-108.8
0.0157	-0.0135	0.012	-0.0818	-108.9
0.0135	-0.0308	-0.0023	-0.129	-108.9
0.0112	-0.0083	-0.012	-0.117	-109.4
0.012	0.003	-0.0218	-0.063	-109.2
0.0135	0.0232	-0.0203	-0.0518	-109.3
0.012	0.0457	-0.0233	-0.054	-109.2
0.0075	0.039	-0.0195	-0.054	-109.4
0.0045	0.0622	-0.003	-0.0188	-109.3
-0.0008	0.1027	0.0082	0.0427	-109.3
-0.0091	0.117	0.0142	0.1155	-109.4
-0.0158	0.0652	0.0127	0.1537	-109.3
-0.0135	-0.0263	0.0105	0.1012	-109.4
-0.006	-0.126	0.009	0.0382	-109.7
-0.0015	-0.1913	-0.0015	-0.0346	-109.6
0.0015	-0.0975	-0.0128	-0.0675	-109.8
0.006	-0.0008	-0.0181	-0.0398	-109.7
0.0067	0.0345	-0.0143	-0.048	-109.9
0.012	0.0907	-0.0015	0.0045	-109.7
0.0097	0.0892	0.009	0.0885	-109.8
0.0052	0.06	0.0105	0.057	-109.9
0.0022	-0.06	0.0127	0.0052	-109.9
-0.0046	-0.1673	0.0202	0.0322	-110
-0.0046	-0.1778	0.0285	0.0367	-109.8
-0.0023	-0.1875	0.0217	-0.093	-110.2
-0.0068	-0.1373	-0.0008	-0.1823	-110.2
-0.0135	-0.0458	-0.0165	-0.0308	-110.2
-0.0068	0.0277	-0.0143	0.0847	-110.2
0.006	0.1042	-0.0068	0.0427	-110.3
0.0157	0.1192	-0.0008	-0.0218	-110.3
0.0217	0.075	-0.0015	-0.1388	-110.3
0.0202	0.0607	-0.0098	-0.1741	-110.6
0.0105	0.0817	-0.0046	-0.06	-110.5
0.0045	0.0742	0.0105	0.0532	-110.4
0.0022	0.0795	0.0157	0.0652	-110.5
0.0007	0.105	0.018	0.0517	-110.5
0.0045	0.084	0.0142	0.093	-110.7
0.0015	0.1027	0.0045	0.114	-110.5
-0.0023	0.0487	-0.0015	0.0607	-110.7
-0.0046	0.0045	-0.006	0.069	-110.6
-0.0083	0.0622	-0.0181	0.1155	-110.7
-0.0083	0.0502	-0.0293	0.0825	-110.7
-0.0068	0.0472	-0.0256	-0.0046	-110.7
-0.0038	0.012	-0.024	-0.1403	-110.9
-0.0091	-0.0615	-0.0218	-0.1613	-111
-0.0158	-0.1088	-0.0135	-0.0825	-110.9
-0.0105	-0.2348	-0.0015	0.0015	-110.9
-0.003	-0.2213	0.0097	0.0225	-110.9
0.0015	-0.1455	0.012	-0.0615	-111.2
0.0045	-0.135	0.006	-0.1411	-111
-0.0015	-0.099	-0.006	-0.1688	-111.3
-0.0083	-0.0848	-0.012	-0.1178	-111
-0.006	-0.0083	-0.0068	-0.0458	-111.1
-0.0008	0.0877	0.0037	0.0292	-111
0.0075	0.1597	0.0075	0.0585	-111.2
0.0112	0.1305	0.0067	0.0922	-111.2
0.012	0.0817	0.0067	0.1117	-111
0.0067	0.1027	0.0052	0.0217	-111.3
0.003	0.0922	0.003	-0.0256	-111.2
-0.0008	0.0142	-0.0008	-0.0368	-111.3
-0.0046	-0.048	-0.0008	-0.0165	-111.3
-0.0046	-0.0353	0	0.015	-111.2
0	-0.039	0.0015	0.06	-111.3
0.0067	-0.0218	0.018	0.1365	-111.3
0.012	0.0232	0.033	0.1425	-111.5
0.012	0.06	0.0352	0.1725	-111.4
0.0015	0.024	0.0255	0.2512	-111.5
-0.0098	0.006	0.0187	0.327	-111.5
-0.0105	0.1057	0.0165	0.2932	-111.3
-0.0113	0.0682	0.0037	0.0952	-111.6
-0.0083	-0.1275	-0.0105	-0.0773	-111.5
-0.0038	-0.1426	-0.024	-0.198	-111.9
-0.006	-0.0938	-0.0368	-0.3308	-111.7
-0.0046	-0.1823	-0.0413	-0.3503	-111.9
-0.0068	-0.27	-0.0503	-0.3503	-111.8
-0.0091	-0.2123	-0.045	-0.354	-112
-0.0015	-0.033	-0.0293	-0.2528	-111.9
0.003	0.0652	-0.0203	-0.2115	-111.9
0.0052	0.1485	-0.0015	-0.0818	-111.8
0.006	0.156	0.027	0.1672	-111.9
0.0022	0.1477	0.0457	0.3105	-111.6
-0.0015	0.2025	0.0555	0.3727	-111.9
-0.0015	0.2002	0.048	0.2925	-111.7
-0.0015	0.15	0.0277	0.144	-111.8
-0.0008	-0.0518	0.006	0.0052	-111.9
0.0037	-0.1748	-0.0188	-0.0856	-111.8
0.009	-0.0645	-0.0278	-0.057	-112
0.0105	-0.027	-0.0285	-0.1155	-111.9
0.0045	-0.0713	-0.024	-0.1381	-112.1
-0.0046	0	-0.0181	-0.0338	-111.9
-0.0135	0.0105	-0.0143	-0.0188	-112.1
-0.0143	0.0015	-0.003	0.0465	-111.8
-0.0068	0.027	0.0067	0.1222	-111.9
-0.0015	0.0345	0.0142	0.0802	-112
-0.0008	0.0607	0.018	0.0457	-112
-0.0046	0.057	0.0165	0.0465	-112
-0.0091	0.0922	0.009	0.057	-111.9
-0.012	0.0847	-0.0053	-0.0015	-112.2
-0.0143	0.039	-0.0195	-0.054	-112.2
-0.0128	0.0195	-0.0308	-0.003	-112
-0.0091	-0.0128	-0.0256	-0.0233	-112.4
-0.0068	-0.048	-0.0158	-0.0818	-111.9
-0.003	-0.0893	-0.0091	-0.1238	-112.5
-0.0015	-0.114	-0.0083	-0.1463	-112.2
0.0007	-0.0825	-0.0105	-0.0863	-112.2
0.0037	-0.0518	-0.0075	-0.0578	-112.1
0.0067	-0.0368	-0.0068	-0.0405	-112.1
0.009	0.012	-0.003	0.0532	-112.1
0.012	0.0727	0.015	0.1762	-112.2
0.0135	0.0877	0.0337	0.2295	-112.2
0.0127	0.0975	0.042	0.198	-112.1
0.0127	0.093	0.039	0.099	-112.2
0.0127	-0.0368	0.0277	-0.0398	-112.3
0.0105	-0.0953	0.0187	-0.0443	-112.2
0.0105	-0.0503	0.0135	-0.003	-112.5
0.0082	-0.0713	0.0082	-0.0315	-112.1
0.0075	-0.057	0.0045	-0.033	-112.4
-0.0008	-0.0443	-0.0143	-0.0443	-112.3
-0.0143	-0.0728	-0.0256	-0.0083	-112.3
-0.0248	-0.0638	-0.0218	0.0592	-112.3
-0.0308	-0.0105	-0.0181	0.114	-112.2
-0.0293	0.018	-0.0195	0.1357	-112.4
-0.0233	-0.0143	-0.0368	-0.0188	-112.5
-0.0143	-0.0563	-0.0413	-0.192	-112.6
-0.003	-0.039	-0.0293	-0.216	-112.5
0.0082	0.027	-0.0188	-0.1411	-112.5
0.012	0.0217	-0.0083	-0.09	-112.4
0.012	0.0547	0.009	-0.108	-112.5
0.0067	0.1747	0.0292	-0.0713	-112.5
0.0015	0.1657	0.0352	0.0202	-112.5
-0.0046	0.0892	0.024	0.0787	-112.5
-0.0015	0.0367	0.0135	0.1065	-112.5
0.0075	-0.039	0.0097	0.111	-112.3
0.0067	-0.0893	0.003	0.069	-112.6
0.0007	-0.1035	-0.0023	0.0225	-112.3
-0.0046	-0.063	-0.0083	-0.0428	-112.8
-0.006	-0.0615	-0.0128	-0.0825	-112.5
-0.0046	-0.135	-0.0263	-0.0743	-112.8
-0.0015	-0.129	-0.0346	-0.0623	-112.5
0.0075	-0.0548	-0.015	-0.0315	-112.8
0.0142	0.003	0.0082	-0.0413	-112.7
0.012	0.027	0.03	-0.0383	-112.7
0.0007	0.0735	0.036	0.0165	-112.7
-0.0195	0.1477	0.0202	0.1762	-112.5
-0.033	0.1987	0.0067	0.3892	-112.6
-0.0263	0.174	0.003	0.4012	-112.4
-0.0105	0.1005	0.0022	0.3397	-112.5
0.0022	0.0727	-0.0038	0.2175	-112.7
0.0142	-0.0218	-0.0128	-0.1328	-112.8
0.0127	-0.1696	-0.0338	-0.4268	-112.9
0.006	-0.2513	-0.0405	-0.4853	-112.9
0.0052	-0.2348	-0.0308	-0.3773	-112.9
0.0045	-0.1343	-0.0278	-0.249	-112.8
0.006	-0.045	-0.0165	-0.135	-112.9
0.0112	-0.0068	-0.003	-0.0578	-112.7
0.015	0.0217	0.0127	-0.057	-112.8
0.0195	0.0307	0.033	0.027	-112.7
0.018	-0.0181	0.0382	0.1215	-112.7
0.0142	0.0187	0.0382	0.246	-112.7
0.0075	0.1387	0.0345	0.3652	-112.7
0.0037	0.1335	0.0315	0.3007	-112.7
0.0015	0.0652	0.0262	0.1657	-112.9
0.0022	0.078	0.018	-0.0218	-112.8
0.0015	0.0367	0.0082	-0.2228	-113.1
-0.0068	-0.0465	-0.0075	-0.2145	-113
-0.0181	-0.0368	-0.0188	-0.0511	-113
-0.0188	-0.0068	-0.0173	0.012	-112.8
-0.0128	0.0202	-0.0128	0.0502	-113
-0.0105	0.063	-0.0165	0.0615	-112.9
-0.0068	0.0697	-0.024	-0.0218	-112.9
-0.006	0.0315	-0.027	-0.0248	-113
-0.0053	0.0112	-0.0188	0.0135	-112.9
-0.003	-0.024	-0.0158	0.0307	-113
-0.0015	-0.1013	-0.012	0.09	-113
0.003	0.0007	0.0037	0.1627	-112.8
0.0045	0.0772	0.0142	0.0667	-112.9
0.0045	-0.0293	0.0195	-0.0983	-113
0.0082	0.0082	0.0232	-0.1215	-113.1
0.0067	0.018	0.009	-0.135	-112.8
0.0007	0.0052	-0.0046	-0.0706	-113
0.0015	0.0832	0.0007	0.0667	-112.9
0.0052	0.0345	0.0067	0.0727	-113
0.0067	-0.0158	0.0075	-0.0046	-113
0.0022	-0.0533	-0.0015	-0.0878	-113
-0.0113	-0.111	-0.0068	-0.1283	-113.1
-0.0158	-0.0436	-0.0053	-0.1006	-113
-0.0158	-0.1006	-0.0046	-0.0728	-113
-0.0128	-0.189	-0.003	-0.0128	-112.9
-0.003	-0.129	-0.0128	0.0127	-113
0.0022	-0.1028	-0.0188	-0.0263	-113
0.009	0.0262	-0.0173	-0.0068	-113
0.0112	0.1027	-0.024	0.0165	-113
0.0082	0.0982	-0.0233	0.0112	-112.9
0.0157	0.084	-0.0068	0.0202	-113
0.0157	0.0877	0.006	0.0675	-112.8
0.006	0.1087	0.0172	0.075	-113.1
0.003	0.0195	0.03	0.0052	-113
-0.0023	-0.0256	0.0217	-0.0218	-112.9
-0.0091	0.0112	0.0052	0.0532	-113
-0.0158	0.0465	-0.0053	0.144	-112.9
-0.0113	0.0405	-0.006	0.147	-113.1
-0.0008	0.0405	0.0022	0.123	-112.9
0.0075	0.021	0.0127	0.0855	-113
0.0135	-0.0113	0.015	0.0255	-112.8
0.0142	-0.0165	0.0082	-0.0803	-113
0.0127	-0.0195	0.0015	-0.1823	-113
0.0037	-0.0308	-0.0015	-0.2026	-113
-0.0038	-0.0135	0.0007	-0.123	-113.1
-0.0083	0.0127	-0.0046	-0.0015	-112.8
-0.012	-0.042	-0.0053	0.0337	-113
-0.0135	-0.0668	-0.003	0.0832	-112.9
-0.0143	-0.0278	-0.0015	0.1065	-112.9
-0.0105	0.0315	0.0045	0.0637	-113
-0.0038	-0.0165	0.0007	-0.0278	-113
-0.0038	-0.108	-0.0068	-0.1493	-113.3
0.0007	-0.093	-0.012	-0.1515	-113.1
0.0052	-0.066	-0.0203	-0.096	-113.2
0.0045	-0.0195	-0.0218	-0.0443	-113
0.0045	0.018	-0.0113	0.0045	-113
-0.0015	0.0457	-0.0046	0.0457	-112.9
-0.0053	0.0667	0.0022	0.093	-113
-0.006	0.0802	0.0127	0.1575	-112.8
-0.0083	0.099	0.0277	0.18	-112.9
-0.0053	0.0765	0.0307	0.1072	-112.8
-0.0046	0.039	0.0127	0.0427	-113
-0.0053	-0.024	-0.0075	-0.0361	-113
-0.0015	-0.0375	-0.0143	-0.057	-113.1
0.0075	-0.0068	-0.012	-0.0105	-113
0.0165	-0.0548	-0.0068	-0.048	-113.1
0.0217	-0.054	-0.0053	-0.0548	-113
0.0195	-0.0465	-0.003	-0.0518	-113.1
0.0142	-0.054	0.0067	-0.0443	-113
0	0.0375	0.0172	0.042	-113
-0.0165	0.0712	0.0217	0.144	-113
-0.0256	0.0427	0.009	0.2002	-112.9
-0.0323	0.0292	-0.0128	0.1267	-113.1
-0.03	0.0195	-0.0263	0.0457	-113
-0.021	0.0015	-0.0353	-0.0368	-113
-0.0098	-0.0256	-0.0361	-0.2198	-113.1
-0.0053	-0.0818	-0.0353	-0.3278	-113
-0.0038	-0.093	-0.0256	-0.2768	-113.3
0.006	-0.0683	-0.0068	-0.1515	-112.9
0.0105	-0.0465	0.003	-0.042	-113
0.0112	0.0082	0.0105	0.0135	-112.8
0.012	0.0367	0.0157	0.0607	-113
0.012	0.0555	0.0165	0.1102	-112.8
0.0157	0.09	0.0195	0.1387	-113
0.0202	0.1125	0.0247	0.1327	-113
0.0202	0.0967	0.0345	0.1087	-112.8
0.0127	0.0345	0.0405	0.0712	-113
0.0052	-0.0256	0.0405	0.042	-112.8
-0.0015	-0.0465	0.0247	0.0352	-113
-0.012	-0.024	-0.0008	0.0165	-112.9
-0.0195	-0.0181	-0.024	0.069	-112.9
-0.0188	-0.0256	-0.0346	0.087	-113
-0.0165	-0.0315	-0.0353	-0.039	-113
-0.0098	-0.09	-0.03	-0.1523	-113.2
-0.003	-0.1268	-0.0181	-0.1688	-113
0.0052	-0.1013	-0.0038	-0.09	-113
0.009	-0.0165	0.0015	-0.0555	-113
0.0052	0.0157	-0.0023	-0.057	-113
0.0052	0.0225	0.0015	-0.0308	-113
0.0037	0.0652	0.0082	0.0112	-112.8
0.003	0.0727	0.0165	0.1155	-113
0.003	0.0885	0.0232	0.15	-112.8
0.0075	0.0397	0.0255	0.0997	-112.9
0.0112	-0.012	0.0195	0.0202	-112.8
0.006	-0.0068	0.003	-0.0503	-113
-0.0008	0.0135	-0.006	-0.0533	-112.9
-0.0038	0.0315	-0.0068	0.0082	-113
0.0015	0.0255	-0.003	0.0525	-113
0.0022	0.0292	-0.012	0.0165	-113
0.0015	0.027	-0.0181	0.003	-113
0.0037	0.042	-0.0195	0.0705	-112.9
-0.0008	0.0375	-0.0256	0.1065	-112.8
-0.0015	0.009	-0.0256	0.0915	-113
0.0067	0.027	-0.0105	0.1365	-112.6
0.0142	0.0255	0.0052	0.021	-113
0.012	-0.0518	0.0045	-0.231	-112.8
0.0007	-0.0668	-0.0015	-0.2325	-112.9
-0.015	0.0127	-0.0008	-0.0735	-112.8
-0.0173	0.09	0.0067	0.051	-112.9
-0.0173	0.1087	0.0105	0.075	-112.8
-0.0195	0.0307	0.0142	0.0472	-112.9
-0.0158	-0.039	0.0067	-0.0383	-112.9
-0.0128	-0.1965	-0.0158	-0.1485	-112.9
-0.0128	-0.3345	-0.0248	-0.1598	-113
-0.0091	-0.2033	-0.0188	-0.1815	-113.1
-0.0015	-0.0848	-0.0128	-0.1538	-112.8
0.0022	-0.0953	-0.012	-0.0915	-113
0.0037	-0.0638	-0.012	-0.0323	-112.8
0.0082	0.018	-0.0068	0.0517	-113
0.0112	0.0562	0.0097	0.057	-112.8
0.0127	0.0802	0.0247	0.0592	-112.9
0.009	0.0862	0.03	0.063	-112.7
0.0045	0.0727	0.0292	0.0885	-112.8
-0.0023	0.0997	0.0232	0.1635	-112.8
-0.0023	0.1215	0.0157	0.1942	-112.8
0.0022	0.084	0.009	0.1402	-113
-0.0015	0.0367	-0.0008	0.0652	-112.8
-0.003	0.0345	-0.0091	0.057	-113
-0.0023	0.0517	-0.0181	0.054	-113
-0.0038	0.0585	-0.0225	0.0075	-112.9
-0.0023	0.0232	-0.0195	-0.0555	-113
-0.0008	-0.0233	-0.012	-0.1095	-113
-0.003	-0.093	-0.0083	-0.1411	-113.1
-0.0068	-0.1426	-0.0091	-0.1335	-112.9
-0.0046	-0.1215	-0.0038	-0.117	-112.9
0.003	-0.0495	-0.0008	-0.0788	-112.9
0.0067	-0.0008	-0.0008	-0.0203	-112.8
0.0097	0.0217	0.0007	0.018	-113
0.0127	0.0652	0.0097	0.0862	-112.8
0.0165	0.0712	0.027	0.1342	-112.8
0.0127	0.0765	0.039	0.1237	-112.8
0.0015	0.0742	0.0405	0.1087	-113.1
-0.0143	0.0667	0.0307	0.0802	-112.8
-0.0285	0.0637	0.0067	0.0187	-113
-0.033	-0.0038	-0.0256	-0.0638	-113
-0.0361	-0.0728	-0.048	-0.0945	-113
-0.0293	-0.0856	-0.054	-0.0428	-113
-0.0203	-0.0668	-0.0525	0.012	-112.8
-0.0135	-0.0638	-0.0428	0.0202	-113
-0.0008	-0.0398	-0.024	0.0165	-112.9
0.012	-0.0105	-0.0008	-0.045	-113
0.0157	-0.0285	0.021	-0.126	-113
0.0157	-0.0346	0.027	-0.1118	-112.8
0.0195	0.0217	0.0255	-0.0233	-113
0.0195	0.039	0.024	0.0082	-112.9
0.0157	-0.0091	0.0247	-0.0308	-113
0.0112	0.0052	0.0232	-0.003	-112.8
0.0067	0.0427	0.0202	0.018	-113.1
0.003	0.0645	0.0195	0.0427	-112.8
-0.0008	0.081	0.015	0.1312	-113
0.003	0.0705	0.0157	0.2572	-112.8
0.0067	0.0592	0.021	0.3615	-112.8
0.003	0.0345	0.0195	0.3112	-112.9
0.0015	-0.0188	0.0165	0.1372	-112.8
0.0037	-0.039	0.0045	-0.0608	-113
0.0067	0	-0.0158	-0.1838	-113
0.0045	-0.0128	-0.0383	-0.3195	-113.1
0.0037	-0.0795	-0.0518	-0.4298	-113.1
0.0015	-0.1275	-0.0488	-0.3585	-113
-0.0008	-0.1673	-0.0353	-0.2288	-113
-0.006	-0.1403	-0.0203	-0.1006	-112.9
-0.0083	-0.0346	0.0015	-0.0105	-113
-0.0068	0.003	0.003	0.0195	-112.8
-0.0091	0.0007	-0.0128	0.0277	-112.9
-0.0083	0.039	-0.0165	0.0337	-112.9
-0.0038	0.0705	-0.0135	0.0375	-113
0.0022	0.0862	-0.0075	0.039	-113
0.0075	0.0802	-0.0015	0.0622	-113
0.012	0.0847	0.0105	0.1672	-112.9
0.0127	0.0885	0.0262	0.3097	-112.9
0.012	0.09	0.0442	0.3337	-112.8
0.0142	0.0772	0.0562	0.2332	-113
0.0142	0.0465	0.045	0.084	-112.9
0.0105	0.033	0.0172	-0.0353	-113.2
0.0037	0.0127	-0.0233	-0.1643	-113
-0.0075	-0.045	-0.0488	-0.237	-113.3
-0.0128	-0.159	-0.054	-0.219	-113
-0.0128	-0.1628	-0.0518	-0.1808	-113.2
-0.012	-0.0848	-0.0458	-0.1253	-113
-0.0105	-0.1065	-0.039	-0.1095	-113.1
-0.0083	-0.0885	-0.0218	-0.0765	-113.1
-0.0038	-0.0375	-0.003	-0.0105	-112.9
0.0007	-0.0135	0.0112	0.0465	-113
0.006	0.0322	0.0262	0.081	-113
0.012	0.0555	0.0345	0.096	-112.9
0.0157	0.0832	0.0307	0.0952	-113
0.0165	0.0787	0.0277	0.0502	-113
0.0105	0.0532	0.0277	0.0277	-113.1
0.003	0.039	0.0322	0.0487	-112.9
-0.0046	0.033	0.0352	0.1087	-113
-0.012	0.0397	0.0262	0.1665	-112.8
-0.012	0.039	0.0165	0.1507	-113
-0.0075	0.0157	0.0105	0.0855	-112.8
-0.0053	-0.0098	0.0007	0.0202	-113
-0.0023	0.0007	-0.0181	-0.0413	-113
-0.0015	-0.0225	-0.039	-0.1335	-113.1
-0.0023	-0.0563	-0.039	-0.1628	-113.2
0.0007	-0.0361	-0.0173	-0.0706	-113
0.0045	0.0022	0.003	0.0202	-112.9
0.0015	-0.0105	0.0045	0.0435	-113
-0.003	-0.0443	-0.0046	-0.0023	-113.1
-0.003	-0.0203	-0.0046	-0.0383	-112.9
-0.0008	0.0082	0.0007	-0.0068	-113
-0.0046	0.0165	-0.0023	-0.0188	-113
-0.006	0.0007	-0.0053	-0.0998	-112.9
-0.0068	0.0067	-0.0083	-0.1133	-113.2
-0.0091	0.0615	-0.0053	-0.0188	-112.9
-0.0046	0.069	-0.0008	0.0307	-113
-0.0038	0.0555	-0.0008	-0.0368	-113.1
-0.003	0.0825	-0.0015	-0.057	-112.9
-0.0038	0.0457	0	0.0315	-113
-0.0083	-0.0473	0.0082	0.2197	-112.8
-0.0128	0.0007	0.0202	0.3675	-113
-0.0083	-0.021	0.03	0.222	-112.9
0.0052	-0.1718	0.0232	-0.0428	-113
0.009	-0.165	0.0015	-0.1853	-113
0.0142	-0.1133	-0.0053	-0.1913	-113
0.0127	-0.0503	-0.0098	-0.177	-113.3
0.0052	0.0075	-0.0188	-0.1658	-113
0.0052	0.0105	-0.0181	-0.0825	-113.1
-0.0008	-0.0046	-0.0195	-0.0285	-113
-0.0091	0.0307	-0.0165	-0.0008	-113
-0.0128	0.0705	-0.015	0.0495	-113
-0.0128	0.0532	-0.0158	0.0262	-113
-0.0098	0.0337	-0.0128	-0.0518	-113.2
-0.0091	0.0082	-0.0128	-0.0338	-112.9
-0.0135	-0.012	-0.0128	-0.0113	-113.2
-0.0195	-0.0578	-0.0083	-0.0503	-112.8
-0.0158	-0.0278	-0.0015	0.0195	-113
-0.0143	0.039	-0.0038	0.0915	-112.8
-0.0143	0.0495	0	0.1402	-112.9
-0.0083	0.0382	0.0037	0.189	-113
-0.003	0.0592	0.0067	0.1665	-113
0.0007	0.069	0.012	0.108	-113
0.0037	-0.0413	0.0172	0.009	-113
0.0052	-0.0968	0.0225	-0.0308	-113
0.0075	-0.0263	0.0142	-0.048	-113
0.0052	0.0045	0.003	-0.1305	-113
0.0067	-0.039	-0.0015	-0.1763	-113
0.009	-0.0848	-0.0068	-0.1403	-113
0.0082	-0.0825	-0.0105	-0.1163	-113
0.009	-0.0203	-0.0083	-0.1035	-113
0.0067	0.033	-0.0015	-0.0615	-113
0.0037	0.021	-0.0008	-0.0143	-113
0.0015	0.0397	0.003	0.0352	-113
0.003	0.0622	0.0082	0.0487	-113
0.0015	0.054	0.009	0.057	-112.9
0.0007	0.0592	0.009	0.06	-112.9
0.0007	0.039	0.0127	0.0517	-112.9
-0.0023	0.0322	0.0165	0.0645	-112.9
-0.0053	0.0427	0.0255	0.093	-112.9
-0.0053	0.0667	0.03	0.1357	-112.9
-0.0053	0.0862	0.024	0.1485	-112.7
-0.0091	0.0697	0.018	0.1125	-112.9
-0.0143	0.0307	0.0142	0.0945	-113
-0.0143	-0.0053	0.0105	0.1132	-112.8
-0.015	-0.0975	-0.0046	0.0517	-113
-0.0113	-0.198	-0.0218	-0.0368	-113
-0.0053	-0.1088	-0.0308	-0.054	-113
-0.003	-0.0353	-0.0368	-0.1125	-113
-0.0008	-0.078	-0.0458	-0.1995	-113
0.0007	-0.075	-0.0503	-0.2295	-112.9
0.0045	-0.0473	-0.0353	-0.177	-112.9
0.012	-0.0008	-0.0143	-0.1088	-112.8
0.0157	0.033	0	-0.0563	-112.8
0.0157	0.054	0.0105	-0.0128	-113
0.0127	0.0607	0.0165	0.0105	-112.8
0.0082	0.0615	0.0225	0.075	-112.8
0.0067	0.0817	0.018	0.0952	-113
0.012	0.0705	0.0075	0.1065	-112.8
0.0112	0.057	0.0015	0.1507	-113
0.0067	0.0615	0.0015	0.1035	-112.7
0.0007	0.0315	0.0052	0.033	-113
-0.003	-0.0083	0.0045	0.018	-112.8
-0.0075	-0.0278	0.0007	0.069	-113
-0.0128	0.0142	0.003	0.1207	-112.8
-0.012	0.0165	0.0097	0.0892	-112.9
-0.0053	-0.048	0.0157	0.0202	-112.8
0.0045	-0.0428	0.0112	-0.066	-113
0.0022	-0.0443	-0.0046	-0.1095	-112.9
-0.0015	-0.0668	-0.0278	-0.1103	-113
-0.0053	-0.1043	-0.0405	-0.1396	-112.9
-0.006	-0.0721	-0.0315	-0.1403	-113
0.0007	-0.039	-0.0233	-0.123	-112.9
0.0015	-0.0405	-0.0165	-0.0428	-113
-0.0015	0.063	-0.0098	0.0472	-113
-0.0038	0.1012	0.0007	0.009	-112.9
-0.0038	0.0367	0.0142	-0.0758	-112.8
-0.0015	-0.0878	0.0165	-0.1043	-113
0.0015	-0.0743	0.0112	-0.003	-112.8
0.0022	0.0075	0.0045	0.0937	-112.9
0.0052	0.003	0.003	0.0892	-113
0.006	0.0427	0.0022	0.0637	-112.9
0.003	0.0052	-0.0053	0.0472	-113
0.0045	0.0157	-0.0075	0.0967	-112.9
0.0067	0.0517	-0.0083	0.1387	-112.9
0.0082	0.0202	-0.003	0.1117	-113
0.0142	0.0345	0.012	0.0592	-112.8
0.0172	0.0262	0.0127	-0.0195	-113
0.012	-0.0248	0.012	-0.1688	-112.8
0.0105	-0.0691	0.0052	-0.2573	-113.1
0.0022	-0.0706	-0.0128	-0.2243	-112.9
-0.0053	-0.0953	-0.0158	-0.177	-113.1
-0.0075	-0.0856	-0.0113	-0.0495	-112.8
-0.0105	-0.0428	-0.0023	0.0405	-112.8
-0.0053	0.0105	0.0105	0.1147	-113
-0.0038	0.0577	0.0142	0.2092	-112.8
-0.0046	0.036	0.018	0.2025	-113
0.0015	0.0472	0.018	0.1432	-112.6
0.009	0.0862	0.0097	0.0487	-112.9
0.0082	0.069	-0.0046	-0.0218	-112.9
0.003	0.0187	-0.0091	-0.1028	-113
0.0022	-0.0128	-0.0113	-0.1545	-113
0	-0.0353	-0.0083	-0.0923	-112.8
0.0007	0.0382	-0.003	-0.0256	-113
-0.0008	0.1005	-0.0046	-0.0068	-112.8
-0.0015	0.0592	0.0045	0.0225	-113
-0.003	0.0405	0.0105	0.042	-112.7
-0.0046	0.027	0.0105	0.0315	-112.8
-0.0068	-0.0023	0.0082	0.0345	-112.8
-0.006	-0.021	0.0052	0.0367	-112.8
-0.0015	-0.0278	0.0037	0.063	-112.8
0.003	-0.048	0.003	0.0952	-112.8
0.0075	-0.0488	0.0037	0.0855	-112.8
0.0067	-0.0443	0.003	0.045	-112.7
0.0037	-0.048	0.003	0.0232	-112.9
-0.0053	0.0015	0.0082	0.0592	-112.7
-0.0128	0.018	0.0052	0.0697	-112.9
-0.0165	0.012	-0.0053	0.0532	-112.9
-0.015	0.0225	-0.0128	0.024	-112.7
-0.0113	0.0022	-0.0195	-0.0405	-112.9
-0.0068	-0.0083	-0.024	-0.1396	-112.8
-0.0015	-0.0308	-0.027	-0.2108	-113
0.0022	-0.0256	-0.0256	-0.1193	-112.9
0.0052	0.0127	-0.0143	-0.0383	-113
0.0067	0.039	-0.0015	-0.0615	-112.9
0.0067	0.0322	0.009	-0.0593	-112.8
0.006	-0.0458	0.012	-0.0683	-112.9
0.0045	-0.105	0.0082	-0.0675	-112.7
0.0067	-0.0698	0.0112	-0.0278	-113
0.0097	0.0157	0.0172	0.033	-112.7
0.0105	0.0412	0.0255	0.075	-112.8
0.0082	0.0277	0.024	0.0862	-112.9
0.0015	0.0532	0.0105	0.1365	-112.8
-0.0083	0.048	0.0007	0.1837	-112.7
-0.0075	0.0442	-0.0023	0.1897	-112.6
-0.003	0.0247	-0.006	0.1297	-112.9
0.0015	0.009	-0.0053	-0.0008	-112.8
0.0052	-0.0046	-0.0105	-0.1283	-113
0.0045	-0.0735	-0.0173	-0.1898	-113
-0.0008	-0.0908	-0.0165	-0.114	-113
0	-0.0533	-0.0105	0.0382	-112.9
-0.0038	-0.0046	-0.0046	0.135	-112.6
-0.0098	0.0135	0.0045	0.1507	-112.9
-0.0015	0.006	0.0127	0.0742	-112.8
0.0067	-0.0038	0.0067	-0.0893	-113
0.006	0.0007	-0.0098	-0.1148	-112.8
0.0045	0.009	-0.0195	-0.0938	-113
0.003	-0.0578	-0.0256	-0.1965	-113
-0.0023	-0.039	-0.0181	-0.1643	-112.8
-0.0008	0.0367	-0.0015	-0.1095	-112.9
0.0022	0.0135	-0.0015	-0.1298	-112.8
-0.003	-0.0165	0.0022	-0.1043	-112.9
-0.0083	-0.0308	0.0195	-0.0405	-112.7
-0.015	0.0112	0.024	0.0307	-112.8
-0.0195	0.0307	0.0142	0.0577	-112.7
-0.0233	0.0337	0.0007	0.1042	-112.7
-0.0188	0.0502	-0.0083	0.138	-112.8
-0.0135	0.024	-0.0105	0.1275	-113
-0.0068	0.0142	-0.0075	0.108	-112.8
0.0015	-0.0173	-0.0068	0.0825	-112.7
0.006	0.003	-0.0053	0.0675	-112.8
0.0067	0.0367	-0.0023	0.057	-112.7
0.0007	0.0255	-0.0015	0.0802	-112.7
0	0.0225	-0.0046	0.0885	-112.8
0.0007	0.0105	-0.0083	0.0517	-112.8
0.0007	0.0307	-0.0046	-0.0181	-112.8
0.0015	0.0105	0.006	-0.1238	-112.8
0.0045	-0.0195	0.0142	-0.189	-112.9
0.003	-0.0308	0.0127	-0.1426	-112.7
-0.0008	-0.0615	0.0082	-0.0803	-112.7
-0.0046	-0.1163	-0.0015	-0.0608	-112.8
-0.0083	-0.108	-0.0083	0.0105	-112.8
-0.0053	0.033	0.0007	0.075	-112.9
-0.0038	0.0682	0.0052	0.108	-112.6
0.0007	0.063	0.0097	0.1312	-112.8
0.0075	0.0547	0.018	0.1005	-112.7
0.0105	-0.0181	0.0195	0.048	-112.8
0.0097	-0.0405	0.018	-0.0285	-112.7
0.0067	-0.0218	0.0075	-0.09	-112.8
-0.0008	0.0217	-0.0083	-0.0585	-112.8
-0.0083	0.0285	-0.0173	0.0157	-112.7
-0.0098	0.0292	-0.0173	0.0255	-112.8
-0.0098	0.0232	-0.0143	0.0067	-112.8
-0.0083	0.0142	-0.0113	0.012	-112.7
-0.0068	0.012	-0.0075	0.009	-112.7
-0.0083	0.0075	-0.0038	0.027	-112.7
-0.0046	0.0217	0.0045	0.0585	-112.8
0.0015	0.0165	0.012	0.0892	-112.5
0.003	0.0187	0.0105	0.0652	-112.8
0.0067	-0.0075	0.0097	-0.0428	-112.6
0.0045	-0.0458	0.006	-0.1426	-112.8
-0.0015	-0.0706	0	-0.189	-112.5
-0.0053	-0.0795	-0.0023	-0.1418	-112.8
-0.0046	-0.0256	-0.0015	-0.024	-112.5
-0.003	0.0195	0	0.048	-112.6
-0.0038	0.0412	0.003	0.078	-112.6
-0.0015	0.0652	0.009	0.0915	-112.8
0.0022	0.0502	0.009	0.0622	-112.6
0.0075	0.0127	0.0007	-0.0053	-112.5
0.006	-0.0353	-0.0053	-0.078	-112.6
0.0052	-0.057	-0.0053	-0.06	-112.8
0.006	-0.0495	-0.0053	0.0165	-112.6
0.0045	-0.0293	-0.0068	0.066	-112.7
0	0.0375	0.0007	0.0975	-112.5
0.0007	0.0727	0.0195	0.0712	-112.6
0.0052	0.0675	0.021	0.0127	-112.5
-0.0015	0.0585	0.0007	-0.0436	-112.6
-0.0083	0.003	-0.021	-0.1006	-112.7
-0.0098	-0.0743	-0.033	-0.1073	-112.7
-0.0083	-0.1388	-0.0353	-0.0893	-112.8
-0.0038	-0.1178	-0.033	-0.0653	-112.5
0	-0.0593	-0.0285	-0.0405	-112.7
0.0022	-0.057	-0.024	-0.0413	-112.6
0.003	-0.0443	-0.0195	-0.0308	-112.7
0.003	-0.0285	-0.0083	-0.0091	-112.6
0.0067	0.003	-0.0023	0.0142	-112.4
0.009	0.0712	0.0015	0.033	-112.6
0.0082	0.1117	0.0105	0.0607	-112.4
0.0052	0.1012	0.0112	0.0922	-112.7
0.003	0.0817	0.0112	0.1132	-112.5
-0.0008	0.0742	0.0127	0.1222	-112.5
0.0007	0.0495	0.018	0.1042	-112.6
0.0037	0.0112	0.0195	0.0997	-112.6
0.0045	-0.0188	0.018	0.1042	-112.6
0.0052	-0.0165	0.0165	0.0787	-112.6
0.0045	-0.0165	0.018	0.0465	-112.6
0.0082	-0.0315	0.0255	-0.012	-112.6
0.0097	-0.0458	0.0307	-0.129	-112.6
0.006	-0.1006	0.0202	-0.1748	-112.6
-0.0053	-0.0848	-0.0038	-0.1485	-112.6
-0.0173	-0.0503	-0.0203	-0.1665	-112.7
-0.0173	-0.0368	-0.0248	-0.108	-112.6
-0.015	0.012	-0.0256	-0.0346	-112.8
-0.0113	0.0315	-0.0225	-0.015	-112.5
-0.0068	0.0375	-0.0195	0.0015	-112.7
-0.0068	0.0397	-0.015	0.0195	-112.5
-0.0053	0.0187	-0.0075	0.0592	-112.5
-0.003	0.0172	-0.003	0.0697	-112.5
0.0015	0.0495	0.0045	0.0802	-112.5
0.0067	0.0757	0.012	0.0742	-112.5
0.0097	0.0637	0.0097	-0.0038	-112.5
0.0022	0.0262	0.0045	-0.0758	-112.6
0	0.0157	0.0022	-0.1118	-112.5
-0.0023	-0.027	-0.0053	-0.0893	-112.7
-0.0053	-0.0428	-0.0135	-0.0075	-112.5
-0.0083	-0.0083	-0.0158	0.0517	-112.6
-0.0105	-0.0008	-0.0158	0.0727	-112.6
-0.0046	0.0135	-0.0008	0.0705	-112.5
0.0052	0.033	0.012	0.0802	-112.6
0.0082	-0.021	0.021	0.105	-112.5
0.0082	-0.1058	0.0285	0.0915	-112.6
0.009	-0.0743	0.0255	0.0487	-112.5
0.012	-0.039	0.0217	-0.0225	-112.5
0.015	-0.015	0.0157	-0.0683	-112.7
0.0142	0.0165	0.0075	-0.0555	-112.4
0.0067	0.0022	0.0067	-0.0383	-112.7
0.0015	0.0217	0.0045	-0.0218	-112.5
-0.0046	0.0232	-0.0046	-0.0195	-112.5
-0.0105	0.0247	-0.0105	-0.024	-112.5
-0.0135	0.0195	-0.0165	-0.012	-112.6
-0.0143	0.0007	-0.024	0.0007	-112.6
-0.0083	0.0135	-0.024	0.0442	-112.4
-0.0046	0.0105	-0.0195	0.063	-112.5
-0.0008	0.009	-0.0165	0.0292	-112.5
0.0015	-0.0038	-0.012	-0.0488	-112.6
0.0045	-0.0203	-0.006	-0.1013	-112.5
0.0067	-0.0308	-0.0068	-0.0675	-112.5
0.006	-0.0405	-0.003	-0.0735	-112.6
0.006	-0.0353	0.009	-0.0473	-112.4
0.006	-0.0038	0.018	0.0292	-112.6
0.003	0.0465	0.0172	0.054	-112.5
-0.0046	0.072	0.0082	0.0817	-112.5
-0.0075	0.0607	-0.0023	0.087	-112.5
-0.0038	0.0435	-0.0083	0.0915	-112.6
-0.0008	0.0127	-0.0105	0.0675	-112.5
0.0037	-0.0405	-0.0165	-0.0083	-112.5
0.0045	-0.0795	-0.0203	-0.0548	-112.5
0.006	-0.1133	-0.0173	-0.096	-112.5
0.0052	-0.1088	-0.0188	-0.117	-112.5
0.003	-0.0533	-0.0181	-0.0893	-112.5
0.0045	-0.0015	-0.0113	-0.0308	-112.5
0.0052	0.042	-0.0046	0.0225	-112.4
0.0052	0.0735	0.0142	0.0615	-112.3
0.0045	0.0915	0.0292	0.0922	-112.5
0.0007	0.0847	0.0307	0.0975	-112.5
-0.0038	0.051	0.0217	0.1012	-112.5
-0.0083	0.039	0.012	0.0885	-112.5
-0.0105	0.0637	0.006	0.0517	-112.5
-0.0098	0.0787	-0.003	-0.012	-112.6
-0.012	0.0337	-0.0165	-0.0983	-112.5
-0.0143	-0.0735	-0.0173	-0.1515	-112.5
-0.0113	-0.1411	-0.0083	-0.135	-112.5
-0.0046	-0.1726	-0.0053	-0.081	-112.5
-0.0008	-0.1696	-0.0128	-0.0555	-112.5
0.0015	-0.0728	-0.012	-0.0458	-112.4
0.003	-0.0046	-0.0038	-0.0323	-112.5
0.0007	0.0352	0.0037	0.0315	-112.3
0	0.0885	0.0187	0.1387	-112.5
0.003	0.084	0.0277	0.2017	-112.3
0.0045	0.0802	0.0315	0.2205	-112.4
0.0067	0.0765	0.0382	0.18	-112.5
0.0105	0.0502	0.03	0.105	-112.4
0.0097	0.0172	0.0105	0.0195	-112.5
0.0045	-0.0091	-0.003	-0.09	-112.4
0.0007	-0.0233	-0.0105	-0.1853	-112.6
-0.0008	-0.0383	-0.0195	-0.2363	-112.5
-0.0015	-0.057	-0.024	-0.2168	-112.8
-0.0008	-0.0615	-0.0158	-0.1335	-112.5
0.0037	-0.0346	-0.006	-0.0555	-112.4
0.0007	-0.0113	-0.003	-0.0068	-112.5
-0.0046	0.0097	0.003	0.051	-112.4
-0.0091	0.0232	0.0037	0.075	-112.5
-0.0105	0.0285	-0.0015	0.0465	-112.4
-0.0113	0.0345	-0.0075	0.039	-112.6
-0.0083	0.0397	-0.0083	0.0465	-112.4
-0.0038	0.0322	-0.006	0.063	-112.6
-0.0023	0.0127	-0.0105	0.0637	-112.4
-0.0015	0.0052	-0.0135	0.0352	-112.4
-0.0015	-0.0023	-0.0143	-0.027	-112.5
-0.0008	-0.0105	-0.0158	-0.0863	-112.5
-0.0015	-0.024	-0.0143	-0.078	-112.6
-0.003	-0.0293	-0.0091	-0.0218	-112.5
-0.003	-0.0113	-0.0038	0.0517	-112.5
-0.0046	0.0097	0.0052	0.0817	-112.3
-0.0015	0.0105	0.0127	0.0907	-112.5
0.0015	0.0022	0.0127	0.0637	-112.4
0.0022	-0.0181	0.0105	-0.0225	-112.4
0.003	-0.0383	0.0045	-0.0615	-112.4
0.0015	-0.0443	0.0015	-0.0555	-112.5
-0.0008	-0.0346	0.003	-0.03	-112.3
0.0007	-0.003	0.0022	-0.0046	-112.5
0.003	0.012	-0.0008	0.0187	-112.3
0.003	0.0367	0	0.024	-112.5
0.0052	0.0352	0.0015	-0.0135	-112.3
0.0007	-0.0008	0.003	-0.042	-112.4
-0.0053	0.0045	0.0045	-0.0353	-112.3
-0.0105	0.003	0.0045	0.003	-112.4
-0.0143	-0.0068	-0.0015	0.0525	-112.5
-0.0158	-0.0181	-0.0113	0.0825	-112.5
-0.012	-0.0173	-0.0135	0.063	-112.5
-0.0015	0.0255	-0.003	0.024	-112.4
0.0105	0.0532	0.0045	-0.0008	-112.4
0.015	0.0262	0.0045	-0.0315	-112.5
0.0127	-0.0091	0.0067	-0.0788	-112.3
0.0105	0.003	0.0105	-0.0713	-112.5
0.0052	0.0315	0.012	0.0195	-112.2
-0.0015	0.0187	0.0082	0.0765	-112.5
-0.0053	-0.03	0.0052	0.0802	-112.2
-0.0038	-0.0346	0.0067	0.042	-112.5
0.0007	-0.0308	0.0015	-0.0233	-112.1
-0.0015	-0.0346	-0.0023	-0.0495	-112.4
-0.003	-0.0068	-0.0068	-0.084	-112.4
-0.0008	0.0082	-0.0113	-0.1028	-112.4
0.0007	0.0067	-0.006	-0.063	-112.2
0.0015	-0.0068	-0.0008	-0.0046	-112.2
0.003	-0.0038	-0.0008	0.024	-112.3
0.003	-0.003	0.0007	0.0277	-112.2
0.003	0.0495	0.0052	0.0577	-112.2
0.0007	0.108	0.0067	0.0765	-112.2
-0.0015	0.1027	0.0015	0.0975	-112.1
-0.0068	0.069	0.0007	0.1192	-112.3
-0.0046	-0.0068	0.0045	0.1552	-112.2
-0.0008	-0.0405	0.0015	0.15	-112.3
0.0022	-0.117	-0.003	0	-112.3
0.003	-0.165	-0.0113	-0.1253	-112.5
-0.0015	-0.0908	-0.0195	-0.2041	-112.5
-0.0075	-0.0728	-0.0256	-0.2558	-112.2
-0.012	-0.063	-0.0285	-0.2033	-112.5
-0.0105	-0.0195	-0.0308	-0.1418	-112.2
-0.0091	-0.0248	-0.027	-0.129	-112.5
-0.0068	-0.0181	-0.0165	-0.1028	-112.2
-0.0023	0.003	-0.003	-0.0105	-112.2
0.0015	0.024	0.0082	0.0682	-112.2
0.0045	0.0427	0.0157	0.1057	-112.1
0.0097	0.051	0.024	0.1185	-112.2
0.0112	0.0765	0.0277	0.1237	-112.1
0.0082	0.0802	0.0277	0.114	-112.1
0.0052	0.0637	0.0255	0.0787	-112.3
0.003	0.0502	0.0195	0.0915	-112
-0.0015	0.039	0.0112	0.1102	-112.4
-0.0053	0.021	-0.0008	0.0885	-112.1
-0.0023	0.0067	-0.0091	0.0457	-112.4
0.0022	-0.021	-0.0173	-0.0165	-112
0.003	-0.039	-0.024	-0.057	-112.3
0.0022	-0.0278	-0.024	-0.0698	-112.3
0.003	-0.0165	-0.0181	-0.048	-112.2
0.0045	-0.0195	-0.0105	-0.0368	-112.2
0.0007	-0.0256	-0.0098	-0.0458	-112.2
-0.0008	-0.0181	-0.0053	-0.0293	-112.2
0.0007	-0.0203	0.0037	-0.003	-112
0.003	-0.0165	0.0105	0.0352	-112.1
0.0015	-0.0098	0.012	0.0202	-112.4
0.0007	-0.012	0.0045	-0.0158	-112.1
-0.0015	-0.0128	0.0052	-0.0361	-112.2
-0.0023	-0.0218	0.0045	-0.0593	-112.1
-0.0023	-0.0128	-0.0038	-0.0533	-112.4
-0.0023	-0.0046	-0.0068	-0.0361	-112.2
-0.0008	0.012	-0.0023	-0.0225	-112.2
0.003	0.024	0.0045	-0.0143	-112.1
-0.0008	0.012	0.0045	0.0015	-112.1
-0.0008	0.03	0.0067	0.0457	-112.2
-0.0046	0.0495	0.0052	0.1215	-112
-0.0113	0.057	-0.0015	0.1522	-112.3
-0.0105	0.0457	-0.0053	0.1072	-112
-0.0068	0.0202	0.0007	0.0615	-112
-0.0008	0.021	0.0082	0.0217	-112
0.0052	-0.0098	0.009	-0.063	-112
0.0052	-0.0825	0.003	-0.1215	-112.1
0.0022	-0.12	-0.003	-0.1088	-112
0.0015	-0.0983	-0.003	-0.0908	-112.2
0.003	-0.0803	-0.003	-0.1013	-112
0.0015	-0.0758	-0.0083	-0.108	-112.2
0.0022	-0.0368	-0.0083	-0.042	-112.1
0.0045	0.0135	-0.0008	0.012	-111.9
0.0045	0.0592	0.015	0.0442	-112.1
0.0052	0.087	0.0232	0.084	-111.9
0.0022	0.0825	0.024	0.0765	-112.1
-0.0015	0.0645	0.0195	0.06	-111.9
-0.003	0.0405	0.0082	0.027	-112.2
-0.0053	0.0217	0.0015	0.018	-112
-0.0053	0.0015	-0.003	0.015	-112.1
-0.0053	0.0052	-0.0068	0.018	-112.1
-0.0046	0.0127	-0.003	0.0457	-111.9
-0.0023	0.0105	-0.0008	0.0502	-112.3
-0.0008	0.009	0.003	0.0592	-112
-0.0023	0.0067	0.0067	0.069	-112.1
-0.0015	0.0307	0.012	0.084	-112
-0.0008	0.0427	0.0097	0.0675	-112
0.0007	0.0307	0.0067	0.0465	-112
0.0022	0.003	0.0007	0.0382	-111.9
0.0045	-0.0488	-0.0053	-0.0346	-112.1
0.0052	-0.0788	-0.0113	-0.075	-112.1
0.0015	-0.0638	-0.0233	-0.0975	-112.2
-0.0008	-0.0518	-0.027	-0.1718	-112
-0.003	-0.0428	-0.024	-0.1853	-112.1
-0.0053	-0.0091	-0.0248	-0.1388	-112
-0.0083	-0.0068	-0.0218	-0.081	-111.9
-0.0105	0.0037	-0.0143	-0.0158	-112.1
-0.0053	0.0202	-0.0038	0.0315	-112.1
0	0.0232	0.0052	0.075	-112.1
0.0052	0.0352	0.0127	0.0592	-112
0.0082	0.0105	0.015	-0.006	-111.9
0.0037	-0.0075	0.0082	-0.039	-112.1
0	-0.0158	0.0015	-0.0285	-111.9
-0.0015	-0.0083	-0.0038	-0.0053	-112.1
-0.003	0.009	-0.003	0.015	-111.8
-0.0038	0.0187	0.0037	0.0457	-112.1
-0.006	0.0615	0.0052	0.0727	-112
-0.0098	0.075	0.0052	0.0997	-111.9
-0.0098	0.0555	0.0105	0.1312	-111.9
-0.0068	0.0345	0.0067	0.1275	-111.9
-0.0008	-0.0158	0.0037	0.069	-111.9
0.006	-0.0773	0.0022	-0.0023	-111.9
0.0067	-0.1035	-0.0046	-0.0615	-111.9
0.0082	-0.0975	-0.0053	-0.1021	-112.1
0.0067	-0.093	-0.0135	-0.114	-112.1
0.0022	-0.0713	-0.024	-0.126	-112.2
-0.0015	-0.0405	-0.0181	-0.1118	-111.9
-0.0015	-0.0046	-0.0113	-0.0638	-112.1
-0.003	0.0322	-0.0023	-0.0383	-111.8
-0.0046	0.0615	0.0067	0.003	-112
-0.003	0.072	0.0105	0.069	-111.8
-0.0046	0.0592	0.0127	0.1252	-112.1
-0.0038	0.0517	0.0157	0.1395	-112
-0.0015	0.0427	0.0142	0.1275	-111.9
0.003	0.0315	0.0022	0.1177	-112
0.012	0.009	-0.0046	0.0292	-111.9
0.018	-0.0143	-0.0083	-0.1013	-112
0.0165	-0.0173	-0.0091	-0.1035	-111.9
0.0157	-0.0165	-0.0068	-0.0405	-111.8
0.0142	-0.0203	-0.0053	-0.024	-111.9
0.0127	-0.0181	-0.0053	0.0067	-111.9
0.012	0.0045	-0.0083	0.0315	-112
0.0045	0.0015	-0.0091	0.0045	-111.9
-0.0015	-0.0128	-0.0053	-0.0128	-111.9
-0.0015	-0.0098	0.0007	-0.033	-111.8
-0.0008	-0.0361	0.0007	-0.108	-111.8
-0.003	-0.0713	-0.0008	-0.1605	-112
-0.0038	-0.06	-0.0008	-0.0743	-111.6
-0.0046	-0.039	0.0015	0.003	-111.9
-0.0046	-0.0346	0.006	0.0105	-111.8
-0.0046	-0.006	0.018	0.0615	-111.9
-0.003	0.0187	0.024	0.075	-111.7
-0.0008	0.0345	0.018	0.0675	-111.8
-0.0023	0.0577	0.0127	0.0532	-111.9
-0.003	0.069	0.009	0.0232	-111.6
-0.006	0.0555	0.0007	0.0015	-111.8
-0.0091	0.0465	-0.0068	-0.0068	-111.6
-0.0091	0.0622	-0.0105	0.0532	-111.8
-0.0083	0.0705	-0.006	0.1057	-111.7
-0.006	0.0592	-0.003	0.1042	-111.7
-0.0008	0.0165	-0.0015	0.0427	-111.8
0.0052	-0.024	-0.0015	-0.0495	-111.6
0.0052	-0.033	0.0015	-0.0765	-112
0.0037	-0.0436	0.006	-0.054	-111.8
0	-0.1193	0.0015	-0.0683	-111.9
-0.0023	-0.1598	-0.0008	-0.0758	-111.6
-0.0015	-0.0555	0.003	-0.048	-111.9
0	0.0105	0.0097	-0.0308	-111.8
-0.003	0.0135	0.012	-0.003	-111.7
-0.0091	0.0345	0.0127	0.0187	-111.6
-0.0135	0.0525	0.0135	0.0637	-111.7
-0.0195	0.063	0.0052	0.1042	-111.8
-0.0233	0.0517	-0.0053	0.1012	-111.7
-0.0233	0.0262	-0.015	0.09	-111.7
-0.0195	0.0022	-0.0203	0.0525	-111.8
-0.0113	-0.003	-0.0225	0.0187	-111.8
-0.0046	-0.0128	-0.0278	-0.0233	-111.9
-0.0008	-0.0353	-0.0353	-0.0803	-111.9
-0.0008	-0.0548	-0.039	-0.1358	-111.9
-0.0038	-0.0645	-0.0346	-0.1553	-111.8
-0.0038	-0.0436	-0.0181	-0.099	-111.7
-0.0046	-0.0165	-0.0046	-0.0293	-111.6
-0.0068	0.0022	0.0015	0.0577	-111.5
-0.0053	0.018	0.0112	0.1297	-111.6
0.0007	0.0217	0.012	0.1117	-111.6
0.0082	0.0157	0.009	0.0127	-111.7
0.0105	0.0067	0.0045	-0.0803	-111.7
0.0082	-0.0015	-0.0015	-0.111	-111.5
0.0037	-0.0195	-0.003	-0.1253	-111.9
0.003	-0.027	0.0037	-0.0893	-111.6
0.0067	-0.0203	0.0105	-0.0375	-111.9
0.0112	-0.0015	0.0157	0.0097	-111.6
0.0127	0.0142	0.018	0.0307	-111.7
0.0097	0.024	0.021	0.0427	-111.6
0.006	0.057	0.0292	0.1005	-111.8
-0.0015	0.0855	0.0315	0.1552	-111.6
-0.0083	0.105	0.0232	0.2062	-111.5
-0.006	0.0982	0.0157	0.1815	-111.7
-0.0023	0.0517	0.003	0.0742	-111.6
0.003	0.0097	-0.0046	-0.0165	-111.8
0.003	-0.0323	-0.0165	-0.0803	-111.7
-0.0038	-0.09	-0.0315	-0.1373	-111.6
-0.0091	-0.147	-0.0353	-0.1748	-111.8
-0.006	-0.1575	-0.0346	-0.1478	-111.6
-0.0053	-0.1328	-0.0323	-0.1148	-111.9
-0.0046	-0.1058	-0.0233	-0.0885	-111.6
-0.0015	-0.0346	-0.003	-0.0068	-111.6
0.0007	0.0577	0.0165	0.075	-111.6
0.003	0.1147	0.0247	0.144	-111.6
0.0037	0.1387	0.027	0.2047	-111.6
0.0075	0.1117	0.0255	0.189	-111.5
0.012	0.0727	0.0217	0.096	-111.7
0.0112	0.03	0.0157	-0.0181	-111.5
0.0075	-0.0203	0.003	-0.1088	-111.8
0.003	-0.0458	-0.0083	-0.1538	-111.6
-0.0046	-0.0623	-0.0113	-0.1313	-111.8
-0.0068	-0.0555	-0.0105	-0.0645	-111.6
-0.0046	-0.0323	-0.0098	-0.045	-111.7
-0.0008	-0.0315	-0.0105	-0.0615	-111.7
0.0015	-0.0165	-0.0113	-0.0465	-111.7
0.0015	-0.003	-0.006	-0.0091	-111.7
0.0022	0.0202	0.0052	0.0442	-111.7
0.0015	0.0405	0.0142	0.0982	-111.6
-0.0023	0.0427	0.018	0.1215	-111.6
-0.0023	0.0397	0.0165	0.1102	-111.5
-0.0015	0.024	0.0097	0.093	-111.8
-0.0008	0.036	0.0022	0.048	-111.3
0.0015	0.0345	-0.0046	-0.0091	-111.8
-0.0008	0.0022	-0.0075	-0.0323	-111.6
0.0022	0.0022	-0.0075	-0.0383	-111.7
0.0052	0.0015	-0.0165	-0.0608	-111.6
0.003	-0.0405	-0.0225	-0.1178	-111.7
0.0045	-0.0465	-0.0173	-0.1095	-111.6
0.0037	-0.027	-0.0083	-0.0458	-111.5
0.0022	-0.0083	0.0052	0.012	-111.7
0.0037	0.0127	0.015	0.066	-111.6
0.0015	0.0075	0.0165	0.0825	-111.6
-0.0038	0.0075	0.0127	0.0757	-111.8
-0.0046	0.0067	0.0067	0.0277	-111.6
-0.0075	0.0052	-0.0015	-0.0293	-111.7
-0.0068	0.0075	-0.0075	-0.0263	-111.6
-0.0046	0.0067	-0.006	-0.006	-111.8
-0.0015	0.0045	-0.0075	-0.0091	-111.6
-0.0015	0.0007	-0.0113	-0.0308	-111.8
-0.003	-0.0091	-0.0113	-0.0518	-111.6
-0.006	-0.024	-0.0083	-0.0511	-111.6
-0.0083	-0.0105	-0.003	-0.0015	-111.6
-0.012	0.0202	-0.0008	0.1005	-111.6
-0.0113	0.0315	-0.0008	0.1507	-111.6
-0.006	0.012	0	0.0975	-111.6
0	-0.0068	-0.0015	0.0165	-111.7
0.0045	-0.0135	0.0037	-0.0361	-111.8
0.0067	-0.0256	0.0015	-0.1065	-111.6
0.0052	-0.0706	-0.0083	-0.1823	-111.9
0.0022	-0.1028	-0.012	-0.1575	-111.7
0.006	-0.0653	-0.0113	-0.0825	-111.9
0.0082	-0.0263	-0.0083	-0.0346	-111.6
0.006	-0.0225	-0.0053	0.006	-111.7
0.0045	-0.0105	0.0015	0.0427	-111.7
0.0075	0.0427	0.012	0.093	-111.6
0.0097	0.0757	0.0165	0.105	-111.8
0.0082	0.069	0.0232	0.093	-111.6
0.0075	0.06	0.027	0.1117	-111.7
0.0045	0.0405	0.0202	0.1192	-111.5
0.0037	0.012	0.012	0.0787	-111.8
0.003	-0.0068	0.006	-0.0053	-111.6
0.0037	-0.0008	0.003	-0.0691	-111.7
0.0015	0.009	-0.003	-0.0856	-111.9
-0.003	0.0067	-0.012	-0.0818	-111.9
-0.0068	-0.0023	-0.0143	-0.039	-111.7
-0.0098	-0.0068	-0.0046	0.0442	-111.8
-0.0046	-0.015	0.0045	0.0945	-111.7
-0.003	-0.0188	0.003	0.0652	-111.8
-0.003	-0.0083	0.0007	0.0165	-111.6
-0.0008	0.003	-0.0053	-0.0638	-111.9
-0.0008	-0.0083	-0.0135	-0.1268	-111.8
-0.0068	-0.042	-0.0218	-0.12	-111.9
-0.0105	-0.0503	-0.0263	-0.099	-111.7
-0.0128	-0.027	-0.0315	-0.0608	-111.9
-0.0128	-0.0233	-0.033	-0.057	-111.7
-0.012	-0.0068	-0.0218	-0.0315	-111.9
-0.0068	0.018	-0.0053	0.015	-111.7
-0.0008	0.021	0.0037	0.042	-111.8
-0.0008	0.0315	0.0112	0.0802	-111.8
-0.0008	0.0367	0.0127	0.1042	-111.7
0.0007	0.033	0.0142	0.1305	-111.7
0.003	0.0172	0.0157	0.126	-111.8
0.0052	0.009	0.012	0.0877	-111.7
0.0082	0.006	0.012	0.0322	-111.8
0.0127	0.0037	0.0165	-0.03	-111.8
0.0112	-0.0135	0.0127	-0.0923	-111.9
0.003	-0.0413	0.012	-0.1065	-111.7
-0.0015	-0.0218	0.0082	-0.048	-111.8
-0.006	-0.0053	0.0052	0.0165	-111.8
-0.012	-0.0023	0.0022	0.081	-111.7
-0.0128	-0.0091	0.0022	0.0855	-111.9
-0.0083	-0.033	0.003	0.0495	-111.9
0.003	-0.0158	0.0022	0.033	-111.8
0.009	0.0105	0.0052	-0.0158	-111.7
0.009	0.0217	0.0037	-0.066	-111.8
0.0052	0.0157	-0.0015	-0.09	-111.9
0.0007	-0.003	-0.0068	-0.0878	-111.7
-0.003	-0.0105	-0.015	-0.09	-112.1
-0.0068	-0.006	-0.0233	-0.0803	-111.6
-0.0068	0.009	-0.0218	-0.0638	-111.8
-0.0053	0.0082	-0.0158	-0.0518	-111.7
-0.0015	0.0037	-0.0098	0.0082	-111.7
0.0022	0.0067	0.0015	0.0622	-111.8
0.0037	-0.0113	0.012	0.0802	-111.7
0.0045	0.003	0.0232	0.0705	-111.8
0.0007	0.027	0.024	0.0592	-111.6
-0.0046	0.0195	0.0105	0.0585	-111.8
-0.0091	0.0127	-0.0015	0.0352	-111.6
-0.0091	-0.0015	-0.0105	0.0405	-111.8
-0.0083	0.009	-0.0158	0.045	-111.9
-0.0015	0.0127	-0.0165	0.0142	-111.6
0.003	-0.0105	-0.0203	-0.0443	-111.9
0.0052	-0.0465	-0.0203	-0.117	-111.6
0.003	-0.078	-0.0165	-0.0953	-111.8
0.0007	-0.0428	-0.0068	-0.0315	-111.7
0.0037	-0.0256	-0.0015	-0.012	-111.8
-0.0008	-0.0458	-0.006	-0.0233	-111.7
-0.003	-0.0225	-0.0091	-0.006	-111.8
-0.0015	0.0157	-0.0046	0.0495	-111.7
0.0022	0.0337	0.0052	0.0675	-111.6
0.0127	0.063	0.0142	0.0787	-111.7
0.0187	0.0922	0.0225	0.0712	-111.7
0.018	0.087	0.0307	0.012	-111.7
0.0165	0.0352	0.0285	-0.0638	-111.7
0.0067	-0.0165	0.0217	-0.099	-111.8
-0.0023	-0.0023	0.015	-0.054	-111.7
-0.0075	0.0007	0.003	0.0067	-111.7
-0.0105	-0.0165	-0.006	0.0472	-111.7
-0.0091	-0.0413	-0.0128	0.0442	-111.7
-0.0068	-0.045	-0.0143	0.0405	-111.6
-0.0046	-0.003	-0.012	0.0487	-111.8
-0.003	-0.0091	-0.0091	0.0202	-111.6
-0.0046	0.0022	-0.0068	0.0067	-111.8
-0.0046	0.0015	-0.0038	-0.0158	-111.6
-0.0068	-0.0075	-0.0023	-0.0225	-111.7
-0.0083	-0.0015	-0.003	-0.0293	-111.6
-0.0053	-0.0128	0	-0.0428	-111.8
-0.006	-0.0068	-0.0053	-0.0293	-111.7
-0.0053	-0.0143	-0.0038	-0.0465	-111.6
-0.0023	-0.0135	0.0007	-0.0368	-111.6
-0.0008	-0.0068	0.0045	-0.0075	-111.6
0.003	0.012	0.0105	0.021	-111.6
0.0045	0.021	0.0097	0.0307	-111.7
0.0045	0.009	0.0052	0.0217	-111.6
0.0015	0.0157	0.0037	0.0532	-111.7
0.0007	0.0165	0.0045	0.0615	-111.6
-0.0015	0.009	0.0037	0.033	-111.7
-0.0015	-0.0105	0.003	0.0082	-111.6
0.0007	-0.024	-0.0015	-0.0015	-111.9
-0.0023	-0.0375	-0.0091	-0.0353	-111.6
-0.0038	-0.0405	-0.0143	-0.0743	-111.8
-0.0046	-0.0173	-0.0165	-0.0578	-111.6
-0.0038	0.018	-0.0158	-0.0158	-111.7
-0.0008	0.0217	-0.0143	-0.0046	-111.8
0.0015	0.0015	-0.0128	-0.0038	-111.7
0.0045	0.012	-0.0046	0.0277	-111.8
0.0037	0.0255	0.0052	0.0675	-111.6
0.003	0.0405	0.0097	0.0967	-111.6
0.003	0.0337	0.0105	0.0802	-111.6
0.0022	0.0165	0.0127	0.051	-111.5
0	0.0082	0.009	0.0202	-111.6
0.0007	-0.027	0.0082	-0.054	-111.7
0.003	-0.0375	0.012	-0.0728	-111.5
0.0037	-0.012	0.0127	-0.0293	-111.6
0.003	-0.0015	0.0082	-0.0128	-111.6
0.0015	-0.0008	0.0015	-0.0158	-111.7
-0.0015	0.0067	-0.0098	-0.0315	-111.7
-0.0068	0.0052	-0.0173	-0.0511	-111.8
-0.0053	-0.0015	-0.0181	-0.0473	-111.6
-0.0046	0.0045	-0.0158	-0.0195	-111.7
-0.0046	0.018	-0.0091	0.0045	-111.6
-0.0023	0.0217	-0.0046	0.0217	-111.6
-0.003	0.0232	0.0037	0.039	-111.6
-0.0015	0.0307	0.0082	0.054	-111.6
0.0007	0.0202	0.0067	0.0352	-111.6
0.0007	-0.012	0.0045	-0.0218	-111.5
-0.0008	-0.0533	-0.0015	-0.039	-111.5
-0.0008	-0.0728	-0.0053	-0.0353	-111.8
-0.0023	-0.0833	-0.006	-0.0615	-111.6
-0.0008	-0.0706	-0.0046	-0.0683	-111.7
0.003	-0.03	-0.0008	-0.0428	-111.5
0.003	-0.0135	0.0007	-0.0068	-111.7
0.0007	0.012	0.0075	0.0315	-111.6
-0.0015	0.0495	0.012	0.0757	-111.6
-0.0068	0.0802	0.0127	0.1027	-111.5
-0.0075	0.0727	0.0157	0.093	-111.6
-0.0046	0.0075	0.0135	0.0675	-111.6
-0.003	-0.042	0.0075	0.054	-111.6
-0.0008	-0.0165	0.0007	0.0682	-111.6
0.0015	0.0157	-0.0046	0.036	-111.6
0.0052	-0.0015	-0.0083	-0.0518	-111.6
0.0075	-0.0263	-0.0158	-0.1275	-111.7
0.0067	-0.054	-0.015	-0.1605	-111.6
0.0052	-0.0473	-0.0098	-0.1163	-111.7
0.0022	-0.0135	-0.0038	-0.0675	-111.6
-0.0008	0.0037	0.0045	-0.0436	-111.7
-0.0046	0.0352	0.0052	0.0255	-111.6
-0.0083	0.06	0.0015	0.096	-111.5
-0.0098	0.0615	0.0045	0.132	-111.6
-0.0068	0.0562	0.0052	0.1305	-111.5
-0.003	0.0465	-0.0008	0.0952	-111.7
-0.0053	0.0345	-0.012	0.033	-111.6
-0.0053	-0.0046	-0.0181	-0.0623	-111.8
-0.0046	-0.0368	-0.0203	-0.1155	-111.5
-0.0046	-0.0593	-0.0218	-0.12	-111.6
-0.0046	-0.084	-0.0181	-0.1065	-111.6
-0.0046	-0.0638	-0.0113	-0.0691	-111.6
-0.003	-0.048	-0.0091	-0.06	-111.7
-0.0038	-0.0548	-0.0091	-0.0503	-111.6
-0.003	-0.0195	-0.0038	0.0105	-111.6
0.0015	0.0375	0.0067	0.0705	-111.5
0.0052	0.0735	0.018	0.1072	-111.4
0.0082	0.078	0.0247	0.12	-111.6
0.009	0.066	0.027	0.1027	-111.4
0.0082	0.048	0.024	0.0592	-111.6
0.009	0.0292	0.015	0.0195	-111.4
0.0045	-0.0105	0.0015	-0.0165	-111.6
0.003	-0.033	-0.0038	-0.0405	-111.6
0.0045	-0.0338	-0.0075	-0.024	-111.6
0.003	-0.0615	-0.012	-0.0128	-111.5
0.0045	-0.0465	-0.0105	-0.0143	-111.6
0.0045	-0.015	-0.015	-0.0293	-111.6
0.0045	-0.0248	-0.0143	-0.048	-111.5
0.0007	-0.0188	-0.0105	-0.0323	-111.6
-0.0015	0.0022	-0.0015	-0.0008	-111.6
-0.0015	0.012	0.0067	0.0255	-111.5
-0.0046	0.0195	0.012	0.0232	-111.6
-0.0068	0.0202	0.0105	0.027	-111.5
-0.0068	0.03	0.0037	0.0495	-111.6
-0.0083	0.0352	0.0015	0.057	-111.5
-0.0105	0.0277	-0.003	0.0097	-111.7
-0.012	0.0052	-0.0075	-0.0615	-111.6
-0.0098	-0.0188	-0.0068	-0.0833	-111.7
-0.0091	-0.0361	-0.012	-0.0818	-111.7
-0.0083	-0.0263	-0.0083	-0.0293	-111.5
0.0007	0.0082	-0.0023	0.0367	-111.6
0.0052	0.0082	-0.0008	0.0622	-111.4
0.003	0.0195	0.003	0.1387	-111.5
-0.003	0.039	0.0082	0.1852	-111.5
-0.0038	0.012	0.0165	0.1162	-111.5
0.0015	-0.0091	0.0225	0.036	-111.7
0.0045	0.0097	0.0217	-0.0188	-111.5
0.0045	0.0187	0.0127	-0.0998	-111.6
0.0015	0.0015	0.0007	-0.1756	-111.5
0	-0.0248	-0.0105	-0.1898	-111.6
-0.0008	-0.0465	-0.0165	-0.1478	-111.7
-0.0008	-0.06	-0.0135	-0.0788	-111.6
0.0015	-0.0615	-0.0128	-0.0361	-111.7
0.0007	-0.042	-0.0105	-0.027	-111.5
-0.0008	-0.039	-0.003	-0.0308	-111.6
-0.0008	-0.039	0.0037	-0.0091	-111.4
-0.0023	0.0045	0.0105	0.0465	-111.5
-0.0008	0.0457	0.018	0.0712	-111.5
0.0007	0.0435	0.0067	0.0675	-111.5
0	0.048	-0.0023	0.0615	-111.5
0.0015	0.0547	-0.003	0.051	-111.4
0.003	0.0427	-0.0053	0.0465	-111.6
0.0082	0.0277	-0.0046	0.036	-111.3
0.0105	0.012	-0.003	0.036	-111.6
0.006	0.0142	0.003	0.039	-111.4
0.003	0.0105	0.0082	0.0352	-111.4
-0.0015	0.0112	0.0082	0.039	-111.4
-0.003	0.0142	0.0082	0.0547	-111.3
-0.0008	0.0015	0.0045	0.0742	-111.4
0.0022	-0.0128	0	0.0637	-111.4
0.0015	-0.015	-0.006	0.0337	-111.6
-0.0015	-0.0218	-0.012	-0.0083	-111.5
-0.0046	-0.0315	-0.0143	-0.0675	-111.6
-0.006	-0.0195	-0.0135	-0.1268	-111.6
-0.0098	-0.027	-0.0128	-0.1665	-111.6
-0.0098	-0.0263	-0.0113	-0.105	-111.6
-0.0068	-0.0188	-0.0098	-0.0203	-111.5
-0.0038	-0.0368	-0.0098	-0.0135	-111.5
0.0015	-0.027	-0.0015	0.0067	-111.4
0.0067	-0.0091	0.0067	0.003	-111.4
0.0105	0.003	0.0105	-0.0046	-111.5
0.012	0.0315	0.0157	0.015	-111.2
0.0075	0.048	0.0195	0.0292	-111.5
-0.0008	0.0517	0.0187	0.0667	-111.2
-0.0053	0.0675	0.0142	0.093	-111.3
-0.0113	0.0675	0.003	0.1177	-111.3
-0.0158	0.0457	-0.0158	0.1275	-111.4
-0.015	0.015	-0.024	0.0802	-111.5
-0.0083	-0.012	-0.0181	-0.0015	-111.4
0.003	-0.0285	-0.0143	-0.0743	-111.3
0.0052	-0.063	-0.0173	-0.1118	-111.4
0.003	-0.0953	-0.0143	-0.1215	-111.5
0.0045	-0.0825	-0.0053	-0.0915	-111.4
0.0052	-0.045	-0.0023	-0.0773	-111.2
0.003	-0.0436	-0.0023	-0.1088	-111.4
-0.0008	-0.0218	0	-0.0975	-111.2
-0.0015	0.0337	0.003	-0.0495	-111.4
-0.003	0.0502	0.006	0.0022	-111.2
-0.0053	0.0592	0.0105	0.0637	-111.3
-0.0053	0.0727	0.009	0.1027	-111.1
-0.0075	0.0645	0.003	0.1312	-111.2
-0.0075	0.054	0.0007	0.1477	-111.2
-0.0046	0.018	0	0.093	-111.2
0.003	-0.027	0.0007	0.009	-111.3
0.0045	-0.0593	-0.0105	-0.0623	-111.3
0.0015	-0.1163	-0.0165	-0.135	-111.3
0.006	-0.1223	-0.0075	-0.1403	-111.2
0.009	-0.0743	-0.006	-0.0968	-111.3
0.0082	-0.0503	-0.0015	-0.063	-111.2
0.0105	-0.0091	0.0097	-0.0053	-111.1
0.012	0.0487	0.0232	0.0427	-111.1
0.0075	0.075	0.0277	0.0772	-111.1
0.0007	0.087	0.0255	0.1095	-111.2
-0.0075	0.0817	0.021	0.1455	-111.1
-0.0098	0.06	0.0127	0.1747	-111.1
-0.0046	0.0405	0.006	0.1612	-111
0.0007	0.039	-0.0015	0.1447	-111.1
0.003	0.057	-0.0015	0.0877	-111.2
0.0052	0.054	-0.0023	-0.0488	-111.3
0.003	-0.0143	-0.0113	-0.1733	-111.3
-0.0008	-0.0578	-0.0165	-0.1875	-111.2
0.0007	-0.0615	-0.0233	-0.1778	-111.2
0	-0.1103	-0.024	-0.1958	-111.2
-0.0015	-0.1043	-0.0173	-0.132	-111.3
-0.003	-0.0668	-0.0105	-0.0428	-111.3
-0.0053	-0.048	-0.0046	0.0345	-111.1
-0.0053	-0.0285	0.003	0.0847	-111.3
-0.0015	0.0007	0.0082	0.0705	-111
0.0015	0.0307	0.0105	0.0382	-111.2
0.0052	0.0165	0.0075	-0.0188	-111.2
0.0037	0.012	0.003	-0.0488	-111.1
0.0015	0.0157	0.0015	-0.0308	-111.3
0.0052	0.0172	0.003	-0.0075	-111.1
0.0075	0.0202	0.0067	0.0007	-111.4
0.0067	0.0232	0.0127	0.0135	-111.2
0.0022	0.039	0.018	0.0502	-111.2
-0.0053	0.051	0.0195	0.0952	-111
-0.0128	0.0855	0.0112	0.1485	-111.2
-0.0173	0.0997	0.0007	0.156	-111.1
-0.0113	0.0517	-0.0046	0.1005	-111.2
-0.0075	0.0015	-0.0128	0.0232	-111.2
-0.0046	-0.0308	-0.0203	-0.0465	-111.2
-0.0015	-0.048	-0.0263	-0.0953	-111.2
-0.0008	-0.0706	-0.027	-0.1238	-111.3
-0.0015	-0.1006	-0.0203	-0.12	-111.4
-0.0008	-0.096	-0.0181	-0.114	-111.2
0.0015	-0.0795	-0.0143	-0.1013	-111.1
0.0052	-0.039	-0.0083	-0.048	-111.3
0.009	-0.0015	-0.0015	-0.003	-111.2
0.012	0.0195	0.009	0.0255	-111.3
0.0105	0.0637	0.0165	0.054	-111.2
0.0067	0.0915	0.0217	0.0892	-111.2
0.0015	0.1087	0.0202	0.1477	-111.1
-0.003	0.0802	0.0135	0.1657	-111.1
-0.0046	0.0367	0.0067	0.1275	-111.2
-0.0053	0.0187	0.0007	0.075	-111.3
-0.0015	-0.0091	0.0022	0.0105	-111.2
0.0045	-0.024	0.0022	-0.0668	-111.3
0.0037	-0.084	-0.0015	-0.1283	-111.2
-0.0015	-0.1238	-0.0068	-0.1538	-111.5
-0.0046	-0.1058	-0.0173	-0.1635	-111.2
-0.0038	-0.0893	-0.021	-0.1448	-111.4
0.0015	-0.0361	-0.0135	-0.0968	-111.1
0.006	-0.006	-0.0008	-0.024	-111.2
0.0082	0.0285	0.0127	0.042	-111.2
0.0052	0.0697	0.0202	0.0892	-111.1
-0.0015	0.0765	0.0255	0.1537	-111.1
-0.0075	0.0892	0.0232	0.2055	-111
-0.0091	0.0787	0.0105	0.2085	-111.2
-0.0083	0.0495	0.0037	0.135	-111.3
-0.0046	0.0195	0.0045	0.0105	-111.3
-0.0008	-0.0128	-0.003	-0.0428	-111.3
-0.0008	-0.0308	-0.0143	-0.0923	-111.3
-0.0008	-0.0818	-0.0203	-0.21	-111.4
-0.0008	-0.0998	-0.0278	-0.1898	-111.2
-0.0053	-0.054	-0.0308	-0.1268	-111.5
-0.0068	-0.0623	-0.0256	-0.1118	-111.2
-0.0038	-0.0361	-0.0165	-0.0525	-111.5
-0.003	0.0165	-0.0008	-0.0375	-111.1
-0.0015	0.0315	0.012	0.0022	-111.3
-0.0023	0.0562	0.0202	0.0562	-111.2
-0.0046	0.0645	0.0202	0.0765	-111.3
-0.0046	0.0412	0.0127	0.0817	-111.1
-0.0053	0.0255	0.0082	0.0735	-111.2
-0.0053	0.0277	0.0007	0.0892	-111.3
-0.0053	0.015	-0.0053	0.0637	-111.3
-0.0046	-0.0135	-0.0158	0.0345	-111.3
-0.0053	-0.003	-0.0181	0.0555	-111.3
0	0.0232	-0.0083	0.0697	-111.3
0.0082	-0.0023	-0.0015	0.0292	-111.4
0.0142	-0.0188	0.0067	-0.0135	-111.2
0.0157	-0.0105	0.0097	-0.0278	-111.3
0.0142	-0.0068	0.009	-0.0353	-111.2
0.0097	-0.0181	0.0067	-0.0105	-111.2
0.0045	-0.0405	0.0045	-0.0038	-111.2
0	-0.0278	0.0067	0.027	-111.1
-0.003	0.0105	0.0015	0.054	-111.3
-0.006	0.0277	-0.0038	0.009	-111.2
-0.0068	0.0165	-0.0046	-0.0353	-111.4
-0.003	-0.0105	-0.0008	-0.0968	-111.2
0.0015	-0.0181	0.003	-0.06	-111.4
0.0007	-0.0053	0.0022	0.009	-111.2
-0.0015	-0.0053	0.0015	-0.0353	-111.3
-0.0053	-0.0091	-0.0046	-0.0638	-111.2
-0.0046	-0.0173	-0.0068	-0.0578	-111.2
-0.0008	-0.012	-0.003	-0.0458	-111.4
0.0007	-0.0023	0.0015	-0.0368	-111.3
0.0022	0.0105	0.003	-0.0165	-111.3
-0.0023	0.0232	0.0075	0.0292	-111.3
-0.0068	0.0187	0.009	0.078	-111.3
-0.0105	0.0045	0.006	0.1035	-111.2
-0.0091	0.0045	-0.0046	0.09	-111.1
-0.0023	-0.0075	-0.015	0.0495	-111.3
0.0007	-0.0285	-0.0195	-0.0053	-111.3
0	0.0022	-0.0188	-0.033	-111.5
-0.0008	0.0007	-0.0188	-0.096	-111.2
-0.0015	-0.024	-0.0188	-0.1365	-111.6
-0.0015	-0.0428	-0.0113	-0.108	-111.3
0	-0.0743	-0.0023	-0.0743	-111.2
0.0045	-0.0368	0.006	-0.0083	-111.3
0.0067	-0.0128	0.0127	0.0127	-111.3
0.0075	-0.0008	0.0135	0.0345	-111.3
0.006	0.0495	0.018	0.0742	-111.2
0.003	0.0615	0.027	0.1125	-111.2
0.0007	0.0735	0.0345	0.1552	-111.3
0.003	0.0772	0.0345	0.1432	-111.2
0.0045	0.057	0.024	0.1455	-111.3
0.0015	0.0405	0.0165	0.1125	-111.3
0.0015	0.0255	0.003	-0.0023	-111.3
-0.0046	-0.0075	-0.0165	-0.0871	-111.3
-0.0113	-0.0315	-0.024	-0.0878	-111.4
-0.0098	-0.0225	-0.0256	-0.039	-111.3
-0.0083	-0.0128	-0.024	0.0015	-111.3
-0.0053	-0.0023	-0.024	0.0007	-111.3
-0.0053	-0.0068	-0.0181	-0.0555	-111.3
-0.003	-0.0098	-0.0143	-0.0758	-111.3
-0.0046	-0.0278	-0.0203	-0.0593	-111.4
-0.0046	-0.06	-0.0181	-0.0706	-111.4
-0.0008	-0.0585	-0.012	-0.0743	-111.4
0.0007	-0.0615	-0.0053	-0.0878	-111.3
0.0015	-0.063	-0.0053	-0.0878	-111.6
-0.0008	-0.0346	-0.0083	-0.024	-111.3
-0.0023	0.0127	0	0.039	-111.5
0.003	0.042	0.0097	0.0817	-111.1
0.0082	0.057	0.0195	0.1035	-111.4
0.0165	0.0592	0.0315	0.0637	-111.3
0.0202	0.018	0.0375	0.0307	-111.3
0.0142	0.0052	0.033	0.0637	-111.4
0.0045	0.0375	0.0232	0.0472	-111.3
-0.003	0.006	0.006	-0.033	-111.4
-0.0105	-0.0413	-0.0098	-0.0503	-111.3
-0.015	-0.0083	-0.0158	-0.0256	-111.4
-0.0128	0.0195	-0.0158	-0.0046	-111.5
-0.0083	0.0105	-0.0158	0.0015	-111.4
-0.0068	0.0067	-0.0165	-0.0143	-111.5
-0.006	0.0045	-0.015	-0.0203	-111.4
-0.0053	0.003	-0.0158	-0.0308	-111.6
-0.0053	0.0105	-0.0135	-0.003	-111.5
-0.006	0.0262	-0.0075	0.051	-111.5
-0.0023	0.0195	-0.0008	0.0817	-111.3
0.0067	-0.0023	0.0082	0.0787	-111.3
0.012	-0.024	0.009	0.0172	-111.4
0.0112	-0.039	0.0082	-0.0511	-111.4
0.009	-0.024	0.0097	-0.0675	-111.6
0.0022	-0.0091	0.0037	-0.0398	-111.4
-0.0046	0.003	0.0045	0.0292	-111.5
-0.003	0.009	0.0052	0.0862	-111.4
-0.0015	0.0007	-0.003	0.0802	-111.3
-0.0038	0.0007	-0.0068	0.0562	-111.4
-0.0046	-0.0038	-0.0068	-0.0165	-111.5
-0.0015	-0.015	-0.0068	-0.1118	-111.7
0.0015	-0.0248	-0.0083	-0.114	-111.5
0.003	-0.0405	-0.0091	-0.0983	-111.6
0.0052	-0.0436	0.0007	-0.0825	-111.4
0.009	-0.0315	0.0082	-0.0443	-111.5
0.0045	-0.0233	0.0052	-0.0091	-111.6
-0.003	-0.006	0.0015	0.0727	-111.3
-0.0068	0.0015	-0.006	0.1125	-111.6
-0.0068	0.0165	-0.0023	0.0937	-111.3
-0.0023	0.024	0.003	0.0712	-111.6
0.0022	0.024	0.0015	0.0382	-111.5
0.0045	0.0457	-0.0075	-0.003	-111.5
-0.0008	0.054	-0.0165	-0.0788	-111.6
-0.006	0.0082	-0.0195	-0.1433	-111.6
-0.0083	-0.0256	-0.0181	-0.1208	-111.7
-0.0091	-0.0053	-0.0128	-0.0638	-111.6
-0.0083	0.0015	-0.003	-0.0405	-111.6
-0.0068	0.0172	0.0022	0.0052	-111.6
-0.0091	0.03	0.0022	0.06	-111.4
-0.012	0.0352	-0.0008	0.1215	-111.6
-0.0113	0.0202	0.0067	0.1642	-111.3
-0.0046	-0.0075	0.0202	0.1297	-111.7
0.0037	-0.0038	0.0277	0.078	-111.6
0.0097	0.015	0.024	0.0352	-111.6
0.0045	0.0157	0.009	-0.0338	-111.6
-0.0008	-0.0353	0.0015	-0.0938	-111.6
0.0022	-0.039	0.0075	-0.039	-111.6
0.0067	-0.021	0.0105	0	-111.6
0.0105	-0.0233	0.0097	-0.0368	-111.6
0.0075	-0.0105	0.0067	-0.0668	-111.6
0.0052	-0.0181	0.003	-0.066	-111.6
0.0045	0.0067	0.003	0.0045	-111.6
0.0022	0.0292	0.0015	0.0382	-111.6
0	0.0352	-0.003	0.0255	-111.7
-0.0046	0.0412	-0.0105	0.0405	-111.6
-0.0068	0.0307	-0.0181	0.069	-111.6
-0.0053	0.0195	-0.0195	0.0915	-111.6
-0.0015	0.0007	-0.0143	0.0727	-111.7
-0.0015	-0.0218	-0.0143	-0.0008	-111.6
-0.0015	-0.048	-0.0165	-0.09	-111.7
-0.0038	-0.0788	-0.0181	-0.1635	-111.9
-0.006	-0.105	-0.0203	-0.2033	-111.6
-0.0068	-0.0885	-0.0165	-0.1515	-111.9
-0.0046	-0.0436	-0.0091	-0.0555	-111.6
-0.0015	-0.0278	-0.006	-0.0128	-111.6
0	0.0067	0.003	0.0322	-111.6
0.003	0.0405	0.0165	0.0517	-111.5
0.0052	0.0292	0.0217	0.0517	-111.6
0.0082	0.024	0.0172	0.0787	-111.4
0.0067	0.0465	0.012	0.0712	-111.6
0.0082	0.054	0.015	0.072	-111.6
0.0127	0.0405	0.0165	0.0562	-111.5
0.0142	0.0225	0.0157	0.0052	-111.6
0.0127	0.003	0.0112	-0.0113	-111.5
0.0067	0.003	0.0067	-0.0158	-111.7
-0.0008	0.0112	0.0075	-0.0053	-111.6
-0.003	0.0195	0.0045	0.0127	-111.6
-0.0053	0.024	0	0.0172	-111.4
-0.0075	0.0277	-0.003	0.0405	-111.6
-0.0105	0.0375	-0.0053	0.0795	-111.5
-0.0105	0.042	-0.0091	0.1102	-111.6
-0.0105	0.03	-0.012	0.1125	-111.6
-0.0053	-0.0143	-0.006	0.0667	-111.6
0.003	-0.0443	0	-0.0075	-111.6
0.003	-0.0383	-0.0053	-0.0893	-111.6
-0.0008	-0.0593	-0.0195	-0.1583	-111.6
-0.0015	-0.0818	-0.0256	-0.1688	-111.8
-0.003	-0.0698	-0.0233	-0.1275	-111.7
-0.0015	-0.0458	-0.0225	-0.0691	-111.6
0.0045	-0.0195	-0.0181	-0.033	-111.6
0.0052	-0.0091	-0.0105	-0.039	-111.6
0.003	-0.0008	-0.003	-0.0278	-111.6
0.003	0.0232	0.0067	0.0135	-111.5
0.0015	0.0367	0.0082	0.0315	-111.7
-0.0038	0.0307	0.0082	0.0382	-111.4
-0.0083	0.0375	0.009	0.0705	-111.5
-0.0128	0.0592	0.0067	0.1012	-111.4
-0.0113	0.0757	0.0082	0.1215	-111.6
-0.006	0.063	0.0082	0.0952	-111.5
-0.003	0.0127	0.009	0.0142	-111.5
0.0007	-0.027	0.009	-0.0368	-111.6
-0.0008	-0.0503	0.0075	-0.0368	-111.5
-0.0008	-0.039	0.0067	-0.0143	-111.6
-0.0068	-0.0203	-0.0015	-0.0053	-111.6
-0.0091	-0.0225	-0.006	0.0112	-111.4
-0.0046	-0.0195	-0.0068	0.0285	-111.6
0.0007	-0.0233	-0.0023	0.0052	-111.3
0.009	-0.024	0.0082	-0.039	-111.6
0.0127	-0.0203	0.0082	-0.078	-111.6
0.0097	-0.012	0.0052	-0.0706	-111.6
0.0052	-0.0008	0.0045	-0.0308	-111.4
-0.0008	0.0127	0.0082	0.0097	-111.6
-0.0038	0.024	0.0067	0.0345	-111.5
-0.0083	0.0225	0.003	0.0457	-111.5
-0.0091	0.0315	-0.0008	0.0817	-111.5
