File Name: sentado.log
Channel 4: 'Recto Femoral', 16854 values, engineering units: mV, no filters.
Channel 5: 'Biceps Femoral', 16854 values, engineering units: mV, no filters.
Channel 6: 'Vasto Medial', 16854 values, engineering units: mV, no filters.
Channel 7: 'EMG Semitendinoso', 16854 values, engineering units: mV, no filters.
Channel 8: 'Flexo-Extension', 16854 values, engineering units: deg, no filters.

0.0082	-0.0015	-0.0158	-0.0008	-30
-0.0023	-0.0053	-0.0218	-0.0008	-29.7
-0.0135	-0.003	-0.0218	0	-29.4
-0.0128	-0.0023	-0.0256	0.0015	-29.5
-0.0046	-0.0023	-0.024	0.003	-29.3
0	-0.003	-0.012	0.003	-29.1
0.0022	-0.0008	0.0165	0.003	-29.1
0.003	-0.0008	0.0322	0.0015	-28.8
-0.0038	0.0015	0.0292	0.0045	-28.8
-0.0083	0.0052	0.0277	0.0067	-28.5
-0.0083	0.003	0.024	0.0037	-28.8
0.0157	0.0007	0.0157	0.0045	-28.4
0.0442	0.0015	0.0075	0.0052	-28.4
0.0465	0.0015	0.0037	0.0022	-28.1
0.021	-0.0008	-0.0015	0.0007	-28.1
0.003	0.0007	-0.0053	0.0015	-28.1
-0.012	0.003	-0.0046	0.0007	-28.1
-0.0218	0.0022	-0.006	0.0022	-27.9
-0.0128	-0.0015	-0.0075	0.003	-27.7
-0.0105	0.0007	0.003	0.0015	-27.5
-0.0068	0.0045	0.0157	0.003	-27.5
-0.0046	0.006	0.018	0.0015	-27.5
-0.003	0.0037	0.018	0.0022	-27.3
-0.0075	-0.0008	0.021	0.0007	-27.1
-0.015	-0.0015	0.018	-0.0008	-27.4
-0.0105	-0.0015	0.0105	-0.0008	-27
-0.0053	-0.0015	0.0097	-0.0008	-26.9
-0.0008	0.0007	0.0105	0.0015	-26.8
-0.006	0.0007	0.0097	0.0007	-26.7
-0.0256	-0.0046	0.003	-0.0015	-26.6
-0.0361	-0.0083	0.0015	-0.003	-26.6
-0.033	-0.0091	0.0015	-0.0008	-26.3
-0.0346	-0.0083	0.003	0.003	-26.1
-0.03	-0.0046	0.006	0.0045	-26.1
-0.0128	0.0007	0.0052	0.0067	-26.2
0.0007	0.0015	0.0052	0.0037	-25.8
0.0082	0.0007	0	0.0045	-26.1
0.0127	0.003	-0.0023	0.0052	-25.5
0.0217	0.0037	-0.003	0.003	-25.8
0.0255	0.003	-0.0068	0.0045	-25.6
0.0307	0.003	-0.0075	0.0037	-25.6
0.0307	0.0015	-0.006	0.0037	-25.4
0.0187	-0.0023	-0.006	0.0037	-25.1
0.0045	-0.0068	-0.0105	-0.0015	-25.2
-0.0046	-0.0083	-0.0068	-0.003	-25
-0.012	-0.0098	0	-0.003	-25.1
-0.027	-0.0105	-0.0046	-0.003	-24.8
-0.0323	-0.0083	-0.0091	0.0015	-24.9
-0.0195	-0.0015	0.0037	0.0052	-24.6
0	0.0045	0.0217	0.0082	-24.4
0.012	0.009	0.0262	0.0105	-24.5
0.0217	0.0082	0.0202	0.0097	-24.3
0.0315	0.006	0.0105	0.0082	-24.3
0.0345	0.0045	0.0045	0.0067	-24
0.0352	0.003	-0.0038	0.0052	-24.1
0.0315	0.0015	-0.0143	0.0037	-24
0.0292	-0.0008	-0.0203	0.003	-23.8
0.027	0.0007	-0.0181	0.0045	-23.9
0.0217	0.0015	-0.0158	0.0052	-23.6
0.0142	0.0007	-0.0083	0.003	-23.5
-0.0113	-0.0008	0.0007	0.003	-23.3
-0.048	-0.0015	0.003	0.0022	-23.3
-0.075	-0.003	0.003	0.0015	-23.1
-0.093	-0.006	-0.0015	0.0037	-23.1
-0.0818	-0.0068	-0.0015	0.003	-23
-0.0263	-0.0091	-0.006	-0.0008	-23.1
0.0292	-0.0128	-0.012	-0.003	-22.7
0.039	-0.0091	-0.012	-0.0008	-22.8
0.015	-0.0046	-0.0135	0.003	-22.5
0.003	-0.0015	-0.015	0.003	-22.7
0.0082	-0.0015	-0.0203	-0.0008	-22.3
0.018	0.0022	-0.0195	-0.0015	-22.4
0.0292	0.009	-0.0158	0	-22.2
0.03	0.0082	-0.0181	0.0022	-22.2
0.0285	0.0052	-0.0173	0.003	-22.2
0.0187	0.0037	-0.0181	0.0022	-21.9
0.0135	0.003	-0.0158	0.0007	-22.1
0.0097	0.0007	-0.0083	-0.0015	-21.6
0.0082	0.0052	0.0037	-0.0008	-21.7
0.0127	0.0112	0.009	0.0015	-21.6
0.0082	0.012	0.003	0.0015	-21.5
0.0082	0.009	-0.0038	-0.0008	-21.4
0.0135	0.003	-0.0083	-0.003	-21.4
0.0157	-0.0015	-0.0046	-0.0068	-21.2
0.0165	-0.0046	-0.0046	-0.0083	-20.9
0.0127	-0.0098	-0.003	-0.0105	-21.1
-0.0008	-0.0083	0.0015	-0.0053	-20.9
-0.0105	-0.0053	0.0045	-0.003	-20.8
-0.0263	-0.0083	0.0165	-0.0046	-20.8
-0.0533	-0.0038	0.0285	-0.0038	-20.6
-0.0555	-0.003	0.0307	-0.0046	-20.6
-0.0413	-0.0135	0.0202	-0.0046	-20.6
-0.0353	-0.0105	0.0142	0.0015	-20.3
-0.0248	-0.0015	0.0105	0.0067	-20.3
-0.0008	0.0007	0.0007	0.0067	-20.1
0.0142	-0.0023	0.003	0.0037	-20.2
0.015	-0.0015	0.0157	0.0007	-20
0.0165	0.0015	0.0082	-0.0008	-19.9
0.0202	0.0045	-0.0008	-0.0008	-19.9
0.0217	0.003	0.0045	-0.0015	-19.7
0.012	0.003	0.0105	0.0007	-19.8
-0.0098	0.0052	0.0082	0.0007	-19.4
-0.015	0.0052	0.003	0.0007	-19.7
-0.0113	0.0067	0.0037	0.0045	-19.4
0.0112	0.006	-0.0008	0.003	-19.5
0.0765	0.0015	-0.012	-0.0008	-19.4
0.0727	-0.0053	-0.0165	-0.0046	-19.4
-0.0046	-0.012	-0.0173	-0.0083	-19.1
-0.0503	-0.0165	-0.0218	-0.0105	-19.1
-0.0788	-0.0165	-0.0263	-0.0068	-19.1
-0.0645	-0.0098	-0.0195	0.0007	-18.9
-0.0368	-0.0053	-0.0053	0.0037	-18.9
-0.0218	-0.003	0.0097	0.0037	-18.7
0.0045	0.0022	0.0195	0.0082	-18.7
0.0097	0.0097	0.0262	0.0105	-18.7
0.0195	0.0127	0.027	0.0127	-18.3
0.0232	0.0112	0.0232	0.0082	-18.5
0.018	0.009	0.0202	0.0015	-18.3
0.0157	0.0045	0.0142	-0.0008	-18.3
0.0165	0.0015	0.0067	-0.0008	-18.2
0.0217	0.003	0.0015	0	-18.1
0.0217	0.0052	0.0052	-0.0008	-18
0.015	0.0045	0.009	-0.0038	-17.8
0.0045	-0.0015	0.015	-0.0053	-18
-0.012	-0.0068	0.0127	-0.006	-17.6
-0.0398	-0.0075	0.0127	-0.0046	-17.8
-0.0495	-0.0098	0.018	-0.0038	-17.7
-0.0315	-0.0158	0.0142	-0.003	-17.6
-0.0023	-0.0181	0.0112	0.0007	-17.6
0.018	-0.012	0.0007	0.0067	-17.4
0.0255	-0.0098	-0.024	0.012	-17.4
0.0217	-0.0098	-0.0503	0.0157	-17.3
0.0225	-0.0053	-0.0645	0.018	-17.3
0.024	-0.0015	-0.0638	0.018	-17.3
0.012	0.0052	-0.0436	0.018	-17.2
-0.006	0.009	-0.0128	0.0165	-17
-0.0128	0.0105	-0.003	0.0127	-16.9
-0.0165	0.0157	-0.0046	0.0127	-17
-0.0203	0.0165	-0.0046	0.012	-16.7
-0.0038	0.015	0.0105	0.0067	-16.7
0.0217	0.0127	0.0292	-0.003	-16.6
0.0367	0.0127	0.033	-0.0105	-16.7
0.033	0.0127	0.0285	-0.0083	-16.6
0.0165	0.0052	0.0127	0.0082	-16.4
0.0015	0.0015	0.0067	0.0307	-16.2
-0.0046	-0.0046	0.0105	0.0405	-16.3
-0.0105	-0.0091	0.0052	0.039	-16.1
-0.0233	-0.0143	-0.0053	0.0382	-16.2
-0.0346	-0.0218	-0.0218	0.0292	-16
-0.0488	-0.0218	-0.0248	0.024	-16.2
-0.0428	-0.0105	-0.0248	0.024	-15.9
-0.0143	0.0075	-0.0308	0.0165	-16.1
0.021	0.0105	-0.0315	0.0202	-15.7
0.0435	0.0015	-0.0225	0.0262	-15.8
0.0397	-0.0008	-0.0181	0.0232	-15.6
0.0277	-0.003	-0.0105	0.018	-15.7
0.0307	-0.0008	0.0157	0.0082	-15.5
0.0367	-0.0015	0.0405	-0.0008	-15.4
0.0232	-0.0046	0.0397	-0.0113	-15.4
0.012	-0.0128	0.0195	-0.0218	-15.3
0.0022	-0.021	0.0007	-0.0256	-15.1
-0.0293	-0.0233	-0.0075	-0.033	-15.3
-0.0555	-0.015	-0.0158	-0.033	-14.9
-0.048	0.0097	-0.0195	-0.024	-15.1
-0.0128	0.024	-0.0278	-0.0188	-14.9
0.0037	0.0157	-0.0293	-0.0181	-14.9
-0.0046	0.009	0.0015	-0.0173	-14.6
-0.0135	0.0097	0.0202	-0.0218	-14.7
-0.021	0.0067	0.0142	-0.0263	-14.7
-0.0285	0.0015	0.012	-0.0263	-14.5
-0.0473	-0.0008	0.0112	-0.024	-14.4
-0.063	-0.003	0.0022	-0.0248	-14.2
-0.0465	-0.0105	-0.0008	-0.0278	-14.4
-0.0368	-0.0158	0.0067	-0.027	-14.2
-0.0346	-0.012	0.015	-0.0195	-14.2
-0.0008	-0.0008	0.024	-0.0135	-14.1
0.0292	0.0045	0.0307	-0.012	-14.1
0.0405	0.0082	0.0195	-0.0105	-13.8
0.0532	0.0105	-0.0008	-0.0135	-13.8
0.0592	0.0075	-0.0098	-0.0181	-13.8
0.0637	0.009	-0.0173	-0.0165	-13.8
0.0525	0.0105	-0.0128	-0.0165	-13.5
0.0277	0.0075	-0.0091	-0.015	-13.6
0.0045	0	-0.0128	-0.0188	-13.3
-0.015	-0.0098	-0.0135	-0.0248	-13.5
-0.0203	-0.0158	-0.0113	-0.024	-13.1
-0.0256	-0.0181	-0.0038	-0.0233	-13.3
-0.024	-0.0098	-0.0091	-0.0195	-13.1
-0.024	-0.0015	-0.0181	-0.0195	-13.1
-0.0188	0.003	-0.0263	-0.0173	-13
-0.0083	0.0067	-0.0233	-0.0135	-13
-0.0233	0.0082	0.0082	-0.0135	-12.8
-0.0181	0.0105	0.0247	-0.0143	-12.8
0.0135	0.0105	0.0315	-0.0225	-12.6
0.018	0.0067	0.0367	-0.027	-12.8
0.0082	-0.0008	0.0285	-0.0293	-12.5
0.0052	-0.0091	0.0187	-0.0278	-12.5
0.0127	-0.0113	0.0112	-0.0203	-12.4
0.0195	-0.0181	0.0165	-0.0195	-12.5
0.0127	-0.0263	0.0127	-0.0218	-12.2
0.0105	-0.021	0.0112	-0.0308	-12.2
0.003	0.0022	0.0052	-0.0443	-12.3
0.0022	0.0232	-0.0188	-0.0585	-12.1
0.0262	0.0285	-0.0256	-0.0713	-12.2
0.0352	0.027	-0.0263	-0.0728	-11.9
0.036	0.0202	-0.0195	-0.0638	-12.2
0.0142	0.012	-0.024	-0.0518	-11.8
-0.0128	-0.003	-0.0458	-0.0398	-11.9
-0.0218	-0.0158	-0.0495	-0.0233	-11.7
-0.0383	-0.0181	-0.06	0.0015	-11.5
-0.006	-0.0098	-0.0533	0.0532	-11.7
0.0322	0.0052	0.0037	0.114	-11.4
0.006	0.0015	0.048	0.1515	-11.5
-0.0233	-0.0091	0.048	0.1725	-11.2
-0.015	-0.0135	0.048	0.1747	-11.3
0.0022	-0.015	0.0465	0.1635	-11.2
0.0217	-0.0083	0.0307	0.1522	-11
0.0352	-0.0023	0.015	0.1372	-11.1
0.0285	0.0045	-0.0046	0.1252	-11.1
0.0307	0.018	0.0007	0.1125	-11.1
0.0292	0.0165	0.0067	0.0975	-10.8
0.0277	0.0105	-0.0008	0.087	-11
0.0195	0.009	-0.0091	0.0765	-10.9
0.009	0.0075	-0.0263	0.0615	-10.8
0.0082	0.003	-0.0218	0.0547	-10.8
0.0015	-0.006	-0.0128	0.0502	-10.8
-0.0353	-0.0128	-0.0143	0.0397	-10.7
-0.0968	-0.0135	-0.027	0.0285	-10.7
-0.0975	-0.015	-0.0361	0.018	-10.5
-0.063	-0.0188	-0.0181	0.009	-10.4
-0.0353	-0.0165	-0.0188	0.0037	-10.4
-0.0225	-0.0128	-0.03	-0.0091	-10.5
-0.0293	-0.0068	-0.0165	-0.0293	-10.3
0.0075	0.0052	-0.0083	-0.042	-10.4
0.0315	0.0105	-0.0105	-0.048	-10.2
0.039	0.0105	-0.003	-0.0555	-10.2
0.0412	0.0067	-0.003	-0.0608	-10.1
0.0195	-0.0015	0.0105	-0.0623	-9.9
0.015	-0.0046	0.0262	-0.06	-10
0.009	-0.0091	0.0172	-0.0615	-9.9
-0.0015	-0.0135	0.0187	-0.0645	-9.8
-0.0218	-0.0075	0.0337	-0.0615	-9.9
-0.0353	0.0052	0.0502	-0.0518	-9.7
-0.0533	0.015	0.0472	-0.0413	-9.8
-0.0615	0.0165	0.0315	-0.033	-9.6
-0.0323	0.0142	0.0337	-0.0315	-9.7
-0.0181	0.0075	0.0217	-0.0375	-9.6
-0.0128	0	-0.027	-0.0488	-9.6
0.0045	-0.0068	-0.0593	-0.0555	-9.6
0	-0.0105	-0.0458	-0.0578	-9.4
-0.0233	-0.0128	-0.0405	-0.0555	-9.4
-0.048	-0.0218	-0.0458	-0.0503	-9.3
-0.0743	-0.0233	-0.0323	-0.0383	-9.5
-0.0773	-0.0158	-0.0181	-0.0233	-9.2
-0.0443	-0.0053	0.012	-0.0098	-9.3
-0.0046	0.0195	0.0397	0.0015	-9.1
0.0157	0.0315	0.0397	0.003	-9
0.039	0.0247	0.0285	0.0007	-9.1
0.0652	0.0232	0.0315	0.0007	-8.9
0.0765	0.0135	0.0345	-0.003	-9
0.0712	0.012	0.0105	-0.0008	-9
0.0585	0.0067	-0.0128	0.0067	-9
0.0435	-0.0008	-0.0015	0.0105	-8.8
0.0367	0.003	0.0105	0.003	-8.7
0.0412	-0.0068	-0.0068	-0.0075	-9
0.027	-0.0113	-0.0158	-0.0091	-8.6
0.009	-0.0128	-0.0098	-0.0181	-8.8
-0.0233	-0.0203	-0.0038	-0.0225	-8.6
-0.0675	-0.0256	-0.012	-0.0233	-8.6
-0.0871	-0.0315	-0.033	-0.0256	-8.6
-0.075	-0.0248	-0.0278	-0.0165	-8.5
-0.03	0.003	0.0105	-0.0046	-8.5
0.006	0.024	0.0442	0.0015	-8.5
0.0517	0.018	0.0427	0	-8.3
0.084	0.0112	0.036	-0.0008	-8.3
0.0712	0.0045	0.033	-0.0038	-8.2
0.0532	0.0037	0.0277	-0.0008	-8.3
0.0255	0.0142	0.015	0.0067	-8.1
0.0142	0.0165	0.009	0.0105	-8.2
0.0097	0.0082	0.0045	0.0127	-7.9
0.0105	0.0015	-0.0023	0.012	-8
0.0217	-0.0015	-0.003	0.0127	-7.8
0.0195	-0.0053	0.0015	0.0082	-8.1
0.009	-0.0075	0.0052	0.003	-7.9
-0.0278	-0.0143	0.0135	0.0135	-7.7
-0.0218	-0.0143	0.0262	0.018	-7.7
0.039	-0.0091	0.0075	0.0105	-7.9
0.0465	-0.0098	-0.0278	0.0052	-7.7
0.0195	-0.015	-0.0495	-0.0038	-7.7
-0.0203	-0.0203	-0.0436	-0.0181	-7.8
-0.0533	-0.0083	-0.0428	-0.0225	-7.9
-0.039	0.0142	-0.0578	-0.027	-7.5
-0.027	0.018	-0.0256	-0.0263	-7.6
-0.0263	0.0142	0.0127	-0.0158	-7.3
-0.0113	0.0105	0.0217	-0.0143	-7.7
0.0082	0.0045	0.024	-0.021	-7.5
0.0532	0.003	0.024	-0.0263	-7.3
0.0967	0.006	0.0225	-0.0278	-7.3
0.048	0.0097	0.0045	-0.0233	-7.2
-0.0068	0.0037	-0.0233	-0.0113	-7.3
-0.0323	-0.0015	-0.042	-0.0023	-7.2
-0.0495	-0.0023	-0.0375	0.015	-7.3
-0.033	-0.0038	0.0082	0.033	-7.1
-0.0436	-0.0128	0.0285	0.0442	-7
-0.0608	-0.0225	-0.0053	0.0592	-7.1
-0.0615	-0.0143	-0.0353	0.0727	-7
-0.0413	-0.0083	-0.066	0.084	-7
0.003	0	-0.0638	0.09	-6.9
0.0247	0.0015	-0.042	0.0877	-6.9
0.0105	-0.006	-0.039	0.0802	-7
0.003	-0.0128	-0.0315	0.0712	-6.8
0.0195	-0.0128	-0.012	0.0607	-6.8
0.0165	-0.0068	0.0165	0.054	-6.8
0	-0.0023	0.024	0.0457	-6.8
0.0015	0.0045	0.0405	0.0375	-6.6
0.0405	0.0007	0.0577	0.0367	-6.7
0.069	0.0157	0.057	0.0375	-6.7
0.0607	0.0277	0.0652	0.0315	-6.5
0.042	0.012	0.0615	0.0202	-6.6
0.0307	0.0067	0.0307	0.0112	-6.5
0.0262	0.0105	-0.0105	0.003	-6.6
0.006	0.0075	-0.0263	-0.012	-6.6
-0.0173	0.0007	-0.0285	-0.024	-6.3
-0.0398	-0.003	-0.0203	-0.0256	-6.8
-0.063	-0.003	-0.015	-0.021	-6.4
-0.0548	-0.0008	-0.0143	-0.0158	-6.7
-0.0293	-0.003	-0.0098	-0.012	-6.4
-0.0068	-0.012	-0.0218	-0.0023	-6.5
-0.0053	-0.0128	-0.0263	0.0112	-6.4
-0.0256	-0.0015	-0.027	0.018	-6.4
-0.0405	-0.0015	-0.0263	0.021	-6.3
-0.0405	-0.0113	-0.0338	0.027	-6.3
-0.045	-0.003	-0.0428	0.0442	-6.4
-0.0398	0.0015	-0.0173	0.0622	-6
0.0067	0.0045	0.0367	0.0727	-6.2
0.033	0.0052	0.054	0.0765	-6.2
0.0562	0.0105	0.0202	0.0765	-6.2
0.0795	0.0135	0.0315	0.066	-6.2
0.0547	-0.003	0.072	0.0465	-5.9
0.0097	-0.0173	0.0555	0.0255	-6.2
-0.0518	-0.027	0.0052	0.0052	-6
-0.0743	-0.027	-0.0293	0.0015	-6.2
-0.0383	-0.0091	-0.0346	0.0052	-6
-0.0068	0.0015	0.006	0.0015	-5.9
0.0037	-0.0053	0.024	-0.0083	-6.2
-0.0075	0.003	-0.006	-0.0135	-5.9
-0.003	0.0157	-0.0293	-0.0218	-6.1
-0.003	0.0075	-0.0248	-0.033	-5.9
0.0075	-0.003	0.009	-0.033	-6
-0.0015	-0.0128	0.0097	-0.0323	-5.9
-0.063	-0.0091	-0.0008	-0.0315	-6
-0.0548	0.0135	-0.012	-0.024	-5.8
0.0007	0.0225	-0.0293	-0.0181	-5.8
0.0322	0.012	-0.0691	-0.0165	-5.9
0.0555	0.0097	-0.0713	-0.0203	-5.9
0.0682	0.0067	0.0127	-0.0315	-5.9
0.066	0.003	0.0315	-0.042	-5.9
0.0472	-0.0023	0.027	-0.048	-5.8
0.0255	-0.0068	0.051	-0.048	-5.8
0.0195	-0.0023	0.042	-0.0495	-5.6
-0.0083	-0.003	0.0285	-0.0533	-5.8
-0.0525	0.0075	0.0202	-0.0443	-5.5
-0.0443	0.0277	0.0277	-0.0338	-5.7
-0.0203	0.0195	0.033	-0.033	-5.7
0.0165	0.0075	0.0315	-0.0308	-5.6
0.0442	-0.006	0.0052	-0.0323	-5.7
-0.0233	-0.0173	-0.0293	-0.0361	-5.6
-0.063	-0.0105	-0.0495	-0.0346	-5.5
-0.0248	-0.0091	-0.0668	-0.033	-5.6
-0.0038	-0.0165	-0.0593	-0.0308	-5.5
0.018	-0.0181	-0.0511	-0.0233	-5.5
0.0292	-0.0165	-0.0188	-0.0181	-5.4
0.012	-0.0218	0.0225	-0.0195	-5.4
-0.006	-0.0278	0.0405	-0.024	-5.4
-0.024	-0.0233	0.0637	-0.0225	-5.4
-0.024	0	0.0652	-0.0098	-5.4
0.0037	0.0277	0.0427	0.003	-5.4
0.0375	0.042	0.0307	0.0097	-5.4
0.0495	0.0345	0.0315	-0.0015	-5.3
0.0382	0.0135	0.033	-0.012	-5.4
0.0277	0.0142	0.0307	-0.0098	-5.2
0.0232	0.009	0.0277	-0.0091	-5.4
0.0052	0.0067	0.027	-0.0105	-5.1
-0.0346	0.006	0.0067	-0.0218	-5.2
-0.0668	-0.0053	-0.0256	-0.0293	-5.3
-0.057	-0.0105	-0.0405	-0.0315	-5.2
-0.0383	-0.0165	-0.054	-0.0293	-5.4
-0.0218	-0.0165	-0.0795	-0.021	-5.1
-0.0046	-0.0098	-0.0915	-0.012	-5.3
-0.0023	0.009	-0.0645	-0.0015	-5.2
0.0067	0.018	-0.0353	-0.003	-5
0.0015	0.006	-0.0188	-0.0135	-5.3
-0.0691	-0.0105	-0.0143	-0.021	-5
-0.1305	-0.0143	-0.0203	-0.0098	-5.3
-0.0953	-0.0053	-0.0256	0.0015	-5
-0.0158	-0.0091	-0.0105	0.003	-5.2
0.0367	-0.0135	0.0292	0.009	-5
0.0577	-0.0195	0.0352	0.012	-5.1
0.069	-0.0165	0.0345	0.0277	-5
0.0862	-0.006	0.0375	0.0435	-5
0.1132	-0.0015	0.0247	0.048	-4.9
0.1125	0.003	0.0202	0.0495	-5
0.063	-0.0015	0.0127	0.0457	-5
0.0127	0	0.0157	0.0345	-5
0.0015	0.0075	0.0052	0.0262	-4.9
0.0142	-0.0046	-0.0248	0.0165	-5.1
0.0045	-0.0075	-0.0533	0.0105	-5
-0.0173	0.003	-0.0795	0.006	-5.1
-0.0165	0	-0.063	-0.0046	-5
0.0052	-0.0105	-0.0083	-0.0143	-5
0.0285	-0.0195	0.0225	-0.027	-4.9
-0.0075	-0.0218	0.006	-0.03	-5
-0.0863	-0.0128	-0.0293	-0.024	-5
-0.12	-0.0105	-0.0518	-0.024	-4.9
-0.1021	0.0037	-0.006	-0.015	-5
-0.0683	0.0187	0.0292	-0.0158	-5
-0.0436	0.0217	-0.0143	-0.0128	-5
-0.0083	0.0442	-0.012	-0.006	-4.9
0.0157	0.0232	0.06	-0.0188	-4.8
0.024	0.0045	0.1237	-0.0203	-5
0.054	0.0052	0.1155	-0.0248	-4.8
0.0577	-0.0053	0.0802	-0.0285	-4.9
0.033	0.0075	0.0652	-0.027	-4.9
0.0097	-0.0053	0.0135	-0.039	-4.8
-0.0248	-0.015	-0.003	-0.0398	-5
-0.045	-0.0046	-0.0083	-0.033	-5
-0.0398	0.0037	-0.027	-0.027	-5
-0.0195	-0.0023	-0.03	-0.0256	-4.8
0.009	-0.0105	-0.0668	-0.0278	-5
0.0315	-0.0143	-0.0788	-0.0256	-4.8
0.036	-0.0143	-0.0495	-0.027	-5
0.0307	-0.0098	0.0037	-0.0218	-5
0.0262	-0.0091	0.0142	-0.0135	-5
0.0142	0.003	-0.0128	-0.012	-4.9
-0.0046	0	-0.0195	-0.0105	-5
-0.0158	0.006	-0.0263	-0.0015	-5
-0.0128	0.0277	-0.0263	0.0037	-5
-0.0046	0.018	-0.0383	-0.006	-4.9
0.0232	-0.0053	-0.003	-0.0225	-4.8
0.024	-0.0173	0.0367	-0.03	-4.8
-0.012	-0.0135	0.0105	-0.024	-5
-0.0353	-0.0091	-0.0015	-0.0165	-4.8
-0.0608	-0.0068	-0.0091	-0.0113	-5
-0.0743	-0.006	-0.0278	-0.012	-5
-0.0361	-0.0053	-0.0315	-0.0113	-5
0.0225	-0.003	-0.0075	-0.0083	-5
0.0862	-0.003	0.0285	-0.0083	-4.9
0.1222	0.0037	0.0382	-0.0046	-5
0.0885	0	0.0112	-0.0046	-5
0.0562	0.009	-0.0165	0	-5
0.018	0.0157	-0.0128	0.0022	-5.1
-0.0068	-0.0015	0.0067	-0.003	-4.8
0.009	-0.0046	0.0405	-0.0023	-5
0.0082	-0.0053	0.0615	-0.0113	-4.9
0.0067	0.0015	0.0675	-0.0128	-4.9
0.018	0.0007	0.045	-0.0068	-4.9
0.0142	-0.0008	0.0112	0.0052	-4.8
0.024	0.024	0.012	0.024	-5.1
0.0487	0.0232	-0.0188	0.0217	-5
0.018	0.0142	-0.0578	0.027	-5.1
-0.0143	0.0067	-0.0803	0.0262	-4.9
-0.0638	-0.0181	-0.0863	0.0105	-5
-0.1583	-0.0375	-0.0691	-0.003	-4.9
-0.1913	-0.0315	-0.039	-0.0046	-5
-0.1898	-0.0195	-0.0008	0.0075	-5
-0.1478	-0.0195	0.0037	0.018	-5
-0.048	-0.0015	-0.0046	0.0397	-5.1
0.0052	0.0225	0.024	0.0525	-4.9
0.0262	0.033	0.0705	0.054	-5
0.0315	0.021	0.1185	0.054	-5.1
0.0315	0.0067	0.147	0.039	-5
0.0832	0.0082	0.1402	0.024	-5
0.1117	0.0052	0.108	0.0127	-4.9
0.102	0.0037	0.0735	0.0105	-5.2
0.0825	0.0052	0.0465	0.0142	-5
0.0472	0.0045	0.0127	0.015	-5
0.0157	0.0015	-0.0323	0.0052	-5.2
-0.0023	-0.0046	-0.0765	0.0007	-5
-0.0008	-0.0143	-0.129	0	-5.2
-0.0218	-0.0233	-0.1613	-0.0091	-5.1
-0.0765	-0.0256	-0.159	-0.0068	-5.1
-0.0945	-0.0195	-0.1463	-0.0105	-5.2
-0.0525	0	-0.0856	-0.0046	-5
0.009	0.0165	0.0015	0.0097	-5.1
0.045	0.0232	0.0315	0.0075	-4.9
0.0547	0.015	0.0502	0.0067	-5.3
0.0517	0.0112	0.0825	0.0015	-4.9
0.033	0.018	0.0712	-0.0015	-5.2
0.027	0.006	0.0502	-0.006	-5
0.021	-0.0008	0.0315	-0.0128	-5.2
-0.0105	-0.0046	0.0202	-0.0113	-5.2
-0.0323	-0.0165	0.0105	-0.0143	-5
-0.0465	-0.0225	-0.0233	-0.0135	-5.3
-0.0593	-0.0218	-0.0495	-0.0091	-5
-0.0615	-0.0075	-0.06	-0.003	-5.1
-0.0623	0.0052	-0.0495	-0.0008	-5.3
-0.0323	0.0015	-0.0368	-0.0113	-5.1
0.0142	0.0007	-0.03	-0.0091	-5.2
0.045	0.0052	-0.0458	-0.0046	-5
0.0825	0.0052	-0.0368	-0.0075	-5.4
0.0892	0.0052	0.0442	-0.0068	-5
0.0555	0.0037	0.0832	-0.0188	-5.2
0.057	0	0.0555	-0.0293	-5.1
0.0427	-0.0053	0.033	-0.0308	-5.3
0.0067	-0.0091	-0.003	-0.0315	-5.2
-0.0165	-0.0158	-0.0248	-0.0278	-5.2
-0.0578	-0.0256	-0.0233	-0.0203	-5.4
-0.0668	-0.0173	-0.039	-0.0046	-5
-0.0495	-0.0091	-0.0436	0.006	-5.2
-0.063	-0.012	-0.0518	0.006	-5.1
-0.0383	-0.0046	-0.0503	0.018	-5.3
0.0435	0.0172	-0.0293	0.021	-5.3
0.1042	0.0157	0.0045	0.0127	-5
0.0802	0.0007	0.0307	0.003	-5.2
0.0352	0.0067	0.0307	-0.006	-5.3
0.0105	0.0105	0.0412	-0.0068	-5.2
-0.0436	0.0172	0.0607	-0.0046	-5.1
-0.0713	0.0105	0.0405	-0.006	-5
-0.0765	-0.0203	-0.0023	-0.0143	-5.2
-0.054	-0.0256	-0.0083	-0.0128	-5
-0.0195	-0.0195	-0.0181	-0.0008	-5.2
-0.0368	-0.0113	-0.045	0.012	-5.1
-0.0195	0.012	-0.045	0.027	-5.3
0.024	0.024	0.0135	0.0292	-5
0.0555	0.0105	0.0682	0.021	-5.2
0.078	-0.0083	0.0532	0.0165	-5.1
0.0652	0	0.021	0.018	-5.2
0.063	0.0045	-0.0165	0.0127	-5
0.0405	-0.0075	-0.0203	0.0052	-5.3
0.0097	-0.0083	0.0142	0.0007	-5.1
-0.0173	0.0082	0.033	-0.0008	-5.1
-0.0128	0.0142	0.0232	0	-5.1
0.033	-0.0008	0.0022	-0.006	-5.2
0.0457	-0.0053	-0.0158	-0.0135	-5.2
0.027	-0.0128	-0.0233	-0.0091	-5.3
-0.0181	0.0007	0.003	0.0015	-5
-0.0308	0.0202	-0.006	0.0082	-5.2
-0.0158	0.0105	-0.0706	0.0067	-5.1
-0.0436	0.0007	-0.0968	0.003	-5.2
-0.0698	-0.0135	-0.0623	0.0015	-5.1
-0.0188	-0.0038	-0.0195	0.0052	-5.2
0.027	0.0082	0.0165	0.006	-5
0.0015	0	0.045	0.0015	-5.1
-0.0368	0.006	0.0675	0.0045	-5.1
-0.0353	0.0097	0.0817	0.0015	-5.1
0.0082	0.0105	0.072	-0.0015	-5.2
0.024	0.0037	0.057	-0.0038	-5.2
0.042	-0.0008	0.0435	-0.0091	-5.1
0.0285	-0.0023	0.0322	-0.0075	-5.3
-0.0346	-0.0068	0.0195	-0.0113	-5.2
-0.0518	0	0.009	-0.0105	-5.4
-0.0436	0.0037	-0.0143	-0.0143	-5.3
-0.0263	-0.0008	-0.0436	-0.0181	-5.4
-0.0346	-0.0075	-0.0428	-0.0233	-5.1
-0.0503	-0.0083	-0.042	-0.0256	-5.1
-0.0555	-0.0143	-0.054	-0.021	-5.4
-0.0323	-0.0248	-0.0833	-0.0173	-5
0.0352	-0.0128	-0.0968	-0.0046	-5.4
0.0802	0.0052	-0.057	0.0022	-5.1
0.0975	0.0105	-0.0293	0.0052	-5.2
0.078	0.0322	0.0112	0.0165	-5.2
0.051	0.0307	0.033	0.0067	-5.3
0.0217	-0.0053	-0.0068	-0.0068	-5.4
-0.0675	-0.0105	0.012	-0.0046	-5
-0.1358	-0.0143	0.06	-0.0046	-5.1
-0.105	-0.0128	0.0817	-0.0008	-5.2
-0.0346	-0.0015	0.072	0.0007	-5.2
0.0517	-0.0008	0.0532	0.0015	-5.3
0.0915	0.0052	0.039	0.003	-5
0.0607	0.0015	0.0382	0.003	-5.3
0.0495	-0.006	0.063	0.0045	-5.2
0.0337	-0.0008	0.0502	0.0037	-5.4
0.0052	0.0052	0.0202	0.0052	-5.2
-0.0068	0.009	-0.0143	0.0052	-5.4
-0.021	0.0067	-0.0405	0.003	-5.4
-0.033	0	-0.06	0.0007	-5.1
-0.03	-0.0008	-0.0856	-0.0015	-5.4
-0.0263	0.003	-0.0938	-0.0008	-5.3
-0.0181	0.003	-0.0721	-0.0023	-5.3
-0.0008	-0.0046	0.009	-0.0053	-5.1
-0.0098	-0.0143	0.0712	-0.0113	-5.2
-0.0195	-0.0256	0.0727	-0.015	-5.2
-0.0015	-0.033	0.0442	-0.0135	-5.2
0.0112	-0.0248	-0.0098	-0.0098	-5.4
0.0232	-0.0128	-0.0203	0.0007	-5.3
0.0195	-0.0083	-0.0083	0.0037	-5.4
0	-0.0068	-0.033	0.0052	-5.3
-0.0008	0.0142	-0.0315	0.0142	-5.4
0.0202	0.0232	0.0082	0.018	-5.4
0.0345	0.0105	0.0202	0.0157	-5.3
0.0352	0.0157	-0.006	0.0112	-5.4
0.0172	0.012	-0.0158	0.0037	-5.4
-0.0256	-0.0008	-0.0158	-0.0023	-5.4
-0.0555	-0.0128	-0.0315	-0.0105	-5.3
-0.1065	-0.0181	-0.0128	-0.0113	-5.1
-0.117	-0.0068	0.0022	-0.003	-5.4
-0.0495	0.0045	0.0112	-0.0008	-5.2
0.0352	0.0007	0.0172	0.0007	-5.4
0.1005	-0.003	0.0217	0.003	-5.4
0.1177	-0.0008	0.018	0.0045	-5.4
0.1192	0.0082	-0.045	0.0045	-5.4
0.1125	0.027	-0.0578	0.003	-5.4
0.0637	0.024	-0.027	-0.003	-5.4
-0.0285	0.0037	-0.0105	-0.0105	-5.2
-0.0803	-0.0015	0.027	-0.0091	-5.5
-0.0511	-0.0128	0.0367	-0.0143	-5.2
-0.0443	-0.0233	-0.003	-0.0181	-5.6
-0.078	-0.027	-0.0593	-0.0158	-5.4
-0.054	-0.0135	-0.0555	-0.0015	-5.4
0	0.0112	-0.0165	0.012	-5.4
0.0165	0.0037	0.0007	0.0082	-5.4
0.0105	-0.012	0.0067	0.0015	-5.5
-0.0233	0	0.0277	0.0045	-5.4
-0.0465	0.0127	0.0577	0.0082	-5.5
-0.027	0.0105	0.0652	0.0075	-5.3
0.0195	0.0247	0.0562	0.0142	-5.4
0.0562	0.0345	0.0202	0.0157	-5.4
0.0517	0.018	-0.0053	0.0142	-5.3
0.03	0.0112	0.0052	0.0157	-5.4
0.0112	0.0015	-0.006	0.009	-5.4
-0.0233	-0.0083	-0.0256	0.0052	-5.5
-0.0405	-0.0091	-0.039	0.0015	-5.4
-0.0353	-0.0128	-0.0465	-0.0023	-5.4
-0.039	-0.0038	-0.033	0.0007	-5.5
-0.027	0.0045	-0.0068	0.0037	-5.4
-0.0278	-0.0128	0.027	0.0052	-5.4
-0.0338	-0.0173	0.039	0.0052	-5.4
-0.0008	-0.0158	0.006	0.0015	-5.5
0	-0.0195	-0.0346	0.003	-5.4
-0.0083	-0.0023	-0.0398	0.012	-5.5
0.0052	0.0082	-0.0256	0.0165	-5.5
0.0352	0.0135	-0.0158	0.0172	-5.4
0.0435	0.0127	-0.0233	0.0157	-5.6
0.027	0.0045	-0.003	0.012	-5.3
0.027	-0.0015	0.0067	0.0075	-5.6
0.0105	-0.0075	-0.015	0.003	-5.4
0.0015	-0.0068	-0.0143	0.0015	-5.3
-0.0008	-0.0046	-0.0046	0.0015	-5.4
0.0007	0.0105	0.0037	0.0045	-5.2
0.009	0.0127	0.0052	0.0037	-5.4
0.0165	-0.0053	0.0382	-0.0008	-5.3
0.0322	-0.0091	0.0615	-0.0008	-5.3
0.0292	-0.0105	0.0217	-0.003	-5.4
0.027	-0.0083	-0.0143	0.0007	-5.4
0.0157	0	-0.0293	0.0067	-5.6
0.0075	-0.003	0.0015	0.0082	-5.2
0.0217	-0.003	0.0202	0.0067	-5.4
-0.0113	-0.0091	-0.0113	0.003	-5.2
-0.0728	-0.0135	-0.0068	0.0015	-5.5
-0.0518	-0.0015	0.0022	0.0052	-5.2
0.0142	0.0015	0.0067	0.0015	-5.4
0.027	-0.003	0.012	0.0015	-5.4
0.039	-0.0015	0.0255	0.0052	-5.3
0.0232	0.0037	0.0457	0.003	-5.4
-0.042	0.0082	0.0292	0.0052	-5.3
-0.0278	0.0127	0.0232	0.006	-5.2
-0.0015	0.0015	0.0202	0.0007	-5.1
0.0045	0.0052	-0.003	0.0052	-5.4
0.0157	0.0127	-0.0165	0.0067	-5.4
0.0022	0.0052	0.0045	0.0052	-5.1
0.0127	0.006	0.0225	0.0052	-5.3
0.0127	-0.0015	-0.0075	0.0015	-5.2
0.0022	-0.0075	-0.0128	0.0007	-5.4
-0.0098	-0.0158	-0.0195	-0.0046	-5.2
-0.0405	-0.024	-0.033	-0.0091	-5.4
-0.0706	-0.0165	-0.0308	-0.0075	-5.4
-0.0765	-0.003	-0.0563	0.0015	-5.3
-0.0338	-0.0023	-0.06	0.0052	-5.4
-0.0068	-0.0068	0.0187	0.009	-5
-0.0091	0.0052	0.0975	0.0127	-5.3
-0.0165	0.0052	0.06	0.0082	-5.1
-0.0173	-0.0113	-0.0165	0.0015	-5.4
0.0217	-0.006	-0.0488	0.0022	-5.2
0.0652	0.0157	-0.06	0.0052	-5.2
0.0915	0.0292	-0.045	0.0082	-5.1
0.105	0.0262	-0.0353	0.0067	-5.3
0.0615	0.0105	-0.0278	0.0067	-5.1
0.0187	0.0022	-0.003	0.0127	-5.3
0.0157	0.0015	0.0232	0.0217	-5.1
-0.0083	-0.003	0.0127	0.0232	-5.4
-0.0368	-0.0046	-0.0203	0.018	-5.1
-0.0428	-0.003	-0.0158	0.0202	-5.4
-0.0293	-0.0068	-0.0008	0.0217	-5.2
-0.054	-0.021	-0.0068	0.0127	-5.4
-0.111	-0.021	-0.027	0.0082	-5.1
-0.0743	-0.0113	-0.0465	0.0082	-5.3
0.0232	-0.0015	-0.0308	0.0082	-5.3
0.0855	0.0202	0.0442	0.0127	-5.1
0.111	0.0157	0.1095	0.0067	-5.3
0.075	0.0037	0.1005	-0.0008	-5.4
0.0345	0.0022	0.063	-0.0023	-5.3
0.0247	-0.003	0.0367	-0.0053	-5.4
0.0075	0.0037	0.0292	-0.0046	-5.2
-0.0023	0.0045	0.0195	-0.0091	-5.2
-0.015	-0.0015	-0.0008	-0.0143	-5.2
-0.0195	-0.0053	-0.0091	-0.0143	-5.4
-0.0256	-0.0128	-0.0083	-0.0188	-5.3
-0.0368	-0.0181	-0.0181	-0.021	-5.4
-0.0593	-0.012	-0.0256	-0.0181	-5.3
-0.0803	0.0007	-0.0308	-0.0098	-5.3
-0.0608	-0.003	-0.0405	-0.0038	-5.4
-0.0488	-0.0038	-0.0338	-0.0023	-5.1
-0.0143	-0.003	-0.0083	-0.0053	-5.4
0.0195	-0.0098	0.0097	-0.0083	-5.3
0.0322	-0.0008	0.015	-0.0046	-5.4
0.033	0.0082	0.0067	-0.003	-5.3
0.0135	0.0127	-0.0105	-0.0008	-5.5
0.0247	0.0157	-0.0218	0	-5.4
0.0217	0.012	-0.0143	-0.0008	-5.4
-0.0083	0.0097	0.0187	-0.0008	-5.3
-0.0091	0.0045	0.0292	-0.0008	-5.3
0.0127	-0.0023	0.0195	0	-5.4
-0.0008	-0.015	0.0172	-0.0008	-5.4
-0.0413	-0.0233	-0.0173	-0.0038	-5.3
-0.0795	-0.0158	-0.042	-0.003	-5.4
-0.0788	-0.0038	-0.0368	0.0015	-5.2
-0.0443	0.0037	-0.0353	0.0075	-5.6
-0.033	0.006	-0.0188	0.0105	-5.3
-0.0188	0.0142	0.0037	0.0127	-5.4
0.003	0.0135	0.009	0.0112	-5.3
0.0315	0.0015	-0.0038	0.0105	-5.4
0.0765	-0.003	-0.003	0.0135	-5.4
0.123	-0.012	0.0217	0.0067	-5.3
0.1365	-0.0105	0.03	0.0067	-5.4
0.0727	-0.0053	0.0187	0.0105	-5.4
0.003	0.003	0.0052	0.0135	-5.4
-0.039	0.0105	-0.0165	0.0165	-5.6
-0.057	0.0105	-0.0405	0.0157	-5.3
-0.048	0.027	-0.0368	0.0187	-5.4
-0.0218	0.0232	-0.0023	0.015	-5.4
0.012	-0.0046	0.0652	0.0075	-5.3
0.0202	-0.0098	0.1065	0.0007	-5.3
0.012	-0.0195	0.0502	-0.0075	-5.4
-0.0046	-0.0308	-0.0068	-0.0068	-5.4
-0.003	-0.0135	-0.0165	-0.003	-5.3
0.0007	0.0127	-0.015	0.0015	-5.4
0.0187	0.0247	-0.0113	0.0045	-5.4
0.039	0.0127	-0.012	0.0015	-5.2
0.018	0.006	0.0015	0.0022	-5.4
0.0015	-0.0008	-0.006	0	-5.1
-0.0091	-0.0068	-0.027	-0.0046	-5.4
-0.0173	-0.0083	-0.0353	-0.0075	-5.2
-0.0256	-0.0113	-0.0308	-0.0068	-5.4
-0.0323	-0.0158	-0.024	-0.0053	-5.1
-0.0353	-0.024	-0.0195	-0.0046	-5.3
-0.0203	-0.0165	-0.0083	0.0067	-5.3
0.0195	-0.0038	0.0082	0.0112	-5.2
0.0502	0.003	0.0217	0.0127	-5.4
0.0487	0.0045	0.009	0.0127	-5
0.033	0.0007	0.006	0.0067	-5.4
0.0232	0.0007	0.0195	0.0067	-5
0.0142	0.0007	0.0247	0.0037	-5.2
-0.003	0.0045	0.0202	0.0045	-5.2
-0.0023	0.009	0.0015	0.0045	-5.4
0.0127	0.0082	-0.0256	0.003	-5.3
0.009	0.0037	-0.0346	0.0045	-5.1
0.0075	-0.0091	-0.0195	-0.0008	-5.4
-0.0068	-0.0143	-0.0038	-0.0015	-5
-0.0518	-0.0075	0.0007	0	-5.2
-0.0518	0.0015	0.0007	0.0045	-5.1
-0.0225	0.0127	0.012	0.009	-5.1
-0.0068	0.0105	-0.0075	0.0007	-5.3
-0.0015	-0.006	-0.0443	-0.0105	-5.1
-0.0181	-0.0165	-0.0615	-0.0165	-5.3
-0.033	-0.0278	-0.0706	-0.0158	-5.1
-0.0721	-0.0285	-0.0465	-0.0068	-5.3
-0.0668	-0.0053	-0.0091	0.0112	-5
0.0082	0.018	0.0105	0.0225	-5
0.0405	0.0217	0.0322	0.0142	-5.1
0.0457	0.0127	0.0547	0.0052	-5.2
0.0397	0.0105	0.0577	-0.0015	-5.3
0.0405	0.0067	0.0615	-0.0105	-5
0.0442	0.0007	0.0427	-0.012	-5
0.0367	0.0037	0.021	-0.012	-5.1
0.0367	0.0082	0.0022	-0.0128	-5.2
0.024	-0.0046	-0.0398	-0.0158	-5.4
-0.0128	-0.0091	-0.0518	-0.0105	-5
-0.0608	-0.0083	-0.033	-0.0053	-5.2
-0.0788	-0.015	0.0022	-0.0075	-5.1
-0.0833	-0.0128	0.012	-0.0046	-5.1
-0.0668	-0.0015	0.0015	0.0022	-5.1
-0.0068	0.0105	0.042	0.0052	-5.1
0.0255	0.0142	0.0562	0.0022	-5.3
0.0307	0.012	0.0277	-0.0008	-5.2
0.0645	0.009	0.0097	-0.0015	-5.1
0.078	0.0075	-0.0105	-0.0068	-5.4
0.0532	0.006	-0.0225	-0.0068	-5.3
-0.0173	0.0015	-0.0346	-0.0075	-5.3
-0.0683	-0.0128	-0.0413	-0.012	-5.1
-0.0638	-0.027	-0.0315	-0.0113	-5.4
-0.0878	-0.0308	-0.0135	-0.0091	-5.1
-0.1043	-0.0383	-0.0068	-0.0083	-5.4
-0.0953	-0.0315	-0.0405	-0.0046	-5.1
-0.0436	0.0082	-0.0346	0.0082	-5.4
0.0495	0.0427	0.0345	0.0157	-5.3
0.1117	0.0405	0.0532	0.0142	-5.1
0.1162	0.0367	0.0427	0.0097	-5.3
0.0787	0.0195	0.0367	0.0007	-5.2
0.0345	-0.0046	0.0337	-0.0075	-5.2
0.0045	-0.0083	0.033	-0.0068	-5.2
-0.0135	-0.0053	0.0165	-0.0046	-5.4
-0.003	-0.0053	-0.0075	-0.0046	-5.4
0.0202	-0.003	-0.0158	-0.0008	-5.2
0.0315	0.0105	0.0127	0	-5.3
0.0352	0.0075	0.009	-0.0046	-5.2
0.0255	-0.0008	-0.0128	-0.0075	-5.3
0.0195	0	-0.0188	-0.0098	-5.4
0.0105	0.003	-0.0256	-0.0075	-5.4
-0.0165	0.0052	-0.0218	0	-5.5
-0.0443	-0.0023	-0.027	0	-5.2
-0.06	-0.0195	-0.0091	-0.003	-5.4
-0.0518	-0.0233	0.0442	-0.0008	-5.2
-0.0278	-0.0083	0.0667	0.0045	-5.4
-0.021	-0.0091	0.012	0.0022	-5.3
-0.0285	-0.0195	-0.024	0	-5.4
-0.0248	-0.0113	-0.0113	0.0045	-5.2
-0.0083	0.0112	-0.0165	0.0082	-5.3
0.0157	0.018	-0.0015	0.0067	-5.3
0.0195	0.0022	0.006	0.0022	-5.4
0.0165	-0.0068	-0.006	-0.0015	-5.4
0.0315	-0.0068	0.0135	-0.0038	-5.4
0.0217	-0.0091	0.0165	-0.0038	-5.2
-0.012	0.0105	0.009	0.006	-5.4
-0.0368	0.0187	0.0022	0.0097	-5.3
-0.0368	0.0082	-0.0203	0.0127	-5.5
-0.0233	0.009	-0.0203	0.018	-5.4
-0.0038	0.0127	-0.0046	0.0165	-5.3
0.0255	0.0052	-0.0068	0.0127	-5.4
0.036	-0.0068	-0.0143	0.009	-5.4
0.039	-0.006	-0.0083	0.0067	-5.4
0.0405	-0.006	-0.0038	0.003	-5.4
0.0435	-0.0023	-0.0083	0.0045	-5.4
0.0427	0.0022	-0.0135	0.0015	-5.4
0.027	0.003	-0.0091	0.0007	-5.4
0.0195	0.0082	-0.0091	0.0007	-5.4
0.0067	0.0075	-0.0113	-0.0015	-5.4
0.0105	0.0067	-0.0083	0.0015	-5.5
0.0202	-0.0008	-0.0128	0.0007	-5.3
0.009	-0.0091	-0.0143	0	-5.4
-0.0068	-0.0143	-0.0068	0.0067	-5.2
-0.0113	-0.0143	0.0127	0.0067	-5.4
-0.0113	-0.0173	0.009	0.0022	-5.4
-0.0668	-0.024	-0.0218	-0.0015	-5.3
-0.126	-0.0181	-0.0353	0.0015	-5.4
-0.0713	-0.0091	-0.0135	0.009	-5.3
0.0142	0.0007	0.0157	0.0135	-5.4
0.0405	0.003	0.0075	0.0135	-5.4
0.057	0.0045	0.0022	0.0135	-5.4
0.0555	0.006	0.0075	0.012	-5.4
0.0202	0.0082	0	0.0105	-5.4
0.0067	0.009	-0.0008	0.0067	-5.4
0.0142	0.0052	-0.0008	0.0045	-5.3
0.0015	0.0052	0.009	0.0007	-5.3
-0.0143	0	0.0127	-0.0015	-5.2
-0.03	-0.0008	0.0105	-0.0008	-5.3
-0.0533	-0.003	-0.003	-0.0008	-5.4
-0.048	-0.0038	-0.0293	0.003	-5.3
-0.0181	-0.0015	-0.0353	0.0067	-5.5
0.0045	0	-0.0308	0.0075	-5.2
0.0157	0.0022	-0.0353	0.009	-5.4
0.0292	0.0045	-0.0458	0.0105	-5
0.0345	0.003	-0.0278	0.012	-5.4
0.0255	-0.0046	0.0007	0.0067	-5.3
0.0307	-0.012	0.0052	-0.0008	-5.4
0.0082	-0.0181	0.0037	-0.003	-5.4
-0.0158	-0.0165	0.0165	-0.0038	-5.2
0.0045	-0.0046	0.0345	0.003	-5.2
0.0127	0.0255	0.0592	0.0082	-5.4
0.0157	0.027	0.0697	0.0082	-5.1
-0.0015	0.0157	0.0277	0.0067	-5.4
-0.0555	0.0105	-0.0046	0.0007	-5.2
-0.1125	-0.003	-0.0181	-0.0053	-5.3
-0.09	-0.0053	-0.0225	-0.0075	-5.4
-0.0361	-0.0128	-0.0188	-0.0105	-5.4
0.0135	-0.0113	-0.0315	-0.0113	-5.3
0.0525	0.0007	-0.027	-0.0091	-5.2
0.033	0.009	0.012	-0.0023	-5.4
0.042	0.012	0.0577	0.0037	-5.2
0.045	0.009	0.0517	0.0015	-5.4
0.042	0.0052	0.0195	0.0007	-5.1
0.048	0.0045	0.0165	0.0045	-5.3
0.0195	0.0015	0.0195	-0.0023	-5.3
-0.0158	-0.012	0.024	-0.0128	-5.1
-0.0668	-0.0218	0.0015	-0.0188	-5.3
-0.0975	-0.0293	-0.0046	-0.0181	-5.1
-0.0758	-0.0256	0.0225	-0.0075	-5.4
-0.0091	-0.0015	0.0165	0.0037	-5.1
0.048	0.0195	-0.0008	0.0082	-5.3
0.0532	0.0135	-0.0091	0.0067	-5.4
0.039	0.0075	-0.0165	0.003	-5.3
0.0367	0.0105	-0.0195	0	-5.4
0.027	0.0045	-0.0046	-0.0015	-5.2
0.0127	0.0052	0.003	-0.0023	-5.5
-0.0098	0.0007	-0.0218	-0.0075	-5.3
-0.0293	-0.0046	-0.0413	-0.0068	-5.4
-0.0293	0	-0.0353	-0.0046	-5.3
-0.0233	0.0037	0.0052	0.0007	-5.3
0.0037	0.0067	0.0262	0.0045	-5.2
0.0045	-0.003	0.0157	-0.0015	-5.4
-0.0293	-0.015	0.0082	-0.0053	-5.3
-0.039	-0.012	-0.0181	-0.0008	-5.4
-0.0068	0.0015	-0.0225	0.0045	-5.3
0.0277	-0.0008	-0.0128	0.0045	-5.4
0.0217	-0.0008	-0.0203	0.0052	-5.3
0.0007	0.0082	-0.0308	0.0097	-5.3
-0.0181	0.003	-0.0233	0.003	-5.4
-0.0098	-0.0075	-0.003	0.0007	-5.4
0.027	-0.0068	0.0352	0.0007	-5.2
0.0457	-0.003	0.06	-0.0015	-5.4
0.0405	-0.0008	0.0292	-0.0008	-5.3
0.048	0.0015	0.0052	-0.0038	-5.3
0.039	0	0.0157	-0.0023	-5.3
0.018	0.0007	0.0285	-0.0015	-5.3
0.015	0.0007	0.0307	-0.003	-5.4
0	0	0.0045	-0.0046	-5.4
-0.0181	0.003	-0.0135	-0.0038	-5.3
-0.0323	0.0052	-0.0188	-0.0008	-5.4
-0.03	0.0052	-0.0158	0.0015	-5.3
-0.0113	0.0007	-0.0046	0.003	-5.6
-0.0068	-0.003	0.0052	0.0015	-5.1
-0.0128	-0.0038	0.0142	0.0015	-5.4
-0.0256	-0.0008	-0.021	0.0037	-5.4
-0.0113	0.0015	-0.0503	0.0052	-5.4
-0.0023	-0.0023	-0.0436	0.0045	-5.3
-0.0173	-0.0068	-0.033	0.0007	-5.3
0.0015	0.0007	-0.012	0.003	-5.4
0.012	0.0052	0.0015	0.0037	-5.4
0.0052	0.0015	0.0315	0.0007	-5.5
-0.0046	-0.0053	0.0435	-0.0038	-5.4
-0.0338	-0.0188	0.0105	-0.0105	-5.3
-0.054	-0.024	-0.0046	-0.0128	-5.4
-0.0458	-0.027	-0.0143	-0.0128	-5.3
-0.0181	-0.0203	-0.0278	-0.0105	-5.4
-0.0105	0.0007	-0.0256	-0.0023	-5.4
-0.0053	0.012	-0.006	0.0045	-5.4
-0.0023	0.0097	0.0195	0.0075	-5.3
0.0112	0.0067	0.0097	0.0045	-5.3
0.0307	0.0067	-0.0181	0.0022	-5.3
0.0517	0.0195	-0.0218	0.006	-5.4
0.0622	0.0157	-0.006	0.003	-5.4
0.0292	0.0045	-0.003	-0.0015	-5.4
0.0007	0.003	-0.0105	-0.0015	-5.4
-0.0353	-0.0015	-0.0068	-0.0023	-5.4
-0.0315	-0.0015	-0.0046	0.0007	-5.6
-0.0143	0.0022	0.0015	0.0015	-5.4
-0.0008	0.006	-0.0008	0.003	-5.4
0.0345	0.003	-0.0068	0.0015	-5.3
-0.003	-0.0038	-0.0015	-0.0023	-5.4
-0.0315	-0.0105	-0.0083	0.0015	-5.4
-0.0008	-0.0008	-0.0128	0.006	-5.4
0.009	0.0052	-0.012	0.0067	-5.3
0.0247	-0.0023	-0.0256	0.0075	-5.4
0.042	-0.0008	-0.039	0.0015	-5.3
0.024	-0.0068	-0.0315	-0.0053	-5.6
0.012	-0.0105	-0.0083	-0.0053	-5.2
0.003	-0.0075	0.0345	-0.0008	-5.4
0.0022	-0.0053	0.0645	-0.0008	-5.3
0.0187	0.003	0.0592	0.003	-5.4
0.018	0.0067	0.051	0.0037	-5.4
0.0097	0.0075	0.0315	0.0052	-5.2
0.0067	0.006	0.009	0.0045	-5.4
0.0075	0.0045	0.003	-0.0023	-5.4
0.0127	0.0015	-0.0068	-0.003	-5.4
0.009	-0.006	-0.012	-0.003	-5.5
0.0067	-0.0083	-0.0068	-0.003	-5.2
-0.0091	-0.0053	-0.0015	-0.0015	-5.4
-0.039	0.0007	0.0067	0.0015	-5.1
-0.0585	0.0082	-0.006	0.0052	-5.4
-0.0465	0.0022	-0.0143	0.003	-5.4
-0.0181	-0.0046	-0.0068	0.003	-5.4
-0.012	0.0007	-0.003	0.0045	-5.2
-0.0046	0.0045	-0.0068	0.0015	-5.3
0.009	0.0052	-0.0181	-0.0015	-5.4
0.0165	0.0045	-0.0218	-0.0015	-5.3
0.021	0.0082	-0.015	0	-5.4
0.0135	0.012	-0.0098	-0.0015	-5.1
0.0015	-0.006	-0.0046	-0.0068	-5.2
-0.027	-0.0256	-0.0046	-0.0091	-5.4
-0.0706	-0.0315	-0.006	-0.003	-5.3
-0.0668	-0.0165	0.015	0.0037	-5.4
-0.0091	0.0105	0.039	0.0105	-5.3
0.0307	0.0157	0.0352	0.0105	-5.4
0.027	0.0007	0.0315	0.0022	-5.3
0.0187	-0.0091	0.0315	-0.0008	-5.3
0.0097	-0.0113	0.0165	-0.003	-5.4
-0.0158	-0.0143	0.0015	-0.0046	-5.1
-0.0218	-0.0083	-0.0143	0.0015	-5.6
0	0.0045	-0.0278	0.0052	-5.3
0.0405	0.0067	-0.0315	0.0052	-5.5
0.0592	0.0052	-0.012	0.0052	-5.2
0.0375	0.0045	0.0157	0.0037	-5.4
0.0187	0.0015	0.0105	0.0015	-5.3
0.015	-0.0008	0	-0.0023	-5.3
0.0105	-0.0053	-0.003	-0.0046	-5.2
-0.0075	-0.0075	-0.003	-0.0053	-5.2
-0.0203	-0.003	0.0045	-0.0008	-5.2
-0.0165	0.0022	0.0165	0.0015	-5.4
-0.0158	0.0045	0.0082	-0.0015	-5.2
-0.0293	-0.0053	-0.0218	-0.0015	-5.5
-0.0203	-0.0083	-0.0346	-0.0008	-5.1
0.0045	0.0105	-0.0278	0.0052	-5.4
0.0105	0.0292	-0.0128	0.009	-5.2
-0.003	0.0142	0.0022	0.0037	-5.4
-0.0098	0.0015	0.0135	0.0052	-5.4
0.003	0.0037	0.024	0.0045	-5.4
0.009	-0.0113	0.0217	-0.0008	-5.4
-0.0068	-0.0143	0.0045	-0.0015	-5.3
-0.03	-0.0181	-0.024	-0.0046	-5.4
-0.0285	-0.0128	-0.054	0.003	-5.3
0.0067	0.0172	-0.0443	0.0142	-5.4
0.0435	0.0292	-0.0015	0.015	-5.4
0.042	0.0142	0.0187	0.0075	-5.3
0.0142	0.0007	0.0142	0.0015	-5.4
0.0007	-0.0038	0.0045	0.0007	-5.3
0.0142	0.0007	-0.012	0	-5.5
0.033	0.0052	-0.0091	0	-5.3
0.0315	0.0052	-0.0135	-0.0008	-5.4
0.0292	0.003	-0.0315	-0.0038	-5.3
0.003	-0.0068	-0.0173	-0.0098	-5.2
-0.0285	-0.0173	0.0277	-0.0128	-5.4
-0.0638	-0.024	0.018	-0.0091	-5.4
-0.117	-0.0218	-0.0195	-0.0046	-5.4
-0.1148	-0.0098	-0.0181	0.0015	-5.3
-0.0525	0	0.0157	0.0082	-5.4
0.018	0.006	0.06	0.0082	-5.3
0.0345	0.003	0.033	0.0082	-5.3
0.0307	0	-0.0181	0.0052	-5.3
0.042	0.0007	-0.0128	0.003	-5.4
0.0367	0.0022	0.018	-0.0008	-5.4
0.0307	0.0052	0.0285	-0.0046	-5.3
0.0135	0.0067	0.0075	-0.0038	-5.2
-0.0075	0.009	-0.0023	-0.0046	-5.4
-0.0218	-0.0008	-0.0023	-0.0098	-5.2
-0.0263	-0.0128	-0.012	-0.012	-5.4
-0.0383	-0.0113	-0.006	-0.0015	-5
-0.0398	0.0015	0.003	0.009	-5.4
-0.0015	0.0112	0.0277	0.0105	-5
0.0367	0.0142	0.0427	0.0097	-5.3
0.069	0.0157	0.0097	0.0045	-5.3
0.0712	0.0052	-0.0143	-0.0046	-5.2
0.0547	-0.0068	-0.0203	-0.0083	-5.3
0.0457	-0.0165	-0.0428	-0.012	-5.4
0.018	-0.024	-0.0518	-0.015	-5.3
-0.033	-0.0225	-0.0368	-0.0105	-5.3
-0.0788	-0.0181	-0.0278	-0.0046	-5.2
-0.057	-0.0113	-0.0308	0.0015	-5.4
0.018	0.0007	-0.0353	0.0015	-5.3
0.051	0.0097	0.0157	0.0037	-5.4
0.0472	0.0142	0.0705	0.0067	-5.2
0.039	0.0127	0.0367	0.0045	-5.4
0.0217	0.0075	-0.0015	0.003	-5.3
0.0127	0.0022	-0.0068	-0.0015	-5.3
0.0045	0.0007	-0.0015	-0.0015	-5.4
0.003	0.0045	0.0045	0.0007	-5.3
0.0015	0.0022	0.0067	-0.0015	-5.4
0.0067	-0.0015	0.0135	-0.003	-5.2
0.006	0.0007	0.0082	-0.003	-5.3
-0.0218	0.0007	-0.0008	-0.0008	-5.2
-0.0458	-0.003	-0.0075	-0.003	-5.3
-0.0353	-0.0053	-0.0105	-0.0046	-5.4
-0.03	-0.0075	-0.0008	-0.0038	-5.1
-0.054	-0.0113	-0.003	-0.006	-5.3
-0.0585	-0.0128	-0.012	-0.003	-5.2
-0.0278	-0.0038	-0.003	0.0045	-5.3
0.012	0.0142	0.0015	0.009	-5.4
0.0367	0.0135	-0.0158	0.0075	-5.4
0.0307	0.0045	-0.0105	0.0052	-5.4
-0.003	0.0112	-0.0015	0.0082	-5
-0.0083	0.0052	-0.0113	0.0052	-5.4
0.0165	0	-0.0083	0.003	-5.2
0.0142	-0.0008	-0.0068	-0.003	-5.4
0.0007	-0.0068	-0.003	-0.0068	-5.1
-0.0158	-0.006	0.0082	-0.0053	-5.2
-0.039	-0.0091	0.0105	-0.0053	-5.4
-0.0368	-0.0105	0.0067	0.0007	-5.3
-0.0105	-0.0053	-0.0128	0.0045	-5.2
0.0105	0.0007	-0.0135	0.0015	-5.2
0.0427	-0.0083	0.009	-0.0053	-5.3
0.0367	-0.0195	0.0217	-0.0091	-5.3
-0.0135	-0.0135	0.039	-0.0015	-5.2
0.0015	0.0112	0.063	0.0082	-5.3
0.048	0.033	0.066	0.0097	-5.4
0.0577	0.0232	0.0277	0.0052	-5.4
0.0502	0.0067	0.0007	0.0007	-5.3
0.0157	-0.003	-0.0195	-0.0046	-5.4
-0.003	-0.0083	-0.0503	-0.0038	-5.4
-0.0075	-0.0053	-0.054	-0.003	-5.3
-0.0308	-0.0158	-0.048	-0.0023	-5.4
-0.0555	-0.0053	-0.0143	0.0082	-5.3
-0.0848	0.0105	0.021	0.0142	-5.3
-0.0788	0.003	0.033	0.0142	-5.2
-0.0555	0.0067	0.0345	0.0112	-5.3
-0.03	-0.006	0.0045	0.0007	-5.4
0.0127	-0.0165	-0.0143	-0.0023	-5.2
0.0465	0.0022	-0.0195	0.0007	-5.4
0.063	0.0097	-0.003	-0.003	-5.3
0.054	0.0067	0.0127	-0.0046	-5.4
0.033	0.009	-0.0015	-0.0023	-5.3
0.0217	0.009	-0.0038	-0.0053	-5.2
0.0097	-0.003	-0.0015	-0.0083	-5.4
-0.003	-0.0105	-0.0105	-0.0083	-5.3
-0.0083	-0.0143	-0.0285	-0.0046	-5.4
0.0022	-0.0105	-0.0383	0.0015	-5
0.0232	-0.0008	-0.0278	0.0067	-5.3
0.0202	0.0045	-0.0015	0.006	-5.2
0.0067	0.0075	0.027	0.0067	-5.3
0	0.0127	0.0277	0.0067	-5.2
-0.0195	0.003	0.0315	0.0045	-5.4
-0.0308	-0.0083	0.0247	0	-5.4
-0.0091	-0.0068	0	0.0015	-5.1
0.0127	-0.0075	-0.0008	0	-5.4
-0.0128	-0.012	-0.0135	-0.0015	-5.4
-0.0511	-0.0091	-0.0218	0.0015	-5.4
-0.057	-0.0046	-0.0256	0.003	-5.4
-0.045	-0.012	-0.0368	0.003	-5.4
-0.024	-0.0113	-0.0293	0.0007	-5.4
0.0105	0.0037	-0.0105	-0.0015	-5.3
0.0382	0.0052	0.018	-0.0053	-5.3
0.0465	0.0015	0.042	-0.0075	-5.2
0.069	0.0045	0.0292	-0.0068	-5.3
0.0532	0.009	-0.0015	-0.0075	-5.4
-0.0053	0.0105	-0.0203	-0.0075	-5.4
-0.0405	0.006	-0.0308	-0.0068	-5.4
-0.06	0.0007	-0.0361	-0.0008	-5.4
-0.0706	-0.0075	-0.0346	0.0067	-5.4
-0.0488	-0.006	-0.0518	0.0157	-5.4
-0.0263	-0.0091	-0.0675	0.0232	-5.4
-0.0113	-0.0143	-0.0593	0.0217	-5.4
0.0457	-0.0008	-0.0278	0.0202	-5.3
0.0615	0.0067	0.0457	0.0142	-5.4
0.0375	0.0007	0.1012	0.0105	-5.3
0.0142	-0.0008	0.0915	0.0135	-5.4
-0.0068	-0.003	0.0705	0.0112	-5.4
0.0135	0.0007	0.0405	0.0142	-5.2
0.0322	0.003	0.0195	0.0172	-5.4
0.0517	0.0052	0.0157	0.0172	-5.2
0.0592	0.006	0.0007	0.0165	-5.3
0.0352	0.0015	-0.0053	0.0075	-5.4
0.0097	-0.0053	-0.0015	0.0007	-5.4
-0.0023	-0.012	-0.0068	-0.0038	-5.4
-0.0256	-0.0158	-0.006	-0.0046	-5.4
-0.063	-0.0105	0.0015	0.0007	-5.4
-0.0615	-0.0008	-0.006	0.0045	-5.3
-0.033	-0.0015	-0.027	0.0045	-5.5
0.0082	0	-0.0338	0.0082	-5.1
0.0307	0.0112	-0.0203	0.0127	-5.5
0.0157	0.0097	-0.0113	0.009	-5.3
0.0015	0.0037	-0.0098	0.0037	-5.4
-0.0113	0.006	0.009	-0.0015	-5.3
-0.0091	0.003	0.0315	-0.0068	-5.4
0.0127	-0.003	0.033	-0.0091	-5.5
0.024	-0.0068	0.0202	-0.012	-5.3
0.0142	-0.0113	0.0225	-0.0143	-5.4
-0.0165	-0.0091	0.024	-0.012	-5.4
-0.045	-0.003	0.0015	-0.0105	-5.5
-0.0518	-0.0008	-0.027	-0.0105	-5.4
-0.0428	0.0052	-0.0495	-0.0053	-5.3
-0.027	0.0105	-0.06	0.0022	-5.4
-0.0181	0.0105	-0.0503	0.0097	-5.4
0.0082	0.0127	-0.0233	0.009	-5.4
0.0315	0.0075	0.003	0.006	-5.4
0.0247	0.0045	0.0367	0.0052	-5.2
0.0217	0.0015	0.048	0	-5.4
0.0217	0.0007	0.0255	0.0045	-5.3
0.0292	0.0022	0.0142	0.0052	-5.4
0.024	-0.0015	0.009	0.0045	-5.2
0.0097	0	0.009	0.012	-5.3
0.0067	-0.0008	0.006	0.0127	-5.3
0.0007	-0.0015	-0.0046	0.009	-5.3
-0.0128	0	-0.0195	0.0052	-5.3
-0.0256	-0.0023	-0.0315	0.003	-5.4
-0.006	-0.0008	-0.027	0.0007	-5.2
0.0187	0.003	-0.0256	-0.003	-5.4
0.0315	0.0007	-0.0248	-0.003	-5.4
0.0232	0.0015	-0.0075	-0.003	-5.4
-0.048	0.0015	0.0082	-0.0091	-5.2
-0.0938	-0.0143	0.0045	-0.0195	-5.4
-0.0706	-0.0248	-0.0165	-0.0225	-5.2
-0.066	-0.0315	-0.027	-0.0233	-5.5
-0.0428	-0.0248	-0.0158	-0.0143	-5.2
0.0022	0.0052	-0.0143	-0.0075	-5.5
0.0165	0.024	-0.027	-0.0068	-5.4
0.0427	0.0247	-0.0046	-0.003	-5.2
0.057	0.0165	0.0517	-0.0068	-5.4
0.054	0.0067	0.0645	-0.012	-5.4
0.054	0.0045	0.0405	-0.0128	-5.3
0.0465	0.0022	0.018	-0.0143	-5.4
0.0292	0	0.0135	-0.0158	-5.4
0.0165	-0.0015	0.0232	-0.0173	-5.3
0.0082	-0.0008	0.015	-0.0173	-5.3
-0.0053	0.0007	0.0045	-0.0173	-5.4
-0.0023	0.0015	0.003	-0.0181	-5.4
0.003	-0.0008	0.0007	-0.0165	-5.4
0.006	-0.0015	-0.0015	-0.0143	-5.4
0.0105	-0.003	-0.012	-0.012	-5.4
0.0045	-0.0075	-0.0195	-0.0105	-5.4
0.0052	-0.0128	-0.0091	-0.0105	-5.2
-0.006	-0.0143	-0.0008	-0.0091	-5.4
-0.0405	-0.0128	-0.0038	-0.0083	-5.2
-0.0405	-0.0053	-0.0015	-0.003	-5.4
-0.0091	0.0067	-0.012	0.0007	-5.4
-0.0015	0.0127	-0.0158	0.0007	-5.5
0.015	0.0142	-0.027	0.0015	-5.4
0.0427	0.0105	-0.0413	-0.0008	-5.4
0.039	0.0052	-0.0165	-0.003	-5.4
-0.0015	-0.0008	0.003	-0.0015	-5.4
-0.057	-0.0098	0.012	-0.003	-5.4
-0.0721	-0.0233	0.012	-0.0038	-5.4
-0.0585	-0.0248	-0.015	-0.0008	-5.4
-0.0638	-0.0195	-0.0278	0.0015	-5.6
-0.0608	0	-0.0165	0.0105	-5.3
-0.0105	0.0247	0.0007	0.0195	-5.5
0.0367	0.021	0.0345	0.0142	-5.3
0.0367	0.0082	0.0607	0.0105	-5.4
0.0292	0.0045	0.063	0.006	-5.4
0.0202	0.012	0.048	0.0045	-5.3
0.006	0.0105	0.0277	0.0022	-5.4
0.0007	-0.003	0.0142	0	-5.4
-0.0023	0.0007	0.0105	0.0015	-5.4
-0.0083	-0.0023	0.006	0	-5.5
-0.0023	-0.0038	-0.0053	0.0015	-5.4
0.006	0.0007	-0.0203	0.0015	-5.6
0.0127	0.0052	-0.0233	0.003	-5.5
0.018	0.006	-0.033	0.003	-5.5
0.0135	-0.0008	-0.0495	-0.0015	-5.4
0.0075	-0.0068	-0.0346	-0.0015	-5.5
0.0067	-0.0158	-0.021	-0.003	-5.4
0.0105	-0.0218	-0.0046	-0.003	-5.4
0.0082	-0.0218	0.0195	-0.0038	-5.4
-0.0053	-0.0248	0.0037	-0.0053	-5.3
-0.0165	-0.0128	-0.021	0.0097	-5.5
-0.0046	0.0195	-0.0375	0.0225	-5.4
0.0127	0.0105	-0.024	0.0187	-5.5
0.012	-0.006	-0.0158	0.018	-5.4
-0.0046	-0.0046	-0.0233	0.0157	-5.4
-0.0308	-0.0128	-0.012	0.0075	-5.4
-0.0346	-0.0046	0.0142	0.0045	-5.4
0.0015	0.0075	0.0457	0.0052	-5.6
0.0232	0.0232	0.0465	0.0082	-5.4
0.0375	0.0225	0.0202	0.0052	-5.4
0.057	0.0045	0.0045	0.0015	-5.4
0.0562	0.0037	0.006	0.003	-5.4
0.033	0	0.012	0.003	-5.4
0.0015	-0.0038	0.0112	-0.0008	-5.3
-0.0068	-0.0075	0.0142	-0.003	-5.4
-0.0091	-0.0068	0.0112	-0.0015	-5.3
-0.0128	0.0015	-0.0075	0.0022	-5.5
-0.006	0.0007	-0.0203	0.0015	-5.3
0.012	-0.0008	-0.0113	0.0015	-5.4
0.027	-0.003	-0.0105	0.0037	-5.5
0.018	-0.0046	-0.0143	0.0022	-5.4
-0.0105	0.0015	-0.0091	0.0052	-5.2
-0.045	0.0052	-0.0015	0.0052	-5.2
-0.057	0.0037	0.0112	0.0052	-5.4
-0.0436	-0.0015	0.0067	0.0075	-5.4
-0.0308	-0.0015	-0.0195	0.0105	-5.3
-0.021	0.0045	-0.0308	0.012	-5.4
-0.0038	0.0022	-0.0038	0.0082	-5.2
0.0142	-0.003	0.0165	0.0015	-5.5
0.033	-0.0083	0.0217	0	-5.3
0.0472	-0.0053	0.018	0.0045	-5.4
-0.0015	0.0007	-0.0091	0.006	-5.4
-0.0353	-0.0008	-0.0203	0.0075	-5.3
-0.0165	-0.003	-0.0046	0.0067	-5.3
-0.012	-0.006	0.0067	0.0052	-5.3
0.0082	-0.0023	-0.0068	0.0082	-5.4
0	0	-0.012	0.0105	-5.4
0.003	-0.0053	-0.0015	0.009	-5.4
0.0225	-0.0046	-0.003	0.0075	-5.4
0.0277	-0.0038	-0.0113	0.0052	-5.2
0.0307	0.0015	-0.0128	0.0067	-5.4
0.0045	0.0067	-0.0143	0.0067	-5.3
-0.0436	0.009	-0.0158	0.0015	-5.4
-0.057	0.009	-0.0091	-0.0015	-5.2
-0.0308	0.0007	-0.0053	-0.0038	-5.4
-0.0128	-0.0053	-0.0128	-0.0046	-5.4
-0.0038	-0.0158	-0.0143	-0.006	-5.4
-0.033	-0.0165	0.0075	-0.0015	-5.4
-0.0638	-0.003	0.0202	0.006	-5.2
-0.048	-0.0038	-0.0083	0.0037	-5.4
-0.0083	-0.012	-0.0413	-0.0015	-5.4
0.018	-0.0068	-0.0503	-0.0038	-5.4
0.0345	0.003	-0.0368	-0.0015	-5.4
0.0487	0.0127	0.0022	0.0037	-5.4
0.0442	0.0157	0.0405	0.0007	-5.5
0.0465	0.012	0.0705	-0.003	-5.1
0.0427	0.0082	0.0667	-0.0038	-5.4
0.0315	0.009	0.0405	-0.0046	-5.2
0.0202	0.0112	0.0277	-0.0053	-5.4
0.0127	0.003	0.0165	-0.0053	-5.4
0.0187	0.0022	0.018	-0.0053	-5.1
0.0195	0.0007	0.0097	-0.0075	-5.4
0.0097	-0.0053	0.0045	-0.0083	-5.4
-0.003	-0.012	0.0067	-0.0105	-5.4
-0.0068	-0.0105	-0.0053	-0.0105	-5.3
-0.0165	0	-0.0315	-0.006	-5.5
-0.0555	-0.0038	-0.066	-0.0075	-5.3
-0.078	-0.0068	-0.0405	-0.0046	-5.4
-0.0346	-0.0046	0.0022	-0.003	-5.4
-0.0098	-0.0113	-0.0128	-0.006	-5.4
-0.0405	-0.0195	-0.042	-0.0015	-5.4
-0.0585	-0.0038	-0.024	0.0082	-5.4
-0.0285	0.0165	0.027	0.0105	-5.3
0.021	0.012	0.039	0.0045	-5.4
0.0495	0.0052	0.0127	0	-5.4
0.0517	0.0082	0.0097	-0.0038	-5.4
0.033	0.003	0.033	-0.006	-5.1
0.0127	-0.0015	0.0217	-0.0068	-5.4
0.0052	-0.0046	0.0157	-0.0046	-5.3
-0.0046	0.003	0.012	0.0022	-5.5
-0.0068	0.0075	-0.006	0.0022	-5.4
-0.0046	0.0007	-0.0038	0.0015	-5.4
0.0007	0.0007	-0.0008	0.003	-5.3
0.0105	-0.0008	0.0157	0.0037	-5.4
0.0217	-0.0068	0.0135	0.0015	-5.4
0.0202	-0.0128	-0.015	-0.0046	-5.4
-0.0053	-0.0158	-0.021	-0.0023	-5.3
-0.0188	-0.0046	-0.0023	0.003	-5.4
-0.0135	0.0045	0.0022	0.0007	-5.2
-0.0068	-0.0023	-0.0023	-0.0023	-5.4
-0.012	-0.0083	-0.003	-0.0046	-5.3
-0.024	-0.0105	-0.0023	-0.0046	-5.4
-0.0053	-0.0068	-0.012	0.0015	-5.4
0.0112	0.0007	-0.024	0.0037	-5.5
0.009	0.0015	0.0157	0.0037	-5.4
0.006	0.012	0.0465	0.0075	-5.5
0.0082	0.0142	0.0165	0.006	-5.3
0.0195	0.0082	0.0007	0.0015	-5.3
0.0067	-0.0015	0.0037	-0.0046	-5.3
-0.0128	-0.0113	0.0045	-0.0075	-5.3
-0.0233	-0.0083	0.0127	-0.0008	-5.3
-0.0278	-0.0053	0.0292	0.0037	-5.4
0.009	-0.0068	0.0105	0.0015	-5.2
0.0585	-0.0046	-0.033	-0.0008	-5.4
0.0675	0.0022	-0.042	-0.0008	-5.5
0.054	0.003	-0.0323	0.0007	-5.6
0.0292	0.0015	-0.0091	0.0015	-5.2
0.0045	0.0067	-0.0053	0.0045	-5.4
-0.0023	0.006	-0.0165	0.0022	-5.6
-0.0015	0.0067	-0.0128	0.0022	-5.5
0.003	0.006	-0.0218	0.0015	-5.4
0.0007	0.0015	-0.0218	-0.003	-5.4
0.0007	-0.0038	-0.0195	-0.0068	-5.4
-0.0165	-0.0128	-0.0165	-0.0105	-5.3
-0.0518	-0.0143	-0.0181	-0.0075	-5.5
-0.0691	-0.0083	-0.0195	0.0022	-5.4
-0.042	0.0067	0.0015	0.0127	-5.3
-0.0113	0.009	0.003	0.0112	-5.4
-0.0248	-0.0015	-0.0165	0.003	-5.5
-0.045	-0.0046	-0.0203	0.0037	-5.4
-0.0285	0.0067	-0.0075	0.006	-5.4
0.0067	0.0105	0.0262	0.0082	-5.4
0.0375	0.0075	0.0382	0.009	-5.3
0.054	0.0082	0.024	0.0075	-5.1
0.0405	-0.0008	0.012	0.0007	-5.4
0.0202	-0.0038	-0.003	-0.0046	-5.2
0.0142	-0.003	0.0082	-0.0053	-5.5
0.0195	-0.0015	0.0187	-0.0046	-5.4
0.027	0	0.0165	-0.0046	-5.2
0.0255	0.0007	0.0067	-0.0015	-5.4
0.0172	0.003	-0.0181	-0.0008	-5.4
-0.0173	-0.0075	-0.0323	-0.0046	-5.5
-0.042	-0.012	-0.0308	-0.0038	-5.4
-0.0375	-0.0143	-0.0278	-0.006	-5.4
-0.042	-0.0165	-0.0233	-0.0091	-5.4
-0.0533	-0.0098	-0.0105	-0.0023	-5.4
-0.0585	0.009	0.0135	0.0082	-5.4
-0.0225	0.0187	0.0285	0.0157	-5.2
0.0352	0.015	0.0255	0.0142	-5.4
0.036	0.009	0.0142	0.006	-5.3
0.0187	0.0015	0.0052	0.0007	-5.4
0.0165	0.0007	0.018	0	-5.3
-0.0015	-0.0053	0.0142	-0.0075	-5.4
-0.0046	-0.0091	-0.0046	-0.0091	-5.5
-0.0015	-0.0068	-0.0083	-0.0083	-5.4
0.0037	-0.0008	-0.0098	-0.0046	-5.5
-0.0105	0.0045	0.0022	0.0015	-5.3
-0.0053	-0.003	0.0165	0.003	-5.4
0.0015	-0.006	0.0232	0.0045	-5.3
-0.0315	-0.0023	0.0127	0.0015	-5.3
-0.0285	0.0022	0.0037	0.0037	-5.4
-0.021	0.009	-0.0008	0.006	-5.1
-0.006	0.0037	-0.0098	0.0037	-5.4
0.0675	-0.0008	0.0007	0.003	-5.2
0.096	-0.0053	0.0202	-0.0008	-5.4
0.0277	-0.0128	0.0165	-0.0023	-5.4
-0.0128	-0.0143	-0.0105	-0.003	-5.4
-0.0173	-0.012	-0.0473	-0.0023	-5.4
-0.027	0.0082	-0.0691	0.003	-5.3
-0.0218	0.0142	-0.0533	0.0037	-5.6
-0.0053	0.0045	-0.0338	0.003	-5.1
0.0165	0.0015	-0.015	0.0052	-5.4
0.0315	-0.003	0.021	0.0045	-5.1
0.042	-0.0105	0.0232	0.003	-5.4
0.021	-0.0098	0.0217	0.0052	-5.4
0	0	0.0427	0.0082	-5.3
-0.0038	-0.0015	0.0532	0.0045	-5.4
-0.0203	-0.0015	0.0382	0.0045	-5.1
-0.0525	0.0015	0.0045	0.006	-5.5
-0.0495	-0.0046	-0.0113	0.0037	-5.3
0.009	-0.0046	-0.0293	0.0015	-5.4
0.0337	0.0007	-0.0436	-0.0008	-5.4
0.033	0.0022	-0.0203	-0.003	-5.4
0.0015	-0.0053	0.0022	-0.0068	-5.3
-0.021	-0.003	0.0127	-0.0053	-5.3
-0.012	0.0045	0.0045	-0.0015	-5.4
0.009	0.006	-0.0046	0	-5.2
0.033	0.009	0.0052	0.0037	-5.4
0.033	0.009	0.0105	0.0015	-5.2
0.027	0.0105	0.0202	0.003	-5.4
0.0067	0.0075	0.0322	0.0022	-5.3
-0.0091	0.003	0.03	-0.0008	-5.3
-0.027	-0.0068	0.0142	0	-5.3
-0.0503	-0.0143	-0.0015	-0.0015	-5.4
-0.0488	-0.0113	-0.0098	0.0015	-5.4
-0.0188	-0.0091	-0.0278	0.0015	-5.6
-0.0038	-0.0143	-0.0248	-0.0015	-5.4
-0.0165	-0.012	-0.0023	-0.0023	-5.5
-0.0068	0.0022	0.0007	0.0007	-5.2
0.024	0.0045	-0.0128	0.003	-5.5
0.024	0.0082	-0.0158	0.003	-5.4
0.0142	0.0172	0.0007	0.0052	-5.4
0.0142	0.0067	0.0232	0	-5.4
0.0067	-0.0008	0.0277	-0.0015	-5.4
-0.0015	0.0007	-0.0015	0.0007	-5.4
-0.0188	-0.0015	-0.0143	0.0007	-5.5
-0.0315	-0.0068	-0.0046	-0.0023	-5.3
-0.0195	-0.0083	0.0075	-0.0015	-5.5
-0.0015	-0.0053	0.0165	0.0015	-5.3
0.0007	-0.0038	0.0067	0.0015	-5.4
-0.0128	-0.0023	-0.0091	0.0022	-5.4
-0.0225	-0.0053	-0.027	0.0015	-5.4
-0.0293	0	-0.033	0.0022	-5.3
-0.0293	0	-0.0315	0.006	-5.5
-0.0075	-0.0023	-0.033	0.0052	-5.3
0.0052	0	-0.0263	0.0045	-5.5
0.0097	-0.0015	-0.0158	0.0015	-5.4
0.0195	0.0045	-0.0053	0.003	-5.5
0.0127	0.0067	0.0045	0.003	-5.3
0.0045	0.0045	0.018	0.0015	-5.3
0.009	-0.0008	0.0285	0.0007	-5.3
0.0225	-0.0023	0.0247	-0.0015	-5.4
0.0307	-0.0015	0.009	0.0007	-5.2
0.0307	-0.003	-0.006	0.0007	-5.4
0.0195	-0.003	0.0045	0.0007	-5.4
-0.0008	-0.0053	0.0172	0.0015	-5.3
-0.0105	-0.0038	0.0142	0.0015	-5.3
-0.0091	0.0037	0.0082	0.0037	-5.4
-0.0015	0.0082	0.0067	0.003	-5.3
0.0067	0.0045	0.0105	0.0045	-5.3
0.0052	0.003	-0.0053	0.0015	-5.4
-0.006	-0.0083	-0.024	-0.003	-5.4
0.0022	-0.012	-0.0233	-0.003	-5.4
0.033	0.0037	-0.0135	0.003	-5.3
0.0367	0.003	0.0007	0.003	-5.4
0.0127	-0.0038	-0.003	0.0022	-5.3
0.0082	0.0007	-0.0181	0.0037	-5.4
0.0127	-0.0046	-0.012	0.0015	-5.4
0.0217	-0.012	0.009	0.0007	-5.3
0.0382	-0.0068	0.012	0.0007	-5.4
0.0292	0.0015	0.0052	0.0022	-5.2
0.0052	0.009	0.0157	0.0022	-5.3
0.003	0.0165	0.0202	0.0022	-5.3
-0.0188	0.006	0.0022	0.0022	-5.5
-0.0675	-0.0083	-0.0188	-0.0008	-5.2
-0.0706	-0.0053	-0.0195	0.003	-5.3
-0.0398	-0.0008	-0.024	0.0007	-5.2
-0.0083	0.0022	-0.0203	0	-5.3
0.0135	0.003	0.0015	-0.0038	-5.2
0.009	-0.0038	0.0082	-0.0105	-5.3
-0.015	-0.0046	-0.0046	-0.0075	-5.2
-0.0038	0.0015	-0.0143	-0.006	-5.2
0.027	0.0105	-0.0218	-0.003	-5.3
0.045	0.0105	-0.0278	0	-5.4
0.0705	0.0007	-0.0383	-0.0023	-5.3
0.0465	-0.0105	-0.0428	-0.0083	-5.4
-0.0158	-0.0158	-0.033	-0.0098	-5.3
-0.063	-0.0038	-0.0233	0	-5.4
-0.078	0.0037	-0.0083	0.0067	-5.2
-0.0555	0.0052	0.0442	0.0105	-5.3
0.0037	0.0127	0.0885	0.0135	-5
0.0217	0.0067	0.063	0.0067	-5.4
-0.0083	-0.003	0.033	0.0007	-5.2
-0.0143	-0.0046	0.036	0.0007	-5.2
0.012	0.003	0.0547	0.0022	-5.3
0.0262	0.0067	0.057	0	-5.3
0.0142	0.0015	0.0105	-0.0046	-5.3
0.0052	-0.0008	0	-0.0068	-5.2
0.0015	-0.0038	0	-0.0083	-5.4
0.009	-0.0038	-0.0158	-0.0075	-5.4
0.0127	0	-0.0165	-0.006	-5.4
0.003	-0.0015	-0.024	-0.0053	-5.4
-0.0218	-0.0053	-0.012	-0.0046	-5.3
-0.0346	-0.0083	-0.0105	-0.0046	-5.4
-0.0353	-0.0083	-0.0293	-0.0015	-5.4
-0.0525	-0.0023	-0.0346	0.0045	-5.4
-0.063	0.0007	-0.042	0.0067	-5.4
-0.054	-0.0091	-0.045	0.0007	-5.4
-0.0128	-0.006	-0.0181	0.0022	-5.4
0.042	0.003	0.0285	0.003	-5.3
0.0345	0.0007	0.06	-0.0008	-5.4
0.0127	-0.0015	0.0555	-0.0015	-5.1
0.0255	0.0045	0.024	0.0007	-5.5
0.033	0.0067	0.0097	0.0022	-5.4
0.0292	-0.0015	0.0022	0.0022	-5.5
0.0135	-0.0083	-0.0053	0.0052	-5.3
-0.0165	-0.012	-0.0083	0.0097	-5.3
-0.033	-0.0046	-0.0293	0.0127	-5.4
-0.0173	0.0052	-0.0315	0.0135	-5.4
-0.0053	0.0007	-0.0023	0.0112	-5.4
0.0045	0.0067	0.027	0.0112	-5.3
0.0202	0.0142	0.0232	0.0097	-5.4
0.003	0.0067	0.0097	0.0052	-5.3
-0.0128	0	0.0105	0.003	-5.4
-0.0038	-0.003	-0.0015	0.0007	-5.4
0.003	-0.006	0.0015	-0.0008	-5.2
0.0067	-0.0046	0	-0.003	-5.4
0.0052	-0.0091	-0.0091	-0.0046	-5.2
-0.006	-0.003	-0.0083	0.0015	-5.4
-0.0165	0.012	-0.0128	0.0052	-5.3
0.006	0.0052	-0.0233	-0.0015	-5.4
0.0352	-0.0128	-0.0443	-0.003	-5.4
0.0435	-0.0098	-0.0368	0.0022	-5.4
0.0322	0.0045	-0.0098	0.006	-5.3
0.0195	0.012	0.0097	0.0097	-5.2
0.0127	0.0067	0.018	0.003	-5.4
0.0015	0.0007	-0.0008	-0.0015	-5.2
-0.0075	0.006	-0.0248	0	-5.4
-0.0068	0.0097	-0.0346	0	-5.2
-0.0083	0.0052	-0.027	0.0015	-5.3
-0.0098	0.003	-0.0091	0	-5.4
0.0007	-0.0053	-0.0038	-0.0046	-5.4
0.009	-0.021	-0.0135	-0.0083	-5.4
-0.012	-0.0285	-0.0165	-0.0113	-5.3
-0.0353	-0.0195	-0.0158	-0.003	-5.4
0.0022	0.0052	-0.0023	0.0052	-5.3
0.0405	0.018	0.03	0.0045	-5.4
0.039	0.012	0.0502	-0.0105	-5.3
0.0352	0.0052	0.0427	-0.0383	-5.3
0.0165	-0.0046	0.0135	-0.0593	-5.3
0.0037	-0.0046	0.0202	-0.0645	-5.3
0.0015	-0.0015	0.039	-0.0593	-5.4
0.0037	-0.003	0.0322	-0.0465	-5.4
0.0037	0	0.0195	-0.0353	-5.3
-0.0128	0	-0.0008	-0.024	-5.6
-0.027	-0.0053	-0.006	-0.0113	-5.1
-0.0233	-0.0091	-0.0038	-0.003	-5.5
-0.0278	-0.0075	-0.0091	0.0022	-5.4
-0.0368	-0.0023	-0.0315	0.0052	-5.4
-0.027	0.0045	-0.0405	0.0097	-5.4
-0.0135	0.0075	-0.0293	0.0157	-5.4
0.0225	0.0022	-0.0195	0.018	-5.4
0.0577	0.0045	0.0142	0.018	-5.2
0.0652	0.0037	0.018	0.0187	-5.4
0.057	0.0045	-0.012	0.0187	-5.4
0.0067	0.0045	0.0045	0.0165	-5.3
-0.0361	0.0007	0.0247	0.0142	-5.4
-0.0315	-0.0046	0.0165	0.012	-5.4
-0.0338	-0.0105	-0.0068	0.0082	-5.4
-0.0495	-0.0135	-0.0405	0.0075	-5.2
-0.0353	-0.0203	-0.0473	0.009	-5.4
-0.0315	-0.024	-0.0503	0.0097	-5.2
-0.0323	-0.0143	-0.0361	0.0135	-5.4
-0.0083	-0.0083	0.0007	0.015	-5.1
-0.0173	-0.0008	0.0135	0.0202	-5.4
-0.0233	0.0052	0.0217	0.024	-5.4
-0.0113	0.0052	0.0367	0.0255	-5.3
0.018	0.0127	0.0315	0.027	-5.4
0.0232	0.0217	0.0165	0.0195	-5.4
0.0067	0.0165	0.0142	0.0157	-5.4
0.0082	0.0015	0.0045	0.0097	-5.3
-0.003	-0.0053	-0.0008	0.0052	-5.4
-0.0068	-0.003	0.0067	0.0082	-5.4
-0.0105	0.0052	0.0052	0.012	-5.4
0.003	0.0217	0.012	0.0165	-5.4
0.0195	0.0232	0.015	0.0135	-5.3
0.027	0.0135	0.0195	0.0105	-5.4
0.03	0.0052	0.0352	0.0052	-5.2
0.0127	-0.0068	0.0427	-0.0023	-5.4
-0.033	-0.015	0.0247	-0.0023	-5.4
-0.0743	-0.0188	0.003	-0.0068	-5.3
-0.06	-0.0083	0.003	-0.0046	-5.5
-0.03	-0.0075	-0.0263	-0.0015	-5.4
0.009	-0.0195	-0.0578	0	-5.5
0.0322	-0.0075	-0.0743	0.009	-5.2
0.0465	0.009	-0.0923	0.009	-5.4
0.0345	0.009	-0.0713	0.0097	-5.4
-0.0046	0.0045	-0.0368	0.0105	-5.4
0.0165	0.0045	-0.0105	0.0105	-5.4
0.042	0.0015	0.039	0.0075	-5.2
0.0442	-0.003	0.0795	0.0015	-5.3
0.0435	0.0007	0.0645	0	-5.4
0.036	0.0015	0.0367	-0.003	-5.5
0.0247	0.0015	0.0225	-0.0038	-5.5
0.0157	0.0015	0.0172	-0.0046	-5.4
0.0082	0.0007	0.0142	-0.006	-5.5
-0.0128	-0.0008	0.0037	-0.0053	-5.4
-0.0323	-0.0046	-0.0075	-0.0068	-5.6
-0.048	-0.0075	-0.0113	-0.0038	-5.4
-0.0488	-0.0068	-0.012	-0.0008	-5.6
-0.0346	-0.0046	-0.0195	0.0007	-5.3
-0.0165	-0.0046	-0.0105	0.0022	-5.4
0.0082	-0.0038	0.0007	0.0007	-5.4
0.0157	-0.012	-0.0158	-0.0068	-5.4
0.012	-0.0165	-0.0308	-0.0068	-5.5
0.0105	0.0067	-0.021	0.0015	-5.5
0.0075	0.0142	-0.0203	0	-5.4
0.0105	0.0037	-0.0263	-0.0008	-5.4
0.0127	0.006	-0.0278	0.0007	-5.3
0.0052	-0.003	-0.0293	-0.0068	-5.5
-0.0218	-0.0128	-0.0181	-0.0105	-5.4
-0.0405	-0.0195	-0.0053	-0.0091	-5.6
-0.0158	-0.0143	0.0217	-0.0053	-5.3
0.0052	-0.0038	0.039	-0.0023	-5.5
-0.0158	0.003	0.0405	0.003	-5.3
-0.0158	0.018	0.0525	0.0082	-5.4
0.0225	0.0105	0.033	0.0082	-5.5
0.0502	0.003	-0.0053	0.012	-5.4
0.0532	0.009	-0.0091	0.0105	-5.4
0.0367	0.0105	0.0015	0.0082	-5.4
0.0135	0.012	-0.0068	0.0052	-5.4
0.0007	0.0067	-0.0143	0.0007	-5.5
-0.0083	0.0045	-0.0068	-0.0023	-5.3
-0.0143	0.0045	-0.0008	-0.006	-5.4
-0.0091	0.0015	0.0037	-0.006	-5.2
0.0007	-0.0046	0	-0.0105	-5.5
-0.003	-0.0091	-0.0128	-0.0105	-5.4
-0.0128	-0.0083	-0.0188	-0.0068	-5.5
-0.0143	-0.0083	-0.012	-0.0068	-5.4
-0.015	-0.0091	-0.003	-0.0068	-5.4
-0.0346	-0.0165	0.0082	-0.0091	-5.4
-0.0533	-0.0173	0.012	-0.003	-5.3
-0.0555	0	-0.0091	0.009	-5.6
-0.0293	0.0135	-0.0263	0.0097	-5.4
0.0165	0.0067	0.0007	0.003	-5.4
0.033	0.003	0.024	-0.003	-5.4
0.0382	0.006	0.0052	-0.0046	-5.4
0.039	0.0045	-0.0113	-0.003	-5.5
0.0232	0.0015	-0.0135	-0.0008	-5.4
0.0015	0.0007	-0.012	0.0007	-5.5
-0.0015	0.003	0.009	0.0007	-5.3
0.0007	0.0097	0.0277	0.0037	-5.5
-0.0046	0.0105	0.018	-0.0015	-5.4
-0.0068	0.0007	0.0127	-0.006	-5.4
-0.027	-0.0053	0.0097	-0.0075	-5.4
-0.0375	-0.0143	-0.0046	-0.0105	-5.4
-0.0256	-0.0173	-0.0083	-0.0068	-5.6
-0.0143	-0.0135	0.0045	-0.0038	-5.3
-0.0203	-0.0068	0.0255	0.003	-5.4
-0.0256	-0.0008	0.018	0.009	-5.2
0.0052	0.006	0.0007	0.0075	-5.4
0.048	0.0127	-0.0105	0.0067	-5.4
0.0495	0.0045	-0.0046	0.0015	-5.4
0.0292	0	0.003	0.0015	-5.4
0.0277	-0.0008	-0.0068	0	-5.3
0.0232	0.0007	-0.0068	0.0015	-5.4
0.0067	0.003	-0.0053	0.003	-5.5
0.0067	0.0015	-0.0091	0.0007	-5.4
0.009	-0.0015	-0.0053	0.0007	-5.5
-0.0046	-0.003	0.0082	0.0007	-5.2
0.0127	-0.0046	0.0052	0.003	-5.6
0.0067	-0.0098	-0.0203	0.0015	-5.4
-0.06	-0.0113	-0.0353	0	-5.6
-0.0765	-0.012	-0.0173	-0.0008	-5.4
-0.0436	-0.0023	-0.0015	0.0007	-5.4
-0.027	0.012	0.0172	0.0052	-5.4
-0.0256	0.0015	0.012	0.003	-5.4
-0.0165	-0.0046	-0.0203	0.0045	-5.3
0.0037	-0.0008	-0.003	0.0075	-5.4
0.0187	0.0007	0.015	0.0045	-5.4
0.0405	0.0022	0.0045	0.0015	-5.4
0.042	0.0007	-0.006	0	-5.4
0.0187	0.0045	0.0135	0	-5.5
0.0127	0.0067	0.0337	-0.0008	-5.3
0.0202	0.0075	0.0195	-0.0008	-5.6
0.0165	0.006	-0.0068	-0.0038	-5.4
0.015	0.0022	-0.0195	-0.006	-5.5
0.024	-0.0046	-0.012	-0.0091	-5.4
-0.0008	-0.0165	-0.0158	-0.0105	-5.5
-0.0465	-0.0248	-0.0181	-0.0046	-5.4
-0.0578	-0.03	-0.0308	-0.0008	-5.6
-0.0383	-0.027	-0.0398	0.0052	-5.4
-0.0068	0.0015	-0.024	0.0105	-5.5
0.0255	0.0105	-0.0143	0.0082	-5.4
0.0307	0.0142	0.0007	0.0105	-5.5
0.0195	0.0405	0.0277	0.012	-5.4
0.0165	0.0292	0.0435	0.0075	-5.4
0.0255	0.0082	0.0225	0.0022	-5.4
0.033	0.0082	0.009	0.0007	-5.4
0.0232	0.0052	0.0082	-0.0008	-5.3
0.0105	0	0.0007	-0.003	-5.5
-0.0023	-0.0091	0.0052	-0.0053	-5.4
-0.0135	-0.0098	-0.0053	-0.0053	-5.5
-0.0188	-0.0091	-0.0046	-0.0046	-5.4
-0.033	-0.0128	0.009	-0.0038	-5.3
-0.0256	-0.0128	0.003	-0.0053	-5.6
0.0097	-0.0083	-0.0218	-0.0008	-5.1
0.0172	-0.0015	-0.0495	0	-5.5
-0.0023	0.0015	-0.0503	-0.0015	-5.4
-0.021	-0.0008	-0.0383	-0.0023	-5.3
-0.0248	0.006	-0.024	0.0007	-5.4
-0.0165	0.0112	-0.003	-0.0023	-5.2
-0.033	-0.0091	0.0195	-0.0091	-5.4
-0.048	-0.0173	0.03	-0.0038	-5.2
-0.0128	-0.0015	0.045	0.006	-5.5
0.0247	0.0067	0.036	0.0082	-5.4
0.0345	0.0105	0.0165	0.0067	-5.4
0.042	0.0142	0.018	0.009	-5.4
0.033	0.006	-0.0075	0.006	-5.4
0.0457	0.0037	-0.0195	0.0037	-5.6
0.0532	0.0007	-0.0075	0.0015	-5.3
0.015	-0.0083	0.0067	-0.0046	-5.5
-0.0038	-0.0135	0.0105	-0.006	-5.3
-0.0218	-0.0203	0.015	-0.0083	-5.4
-0.042	-0.0143	0.0127	0	-5.4
-0.0346	0	-0.0075	0.009	-5.4
-0.0128	0.003	-0.0105	0.0067	-5.4
0.0052	-0.003	-0.0068	0.0052	-5.3
0.0105	0	0	0.0037	-5.4
0.0247	-0.0008	0.003	0.0015	-5.3
0.0315	-0.0015	0.009	-0.0008	-5.4
0.039	0.003	0.0082	-0.003	-5.4
0.0367	0.0052	0.0045	-0.003	-5.4
0.006	0.003	0.0135	-0.0038	-5.4
-0.048	0.0052	0.0045	-0.0046	-5.4
-0.0863	0.0105	-0.0008	-0.0015	-5.5
-0.0758	0.0052	-0.0091	-0.0023	-5.4
-0.0398	-0.0008	-0.0203	-0.0053	-5.4
0.0112	-0.0053	-0.0165	-0.0068	-5.4
0.0217	-0.0158	-0.0263	-0.0053	-5.5
-0.0563	-0.0256	-0.0465	0	-5.4
-0.0833	-0.0203	-0.0308	0.0082	-5.4
-0.0015	-0.0068	0.027	0.0135	-5.3
0.0352	-0.0008	0.0225	0.0105	-5.3
0.0352	0.0007	-0.0181	0.012	-5.4
0.0262	0.0037	-0.0218	0.012	-5.6
0.0007	0.0007	-0.0128	0.009	-5.4
0.012	0.0045	0.0097	0.0075	-5.6
0.0375	0.0112	0.018	0.0067	-5.2
0.0465	0.009	0.0307	0.0052	-5.4
0.0285	0.0052	0.0502	0	-5.3
0.0202	0	0.0495	-0.0046	-5.4
0.0277	0.0007	0.0397	-0.0053	-5.4
0.0307	0.0007	0.0172	-0.006	-5.3
0.024	-0.0008	-0.0046	-0.0068	-5.4
0.0082	-0.0015	-0.0158	-0.006	-5.4
-0.0091	-0.0068	-0.0203	-0.0083	-5.5
-0.0428	-0.0091	-0.0203	-0.006	-5.6
-0.0675	-0.0008	-0.0113	0.003	-5.4
-0.0743	0.0082	-0.0068	0.0052	-5.4
-0.0436	0.003	-0.0046	0.0052	-5.4
-0.0038	-0.0038	0.0075	0.0045	-5.4
0.0082	0.0007	0.0052	0.0052	-5.2
0.0142	0.0022	-0.003	0.006	-5.5
0.0142	-0.0068	-0.0046	0.003	-5.3
0.009	-0.0046	-0.0083	0.0045	-5.5
0.0105	-0.0053	-0.0128	0.0037	-5.4
0.018	-0.0046	-0.0015	0.0045	-5.4
0.0232	0.0045	0.009	0.0067	-5.4
0.0202	0.012	0.003	0.0082	-5.4
0.0307	0.0135	0.012	0.009	-5.5
0.0307	0.0015	0.0277	0.006	-5.4
0.0195	-0.0075	0.0142	0.0015	-5.5
0.0082	-0.0105	-0.0068	-0.0015	-5.4
-0.0046	-0.0083	-0.0105	-0.003	-5.6
-0.0165	0.0045	-0.0165	-0.0023	-5.6
-0.0353	0.0187	-0.0248	-0.003	-5.5
-0.0458	0.0127	-0.0188	-0.0091	-5.5
-0.039	-0.0068	-0.0173	-0.0098	-5.4
-0.0195	-0.0098	-0.0158	-0.0046	-5.6
0.0022	0.0045	-0.0053	0.003	-5.4
0.0285	0.0187	-0.0008	0.0082	-5.3
0.051	0.0127	-0.0015	0.0037	-5.5
0.0457	0.0015	0.0067	-0.0015	-5.3
0.018	-0.0046	-0.0091	-0.0083	-5.6
-0.0091	-0.0105	-0.0323	-0.0113	-5.4
-0.033	-0.0105	-0.0256	-0.0091	-5.4
-0.063	-0.006	-0.0203	-0.0053	-5.3
-0.0668	-0.0023	-0.0188	-0.0015	-5.5
-0.021	-0.0046	-0.0195	0.0015	-5.6
0.024	0.0007	-0.0203	0.0082	-5.4
0.033	0.0052	-0.0173	0.0082	-5.6
0.0405	0.006	-0.012	0.0045	-5.3
0.0195	-0.0008	0.0127	-0.0046	-5.5
-0.0278	-0.0083	0.042	-0.0083	-5.3
-0.0315	-0.0091	0.0397	-0.0023	-5.3
-0.0083	-0.0053	0.0352	-0.0015	-5.4
0.0075	0	0.036	0	-5.3
0.0202	0.0045	0.03	0	-5.4
0.0345	0.0082	0.0105	-0.0008	-5.2
0.0315	0.003	0.0007	-0.0038	-5.5
0.0142	-0.0008	0.0067	-0.0053	-5.4
0.0022	0.0037	0.0015	-0.0046	-5.4
-0.0158	-0.0008	-0.0046	-0.0098	-5.2
-0.06	-0.0188	-0.0135	-0.0135	-5.4
-0.0856	-0.0278	-0.0293	-0.0083	-5.4
-0.0315	-0.0113	-0.0338	0.003	-5.4
0.048	0.0112	-0.021	0.0112	-5.4
0.06	0.018	-0.0128	0.0097	-5.4
0.0405	0.0045	-0.0113	0.0052	-5.3
0.0277	0.0007	0.0142	0.0052	-5.4
0.0157	0.0067	0.0352	0.0067	-5.3
0.0105	0.0015	0.0307	0.0045	-5.3
0.0127	-0.0023	0.0202	0.0022	-5.2
0.0165	-0.0038	0.0127	-0.0008	-5.4
0.009	-0.0083	0.0105	-0.0046	-5.3
0.0037	-0.0023	0.0045	-0.0038	-5.3
0.003	0.0022	0.0045	-0.0053	-5.3
-0.0068	-0.0008	-0.006	-0.0053	-5.3
-0.0195	0	-0.0173	-0.0023	-5.4
-0.0203	0	-0.0203	-0.0038	-5.4
-0.0203	-0.0023	-0.0256	-0.003	-5.4
-0.024	0.0022	-0.0263	-0.0008	-5.4
-0.0218	0.003	-0.0225	0	-5.4
-0.0188	0.0007	0.018	-0.0015	-5.5
-0.0068	-0.0008	0.0615	-0.0046	-5.3
-0.0008	-0.0068	0.042	-0.0068	-5.5
-0.0015	-0.0068	-0.003	-0.0015	-5.4
0.0082	0.0007	-0.027	0.0015	-5.4
0.0195	-0.0015	-0.03	0	-5.3
0.0157	-0.0053	-0.0105	-0.0008	-5.4
-0.0128	-0.0008	-0.0046	0.003	-5.4
-0.039	0.0067	-0.006	0.0067	-5.4
-0.0428	0.015	0.003	0.0082	-5.4
-0.0293	0.0165	0.0007	0.0082	-5.3
-0.0113	0.003	0.0022	0.003	-5.4
0.0097	-0.0128	0.0067	-0.003	-5.4
0.0075	-0.0225	0.0082	-0.0068	-5.4
0.003	-0.0233	0.0075	-0.0053	-5.4
0.0142	-0.0128	0.0082	-0.0008	-5.3
0.0277	-0.0023	-0.003	0.0007	-5.5
0.0315	0.012	-0.0203	0.0045	-5.4
0.0195	0.0165	-0.0173	0.0052	-5.5
0.0232	0.0112	-0.0083	0.0052	-5.4
0.024	0.0045	0.0052	0.0015	-5.4
0.0217	-0.0015	0.0022	-0.0015	-5.3
0.0142	0.0007	-0.0091	0.0015	-5.4
0.006	-0.0015	0.0007	-0.0008	-5.3
-0.0075	-0.0083	0.0052	-0.0015	-5.3
-0.027	-0.0158	0.0075	-0.006	-5.4
-0.0233	-0.0195	0.0015	-0.0068	-5.3
-0.0218	-0.0158	-0.0105	-0.0046	-5.5
-0.0518	-0.012	-0.0046	-0.0008	-5.3
-0.0885	0.0045	0.009	0.009	-5.4
-0.0683	0.0142	0.0157	0.0105	-5.4
-0.015	0.0217	0.0052	0.0127	-5.3
0.0427	0.0255	-0.0165	0.0165	-5.4
0.09	0.009	-0.027	0.0135	-5.3
0.063	0.0082	0.006	0.0105	-5.4
0.012	-0.0023	0.0375	0.0007	-5.3
-0.0038	-0.012	0.0127	-0.003	-5.4
0.003	-0.003	-0.003	-0.003	-5.4
0.0127	-0.0008	0.0052	-0.0053	-5.2
0.0165	0	0.0075	-0.0068	-5.5
0.018	-0.003	0.0217	-0.0053	-5.3
0.0307	-0.0015	0.0255	-0.0046	-5.5
0.0285	-0.0038	0.003	-0.006	-5.4
0.0105	-0.0091	-0.0128	-0.0091	-5.5
-0.0023	-0.0105	-0.012	-0.0091	-5.5
-0.0203	-0.0113	-0.0083	-0.0091	-5.5
-0.0346	-0.0015	-0.0083	-0.0015	-5.6
-0.0428	0.0082	-0.0113	0.0067	-5.6
-0.0465	0.009	-0.0158	0.0082	-5.4
-0.0165	0.0142	-0.0195	0.0105	-5.5
0.018	0.0127	-0.0165	0.0067	-5.4
0.0097	-0.0046	0.009	-0.0015	-5.4
-0.003	-0.0053	0.0082	-0.0008	-5.3
0.0022	-0.003	-0.0181	-0.003	-5.6
0.0067	-0.0046	-0.0165	0.0007	-5.4
0.0037	0.0022	-0.0128	0.0045	-5.5
0.0105	0	-0.0158	0.0052	-5.5
0.0195	0	-0.0218	0.006	-5.4
-0.0091	-0.0091	-0.0181	-0.0008	-5.6
-0.0353	-0.0105	0.012	0.0015	-5.4
-0.0353	-0.0083	0.018	0.0022	-5.4
-0.0361	-0.0075	-0.0083	0.0045	-5.5
-0.0181	0.003	-0.0203	0.0075	-5.5
0.0172	0.0015	-0.0143	0.0037	-5.5
0.0307	0.003	0.0082	0.0015	-5.4
0.027	0.0007	0.024	-0.003	-5.4
0.018	-0.003	0.018	-0.0053	-5.4
0.0067	0.0007	0.0127	-0.0015	-5.5
0.0045	0.0037	0.0112	-0.0015	-5.4
0.0067	0.0067	0.0142	0.0015	-5.5
0.0067	0.0082	0.0127	0.003	-5.4
0.0015	0.009	0.0105	0.0052	-5.4
0.0007	0.0045	0.0045	0.0045	-5.6
-0.0008	-0.0068	-0.0135	-0.003	-5.4
-0.0203	-0.0165	-0.0338	-0.0053	-5.7
-0.0323	-0.0181	-0.0525	-0.003	-5.4
-0.0248	-0.0128	-0.0615	0.0022	-5.5
-0.024	-0.0068	-0.0383	0.0082	-5.4
-0.015	0.0007	-0.0046	0.009	-5.4
0.0082	0.0067	-0.0083	0.0105	-5.6
0.0255	0.0067	0.0112	0.0105	-5.4
0.0465	0.012	0.0705	0.0105	-5.4
0.045	0.0052	0.0802	0.0007	-5.6
0.0247	-0.003	0.0487	-0.0046	-5.4
0.0075	-0.0023	0.0375	-0.003	-5.5
-0.0098	-0.0053	0.0307	-0.003	-5.4
-0.0195	-0.0008	0.0105	-0.0015	-5.4
-0.012	0.003	0.0112	-0.0023	-5.4
0.0045	0.0052	0.0075	0.0007	-5.6
0.0157	0.0082	-0.012	0.0007	-5.5
0.0105	0.0052	-0.0165	-0.0038	-5.6
0.0067	0.0007	-0.0218	-0.0053	-5.5
0.012	-0.0083	-0.0225	-0.0091	-5.4
0.009	-0.0158	-0.0188	-0.0068	-5.4
-0.0105	-0.0233	-0.0098	-0.003	-5.6
-0.0195	-0.0113	0.0172	0.0052	-5.4
-0.0091	0.0105	0.0352	0.0112	-5.4
-0.003	0.0157	0.0195	0.0097	-5.4
0.012	0.0067	0.0097	0.006	-5.4
0.0112	-0.0046	-0.0091	-0.0008	-5.4
-0.0068	-0.0015	-0.0503	-0.0015	-5.5
-0.006	0.003	-0.0615	0	-5.4
-0.0083	0.0007	-0.0593	0.0007	-5.5
-0.0143	-0.0023	-0.0495	0.0015	-5.4
-0.0128	-0.0053	-0.0361	0.0015	-5.5
-0.0128	-0.0046	-0.027	0.0007	-5.4
-0.0285	0	-0.003	0.0022	-5.2
-0.0195	0.0105	0.045	0.0045	-5.5
0.0165	0.0135	0.057	-0.0008	-5.4
0.03	-0.0023	0.0082	-0.0068	-5.5
0.0412	-0.006	-0.0203	-0.0075	-5.4
0.0405	-0.0038	-0.0091	-0.0046	-5.4
0.024	-0.006	0.012	-0.003	-5.5
0.0082	-0.006	0.0202	-0.0008	-5.4
-0.0075	-0.0038	0.0112	0.0037	-5.4
-0.0023	0.0007	0.0112	0.0045	-5.4
0.0165	-0.0008	0.0082	0.0045	-5.4
0.003	0.0082	0.0157	0.009	-5.5
-0.0173	0.012	0.018	0.006	-5.4
-0.0165	-0.003	-0.0008	0.0007	-5.5
-0.0256	-0.0105	0.003	-0.0038	-5.3
-0.0443	-0.0105	0.0135	-0.0075	-5.5
-0.0608	-0.0105	0.009	-0.006	-5.4
-0.0465	0	0.0067	-0.0008	-5.6
-0.0105	0.0105	-0.0015	0.006	-5.5
0.0277	0.0165	-0.0315	0.009	-5.5
0.0465	0.015	-0.0458	0.0052	-5.4
0.0435	0.0045	-0.024	0.0015	-5.4
0.033	-0.0008	-0.0091	0.0015	-5.6
0.0262	0.0022	-0.0046	0.0015	-5.4
0.0195	0.0015	0.009	-0.0015	-5.6
0.0015	-0.0015	0.0157	-0.0015	-5.5
-0.0083	-0.0046	0.0127	-0.0015	-5.4
-0.0098	-0.0053	0.0097	-0.0053	-5.4
-0.0165	-0.0113	0.009	-0.0075	-5.5
-0.0233	-0.012	0.0075	-0.0068	-5.6
-0.024	-0.0105	0.0007	-0.0053	-5.4
-0.0383	-0.0143	-0.015	-0.0068	-5.5
-0.0368	-0.0083	-0.0165	-0.0008	-5.4
-0.0165	0.0007	0.003	0.0067	-5.6
-0.0098	0	0.018	0.0052	-5.4
-0.0218	-0.006	0.0277	0.0067	-5.4
-0.0473	-0.003	0.0412	0.0067	-5.4
-0.0353	0.0142	0.0195	0.0075	-5.4
0.0307	0.0157	-0.0105	0.0052	-5.5
0.0555	-0.0008	-0.0233	-0.0008	-5.5
0.0367	-0.0053	-0.0375	-0.003	-5.5
0.033	-0.0053	-0.0383	-0.0046	-5.5
0.033	-0.0008	-0.0278	-0.0008	-5.3
0.0315	0.0052	0.003	0.0045	-5.6
0.0195	0.0052	0.0105	0.0015	-5.3
0.0202	0.003	-0.0015	-0.0008	-5.5
0.033	0.003	0.0045	-0.0015	-5.4
0.033	0.0007	0.0127	-0.0023	-5.4
0.0247	-0.0046	0.0195	-0.0008	-5.5
0.0075	-0.0053	0.012	-0.0008	-5.4
-0.0128	-0.0083	0.0097	-0.003	-5.4
-0.03	-0.0075	0.0142	0	-5.5
-0.0248	0.0015	0.0045	0.003	-5.4
-0.0083	-0.003	-0.0083	-0.0023	-5.6
0.0075	-0.0091	-0.0165	-0.0023	-5.4
0.0082	-0.006	-0.0075	-0.0008	-5.6
0.0015	-0.0015	-0.0053	0.0015	-5.4
0.0067	0.0082	-0.0023	0.0082	-5.5
0.0142	0.0157	0.0052	0.009	-5.4
0.0187	0.0082	0.0015	0.0052	-5.6
-0.006	-0.0068	-0.0015	-0.0008	-5.4
-0.0383	-0.0008	-0.003	0.003	-5.4
-0.0503	0.0052	-0.0038	0.0045	-5.5
-0.0203	0.0067	-0.0068	0.003	-5.6
0.0127	0.0037	-0.0053	0.0015	-5.5
0.0052	-0.003	0.0075	-0.003	-5.4
0.012	-0.0053	-0.0015	-0.003	-5.4
-0.0091	-0.0083	-0.0046	-0.0023	-5.4
-0.0518	-0.0083	0.003	0.0007	-5.5
-0.0593	-0.0128	-0.0173	0	-5.4
-0.0525	-0.012	-0.0263	0.0007	-5.5
-0.0218	0.0015	-0.0165	0.0097	-5.6
0.003	0.006	-0.0008	0.0097	-5.4
0.0157	-0.0008	0.0172	0.0045	-5.4
0.018	0.0015	0.012	0.0045	-5.4
0.0022	0.0007	0.0127	0.0045	-5.4
0.0015	0.0015	0.0202	0.0037	-5.4
0.0142	0.0052	0.0112	0.0007	-5.4
0.0165	0.0075	0.0015	-0.0015	-5.6
0.015	0.012	-0.0083	-0.0008	-5.4
0.0217	0.009	-0.0105	-0.003	-5.6
0.0225	0.0022	-0.0181	-0.0046	-5.5
0.0067	-0.0075	-0.0218	-0.0075	-5.4
-0.0293	-0.0135	-0.0181	-0.0091	-5.6
-0.0593	-0.0248	-0.0143	-0.012	-5.4
-0.0443	-0.03	-0.0046	-0.0075	-5.4
-0.012	0.0007	-0.0068	0.0082	-5.5
0.009	0.0142	0.0067	0.012	-5.4
0.0255	0.0067	0.0165	0.012	-5.5
0.0442	0.009	0.0052	0.009	-5.4
0.0375	0.0045	0.0097	0.0045	-5.5
0.0277	0.0127	0.0202	0.006	-5.4
0.018	0.015	0.0142	0.003	-5.6
0	0.0022	0.0015	-0.0015	-5.3
-0.0083	0.003	-0.0091	-0.0046	-5.6
-0.024	-0.003	-0.0181	-0.0098	-5.4
-0.033	-0.0083	-0.0068	-0.0091	-5.4
-0.0195	-0.0075	0.0045	-0.0083	-5.4
-0.0008	-0.0105	0.0007	-0.0091	-5.4
0.0082	-0.0068	-0.003	-0.0046	-5.4
0.0142	0.0022	0.003	-0.0015	-5.3
0.0255	0.0127	0.0165	-0.0015	-5.4
0.0405	0.0142	-0.003	-0.0038	-5.4
0.0345	-0.006	-0.0428	-0.0068	-5.4
-0.003	-0.0158	-0.0555	-0.0053	-5.4
-0.0368	-0.012	-0.0353	-0.003	-5.4
-0.0458	-0.0083	-0.0046	0.0015	-5.5
-0.0233	-0.0015	0.0157	0.0045	-5.4
0.0052	-0.0023	0.024	0.0007	-5.4
0.0067	-0.0046	0.027	-0.0015	-5.5
-0.0068	0.0022	0.039	-0.0008	-5.4
-0.0128	0.0105	0.0322	-0.0008	-5.5
0.003	0.006	-0.0038	0.0007	-5.4
0.0082	0.0015	-0.003	0.0022	-5.5
0.0052	0.0015	0.0037	-0.0008	-5.4
0.0045	-0.0046	0	-0.0015	-5.4
0.0112	0.0022	0.0255	0	-5.5
0.033	0.0045	0.0427	0.0022	-5.3
0.0345	0.003	0.018	-0.0008	-5.6
0.0165	0.0015	0.0045	-0.0053	-5.4
0.0015	0.0015	0.0127	-0.0053	-5.5
-0.0008	0.003	0.0052	-0.0068	-5.4
-0.0053	-0.0023	0.0067	-0.0068	-5.4
-0.0083	-0.0008	0.003	-0.003	-5.4
-0.0098	0.0022	-0.003	0	-5.4
-0.033	0.006	-0.0038	0.0022	-5.5
-0.0525	0.006	-0.0173	0.003	-5.4
-0.0428	0.003	-0.0195	0.0015	-5.6
-0.0173	-0.0015	-0.0218	-0.0015	-5.4
0.0165	-0.0091	-0.0248	-0.0053	-5.6
0.0367	-0.0098	-0.027	-0.0008	-5.4
0.0202	-0.0083	-0.0413	0.003	-5.5
0.0045	-0.003	-0.0495	0.0037	-5.5
0.024	-0.0015	-0.0413	0.0045	-5.5
0.0495	-0.0083	-0.0308	0.0007	-5.7
0.0292	-0.0218	-0.0165	-0.003	-5.5
-0.0248	-0.0218	0.0007	0.003	-5.6
-0.0653	-0.0075	0.021	0.0142	-5.4
-0.0465	0.0082	0.036	0.0157	-5.6
0.0082	0.0075	0.0315	0.012	-5.6
0.042	0.0007	0.0472	0.006	-5.4
0.0525	0.0052	0.0412	-0.0046	-5.5
0.0382	0.0022	0.0015	-0.0165	-5.4
0.0165	0.0045	0.0075	-0.0203	-5.6
0.009	0.0067	0.0052	-0.0188	-5.6
0.0015	0.003	-0.0015	-0.0165	-5.4
0.0007	0.0037	-0.0015	-0.0105	-5.6
0	0.0007	-0.0143	-0.0091	-5.6
-0.003	-0.0015	-0.0083	-0.0083	-5.6
-0.0053	-0.0046	-0.0046	-0.0046	-5.7
-0.0203	-0.006	0.0015	0.0007	-5.5
-0.0465	-0.0053	0.0045	0.0067	-5.6
-0.0668	-0.0083	0.0067	0.0082	-5.5
-0.063	-0.0075	0.0067	0.009	-5.6
-0.0398	-0.0015	0.0105	0.0105	-5.4
-0.0165	0.003	0.0142	0.0105	-5.6
0.0022	0.0097	0.009	0.0135	-5.4
0.0045	0.0097	0.0052	0.015	-5.5
0.0045	0.006	-0.0143	0.0142	-5.4
0.027	0.003	-0.027	0.0142	-5.6
0.0495	0.0007	-0.0346	0.012	-5.6
0.0495	-0.0023	-0.0315	0.0097	-5.5
0.0255	-0.0046	0.0007	0.006	-5.6
0.0022	-0.0053	0.0187	0.0052	-5.6
-0.0008	-0.0053	0.0202	0.0075	-5.5
-0.003	0.003	0.0135	0.009	-5.5
-0.015	0.0052	0.0007	0.0067	-5.4
-0.0195	-0.003	-0.0008	0.003	-5.7
-0.003	-0.0053	-0.0015	0	-5.4
0.0157	-0.0068	-0.0105	-0.0046	-5.6
0.009	-0.0105	-0.0091	-0.006	-5.5
-0.0068	-0.003	-0.015	-0.003	-5.7
-0.021	0.0007	-0.0195	0.0007	-5.5
-0.0361	-0.003	-0.0091	0.0067	-5.4
-0.0218	0.0067	0.0015	0.0097	-5.6
0.0045	0.018	0.006	0.009	-5.4
0.018	0.0105	0.0015	0.0067	-5.7
0.0247	0.006	0.0037	0.0022	-5.5
0.0255	0.006	0.003	0.0007	-5.5
0.0337	0.0067	-0.0008	-0.0008	-5.5
0.024	-0.0023	0.0015	-0.003	-5.4
-0.0091	-0.0143	-0.003	-0.0046	-5.5
-0.033	-0.0105	-0.0083	-0.0038	-5.4
-0.0181	-0.0046	-0.012	0.0007	-5.7
0.0045	0.0022	-0.0143	0.0037	-5.6
0.0075	0.006	-0.0038	0.003	-5.4
0.0165	0.0045	0.0045	0.0015	-5.4
0.0232	-0.0008	-0.0008	-0.0008	-5.3
0.0232	-0.0046	0.0105	0	-5.6
0.018	-0.0008	0.018	0.0015	-5.5
0.009	0.0007	0.0157	-0.0008	-5.5
-0.0046	0.0007	0.0232	0	-5.5
-0.003	0.003	0.0202	0.0022	-5.4
0.0015	0.0052	0.0067	0.0015	-5.6
-0.0128	0.0015	-0.0165	-0.0008	-5.7
-0.0195	-0.0113	-0.027	-0.0053	-5.6
-0.0361	-0.0218	-0.0158	-0.0068	-5.4
-0.0691	-0.0218	-0.0113	-0.0015	-5.5
-0.0668	-0.0098	-0.0135	0.0052	-5.6
-0.012	-0.0023	-0.0158	0.0082	-5.3
0.0382	0.0045	-0.0068	0.0097	-5.5
0.0345	0.0045	0.0142	0.0067	-5.4
0.027	0.0015	0.0225	0.0067	-5.6
0.0277	0.003	0.015	0.006	-5.4
0.0307	0.0015	0.0037	0.003	-5.6
0.0412	0.0082	-0.0038	0.0015	-5.4
0.0397	0.0105	0.003	-0.0008	-5.6
0.0315	0.0105	0.0022	-0.0008	-5.5
0.0067	0.006	-0.0135	-0.003	-5.4
-0.0181	0.0007	-0.0248	-0.0015	-5.6
-0.0248	-0.0053	-0.0315	-0.0023	-5.5
-0.042	-0.0128	-0.0346	-0.0015	-5.5
-0.0503	-0.0105	-0.0278	0.0045	-5.6
-0.0511	-0.0068	-0.0068	0.0082	-5.5
-0.054	-0.0046	0.0142	0.0105	-5.5
-0.0256	0.0007	0.027	0.0105	-5.5
0.0015	0.0067	0.0322	0.0097	-5.5
0.006	0.003	0.0202	0.0052	-5.4
0.009	-0.0038	-0.0015	0.003	-5.6
0.0007	-0.0075	-0.0068	0.0007	-5.5
-0.006	-0.0046	-0.0015	0.0015	-5.5
-0.0015	0.0045	0.0045	0.0045	-5.9
0.012	0.009	0.0097	0.003	-5.4
0.0202	0.0097	0.009	0.003	-5.6
0.0202	0.0067	0.009	0.0007	-5.5
0.018	0.0015	0.006	0.0007	-5.7
0.018	-0.0046	0.0015	-0.0015	-5.4
0.0225	-0.006	0.0007	-0.006	-5.5
0.0135	-0.0083	-0.0143	-0.006	-5.6
0.0112	-0.006	-0.0181	-0.0053	-5.6
0.012	-0.003	0.0007	-0.003	-5.6
0.0157	-0.0083	-0.0046	-0.006	-5.6
0.0225	-0.0091	-0.0263	-0.0195	-5.5
0.0112	0	-0.027	-0.1448	-5.8
-0.0083	0.009	-0.0195	-0.3496	-5.7
-0.0383	0.0082	-0.015	-0.2543	-5.9
-0.063	-0.003	-0.0188	-0.0436	-5.4
-0.0706	-0.0128	-0.024	0.009	-5.6
-0.0623	-0.0046	0.0015	0.1507	-5.4
-0.0143	0.0165	0.039	0.1792	-5.6
0.042	0.021	0.0697	0.1875	-5.6
0.0517	0.0105	0.093	0.2137	-5.6
0.0382	0.0052	0.0592	0.159	-5.4
0.0292	0.0015	0.0195	0.18	-5.6
0.021	-0.0023	0.0202	0.1357	-5.6
0.0195	-0.0038	0	0.1245	-5.4
0.0165	-0.006	-0.0068	0.1095	-5.6
0.012	-0.0075	-0.0083	0.0802	-5.6
-0.0046	-0.0091	-0.0158	0.0855	-5.4
-0.0218	-0.0091	-0.024	0.0517	-5.5
-0.0218	-0.012	-0.0398	0.054	-5.6
-0.0256	-0.0046	-0.033	0.0367	-5.7
-0.012	0.0135	-0.0195	0.0307	-5.5
0.006	0.024	0	0.0232	-5.5
0.0067	0.015	0.018	0	-5.7
0.012	0.0045	0.0172	-0.0091	-5.5
0.0105	-0.0015	0.0135	-0.0293	-5.9
0.0045	-0.0091	0.0037	-0.0383	-5.4
0.0067	-0.0105	-0.0083	-0.048	-5.6
0.0015	-0.0165	-0.0053	-0.048	-5.6
0.0015	-0.012	0.0037	-0.0443	-5.6
0.015	0.0007	0.003	-0.042	-5.7
0.0195	0.0052	-0.006	-0.0383	-5.6
0.0105	0	-0.0091	-0.0428	-5.8
-0.0165	-0.0105	-0.0008	-0.042	-5.6
-0.0346	-0.012	0.0015	-0.0405	-5.6
-0.0195	0.0015	0.0045	-0.0308	-5.6
0.003	0.0135	-0.0068	-0.0315	-5.6
0.0127	0.006	-0.0308	-0.0511	-5.6
0.0112	0.0075	-0.0353	-0.063	-5.6
0.003	0.012	-0.0315	-0.0668	-5.9
-0.0113	0.0045	-0.0233	-0.0698	-5.6
-0.012	0.0007	-0.0046	-0.0675	-5.7
0.0037	-0.0015	0.003	-0.0668	-5.4
0.006	-0.003	0.0045	-0.0668	-5.6
0.003	-0.0046	0.0045	-0.0615	-5.6
0.0112	-0.0053	-0.0015	-0.0563	-5.5
0.0142	-0.0015	0.0022	-0.0503	-5.7
0.009	-0.0008	0.009	-0.048	-5.5
0.0007	0.0007	0.0082	-0.0555	-5.5
-0.012	-0.0008	0.0082	-0.0563	-5.5
-0.0218	-0.0068	-0.003	-0.0353	-5.6
-0.0473	-0.0105	-0.0195	-0.021	-5.7
-0.0585	-0.0091	-0.0181	-0.0135	-5.5
-0.033	-0.0053	-0.0128	0.003	-5.6
0.0052	-0.0046	-0.0195	0.0045	-5.6
0.0255	-0.0046	-0.0218	-0.0008	-5.8
0.0157	-0.0015	-0.0105	-0.0075	-5.6
0.015	-0.0023	0.021	-0.0143	-5.5
0.0157	-0.0015	0.0502	-0.0128	-5.7
0.0262	0	0.0285	-0.0158	-5.6
0.0457	-0.003	-0.012	-0.0203	-5.7
0.0322	0.0007	-0.012	-0.0218	-5.6
0.024	0.0045	-0.012	-0.0195	-5.6
0.0127	0.0052	-0.0203	-0.0128	-5.7
-0.003	0.0045	-0.012	-0.0091	-5.6
-0.0233	-0.0015	0.0015	-0.0075	-5.7
-0.0533	-0.0075	0.015	-0.0053	-5.5
-0.0465	-0.0046	0.012	-0.0008	-5.7
-0.0128	-0.0008	0.003	0.0082	-5.6
-0.0053	-0.0008	0.0015	0.0135	-5.5
-0.0098	0.0007	-0.0023	0.0187	-5.6
0.0045	0.0045	0.0052	0.0247	-5.6
0.0232	0.0105	0.0195	0.0277	-5.8
0.0465	0.0127	0.018	0.027	-5.5
0.0532	0.012	-0.0015	0.0225	-5.8
0.0435	0.0045	-0.0098	0.021	-5.6
0.0315	-0.0046	-0.0008	0.0127	-5.7
0.0007	-0.0105	0.0045	0.0082	-5.7
-0.06	-0.0143	-0.0053	0.0097	-5.7
-0.1335	-0.0218	-0.0293	0.0105	-5.7
-0.1426	-0.027	-0.027	0.0157	-5.4
-0.078	-0.0083	0.0075	0.0307	-5.7
0.0075	0.0165	0.0255	0.039	-5.6
0.0517	0.0112	0.0195	0.0307	-5.6
0.042	0.0037	0.0307	0.0255	-5.7
0.0307	0.0052	0.045	0.024	-5.7
0.024	0.0022	0.0285	0.0225	-5.8
0.0277	0.0045	0.0097	0.0232	-5.6
0.024	0.003	-0.0008	0.021	-5.6
0.0165	0.003	0.003	0.0202	-5.6
0.0172	0.003	0.0075	0.0195	-5.7
0.0097	-0.0008	0.0067	0.0157	-5.6
0.0052	-0.0008	0.0067	0.012	-5.6
-0.0015	-0.0046	-0.0015	0.009	-5.7
-0.0113	-0.0083	-0.0083	0.0075	-5.8
-0.0203	-0.0113	-0.0181	0.0037	-5.7
-0.021	-0.0083	-0.0218	0.0052	-5.8
-0.015	-0.0053	-0.0233	0.0045	-5.6
-0.003	-0.0015	-0.0218	0.0015	-5.8
-0.0008	0.0007	-0.0098	0	-5.5
-0.0015	-0.0008	0	-0.0046	-5.7
0.0007	-0.0015	0.003	-0.0128	-5.4
-0.0075	-0.0091	0.0052	-0.0195	-5.8
-0.003	-0.0083	0.0045	-0.0165	-5.6
0.0015	-0.0075	-0.0046	-0.0195	-5.8
-0.0143	-0.0165	-0.0158	-0.0218	-5.7
-0.045	-0.0083	-0.0233	-0.0105	-5.8
-0.0405	0.0202	-0.0361	0.0037	-5.6
0.0082	0.0232	-0.0308	0.006	-5.7
0.0187	0.0105	-0.0075	-0.0015	-5.7
0.0247	0.0097	-0.0053	-0.0105	-5.7
0.057	0.0075	0.0135	-0.0098	-5.6
0.0517	0.0052	0.039	-0.006	-5.8
0.0247	0.0015	0.03	-0.0068	-5.6
0.0022	0.0015	0.0232	-0.003	-5.9
-0.0068	0.0015	0.021	-0.003	-5.6
-0.0023	0.0007	0.0105	-0.0038	-5.9
0	0.0007	-0.0008	-0.0046	-5.5
0.0045	-0.0046	-0.0113	-0.0053	-5.8
0.0112	-0.0091	-0.0158	-0.027	-5.8
0.0157	-0.0158	-0.0203	-0.1418	-5.7
-0.0143	-0.0158	-0.0195	-0.2535	-5.9
-0.045	-0.0075	-0.0113	-0.1778	-5.8
-0.0368	0.0007	-0.006	-0.099	-5.8
0.003	0.0097	0.003	-0.057	-5.6
0.0502	0.0142	0.0082	0.0195	-5.6
0.0532	0.003	-0.0053	0.0225	-5.8
0.0292	-0.003	-0.0233	0.0532	-5.7
0.012	0.003	-0.033	0.0592	-5.9
0.0022	0.0007	-0.021	0.0495	-5.6
-0.003	0.0037	0.0015	0.0637	-5.9
-0.0158	0.003	0.0127	0.0465	-5.7
-0.0113	-0.0015	0.0157	0.0592	-5.8
0.0067	-0.0046	0.0082	0.0502	-5.7
0.015	-0.0091	-0.0091	0.0547	-5.7
0.009	-0.0046	-0.0256	0.0615	-5.9
-0.006	-0.003	-0.0315	0.0525	-5.6
-0.0218	-0.003	-0.0203	0.048	-5.9
-0.0383	-0.0046	-0.003	0.0337	-5.7
-0.0675	-0.0091	0.0142	0.045	-5.8
-0.075	-0.0091	0.018	0.039	-5.8
-0.0413	-0.0038	0.0232	0.0397	-5.8
-0.0098	0.0075	0.048	0.042	-5.7
0.0172	0.0127	0.0472	0.0367	-5.9
0.0247	0.0082	0.0135	0.0427	-5.7
0.0195	0.0075	0.0015	0.0322	-5.7
0.0217	0.0052	-0.0023	0.0307	-5.8
0.0217	0.0045	-0.0173	0.0232	-5.8
0.0202	0.0007	-0.0181	0.0202	-5.7
0.0082	-0.003	-0.0098	0.0202	-5.9
-0.003	-0.0053	-0.0015	0.0135	-5.6
-0.0046	-0.0046	0.0007	0.009	-5.7
0.0067	0.003	-0.0053	-0.0015	-5.7
0.0165	0.0045	-0.0113	0.003	-5.9
0.0157	0.0015	-0.0083	0.0022	-5.6
0.018	0.0015	-0.0008	-0.0008	-5.9
0.009	-0.0015	-0.0068	-0.0053	-5.7
0.0045	-0.0023	-0.0128	-0.0105	-5.6
-0.0053	-0.0038	-0.0083	-0.0263	-5.8
-0.0256	-0.0068	-0.0075	-0.054	-5.7
-0.0278	-0.0053	-0.003	-0.0405	-5.6
-0.0128	0.0015	0.0157	-0.0233	-5.5
-0.003	0.0015	0.0307	-0.024	-5.7
-0.003	-0.0053	0.0165	-0.0158	-5.6
0.0082	-0.0068	-0.0105	-0.0128	-5.7
0.009	0.0022	-0.0113	-0.0015	-5.7
-0.0128	0.0007	-0.0143	0.0067	-5.7
-0.0346	-0.0068	-0.033	0.015	-5.7
-0.0308	-0.0008	-0.039	0.0187	-5.8
0.0037	0.0045	-0.015	0.0255	-5.6
0.0322	0.0052	0.03	0.0435	-5.9
0.0322	0.0052	0.0517	0.0382	-5.6
0.0232	-0.003	0.0495	0.0307	-5.8
0.009	-0.0068	0.0367	0.0247	-5.9
0.0082	-0.0008	0.003	0.0165	-5.6
0.0097	-0.0008	-0.0181	0.0112	-5.7
0.0015	-0.0015	-0.0053	-0.0038	-5.6
0	0.0007	0.0165	-0.0315	-5.7
-0.0143	-0.0023	0.0172	-0.045	-5.5
-0.0158	-0.0015	0.0022	-0.0323	-5.7
-0.0113	-0.0046	-0.0015	-0.0256	-5.5
-0.0135	-0.0083	-0.0046	-0.015	-5.8
-0.0105	-0.012	-0.0068	-0.0083	-5.8
-0.0188	-0.0143	-0.0091	-0.0053	-5.7
-0.0248	-0.0068	-0.012	0.0052	-5.8
-0.0068	0.0052	0.0022	0.0142	-5.5
0.027	0.0127	0.006	0.021	-5.9
0.0427	0.0105	-0.0158	0.0202	-5.7
0.0315	0.0067	-0.0143	0.0165	-5.9
0.0157	0.0007	-0.0008	0.0127	-5.6
0.0097	0.0022	0.0022	0.0127	-5.7
0.0007	0.0052	0.0082	0.0105	-5.6
-0.0023	0.0037	-0.0008	0.0067	-5.6
-0.0068	0.0015	-0.0083	0.0082	-5.9
-0.012	0.003	-0.0068	0.0097	-5.6
-0.0046	0.0067	-0.0053	0.0127	-5.8
-0.0046	0.003	-0.0075	0.0112	-5.7
-0.0113	0.0007	-0.006	0.0105	-5.6
-0.0165	-0.0046	0.006	0.0105	-5.8
-0.0338	-0.0098	0.0135	0.009	-5.7
-0.0315	-0.0105	0.018	0.0112	-5.7
-0.0218	-0.0128	0.0195	0.0105	-5.8
-0.03	-0.006	0.0195	0.0165	-5.8
-0.0165	0.0067	-0.0053	0.0172	-5.7
-0.0046	-0.0015	-0.0375	0.0127	-5.9
0.003	-0.0046	-0.0458	0.0105	-5.8
0.0315	0.0067	-0.0436	0.0052	-5.9
0.0367	0.0097	-0.0203	0.0015	-5.6
0.0285	0.0105	0.006	-0.0008	-5.9
0.021	0.003	0.0112	-0.0053	-5.8
0.027	0.0022	0.0157	-0.0046	-5.9
0.0307	0.003	0.0127	-0.0046	-5.8
0.0157	-0.003	0.0105	-0.0068	-6
0.0045	-0.0053	0.003	-0.0068	-5.8
-0.0015	-0.0098	-0.0053	-0.0113	-5.9
-0.0053	-0.0128	0.0052	-0.0135	-5.8
-0.0248	-0.0098	-0.0046	-0.0083	-5.9
-0.0465	-0.0046	-0.015	-0.0038	-5.9
-0.0428	0.003	-0.0128	-0.0015	-5.8
-0.0256	0.0045	-0.015	-0.0015	-5.8
0.0007	0.003	0.0007	-0.003	-5.9
0.0015	0.0022	0.009	-0.0068	-5.9
-0.0128	-0.0046	0.003	-0.0091	-5.9
-0.0158	-0.0015	0.006	-0.0053	-5.9
-0.0083	0.003	0.0105	-0.0053	-6
0.0082	0.0015	0.0097	-0.006	-5.8
0.0165	0.0045	0.0052	-0.0053	-5.9
0.0165	0.003	-0.0023	-0.0068	-5.6
0.0195	-0.0015	-0.0046	-0.0068	-5.9
0.018	-0.0091	-0.006	-0.0091	-5.9
-0.006	-0.0181	-0.012	-0.0105	-5.9
-0.0188	-0.0181	-0.012	-0.006	-6
-0.0015	-0.0083	-0.0083	-0.0008	-5.8
0.021	0.0067	0.018	0.003	-5.9
0.0247	0.0135	0.0345	0.0015	-5.7
0.0127	0.006	0.0195	-0.0038	-5.9
0.0142	0.0015	0.0127	-0.0053	-5.9
0.018	0	0.021	-0.0053	-5.9
0.015	-0.0023	0.0247	-0.0046	-5.9
0.0127	0.0007	0.009	-0.0015	-5.9
0.0075	0.0015	-0.0143	-0.0023	-6
0.003	0.0022	-0.021	0.0022	-5.9
-0.0098	0.0007	-0.0285	0.0045	-5.9
-0.0256	0.0015	-0.0368	0.003	-5.9
-0.03	-0.0038	-0.042	0.0045	-5.8
-0.0293	-0.0053	-0.0405	0.0052	-5.9
-0.021	0.0007	-0.0405	0.0067	-5.8
-0.003	0	-0.0195	0.0105	-6.1
0.0037	0.0022	0.0345	0.0105	-5.8
0.0015	0.0045	0.0517	0.009	-6.1
0.0082	0.0052	0.024	0.0082	-5.8
0.021	0.003	0.009	0.0022	-5.8
0.0195	-0.0023	0.0052	-0.0008	-5.8
0.003	-0.0105	0.0052	-0.003	-5.9
-0.0068	-0.0158	-0.0015	-0.003	-5.9
-0.0158	-0.003	-0.0053	0.0067	-6
-0.015	0.0067	0.0052	0.0112	-5.9
0.003	0.0007	0.0052	0.0142	-6.1
0.0127	-0.0023	0	0.0135	-5.8
0.0112	0	-0.0128	0.0135	-6.2
0.0217	0.006	-0.0218	0.0127	-5.9
0.0225	0.0105	-0.003	0.0075	-5.9
0.009	0.0067	0.0112	0.0037	-5.8
-0.0008	0.0015	0.015	-0.0015	-6.1
-0.0091	-0.0015	0.0075	-0.0053	-5.9
-0.0105	-0.003	0.0052	-0.006	-5.9
-0.012	-0.0046	-0.0015	-0.0038	-5.9
-0.003	-0.003	-0.0053	-0.0038	-5.9
0.0045	-0.0008	-0.0008	-0.0068	-5.9
0.0022	0.0007	-0.0046	-0.0083	-5.9
0.003	0.0015	-0.0015	-0.0091	-5.9
0.003	-0.0015	0.0045	-0.0105	-5.9
0.0082	-0.003	0.0022	-0.0135	-5.9
0.0015	-0.0053	-0.0195	-0.0181	-6
-0.012	-0.0068	-0.0338	-0.0143	-5.9
-0.0128	-0.0068	-0.0323	-0.0091	-5.9
-0.0105	-0.0046	-0.0225	-0.0068	-5.8
-0.0105	0	0.0082	-0.003	-6.1
-0.0098	0.0022	0.0157	-0.0008	-5.9
0.0045	0.0052	0.0202	0.0007	-5.9
0.0172	0.006	0.0405	0.0015	-6
0.0052	0	0.0315	0	-5.9
-0.0068	-0.0046	0.0112	-0.0046	-6
-0.0105	-0.0105	-0.0105	-0.0091	-5.9
-0.0068	-0.0083	-0.0188	-0.0083	-5.9
0.003	0.0045	-0.0053	-0.0015	-6
0.0052	0.009	0.0105	0.003	-5.9
0.0015	0.0045	0.009	0.0022	-6
-0.0075	-0.0015	0.003	0.0045	-5.8
-0.0098	-0.0015	-0.0038	0.0045	-6
0.0007	0	-0.0165	0.0045	-6
-0.0023	0.0007	-0.0158	0.0045	-5.9
-0.0188	-0.0015	-0.0091	0.009	-5.9
-0.0203	0.0015	-0.0053	0.0165	-5.8
-0.0091	0.0052	-0.0075	0.0217	-6.1
-0.0008	0.003	-0.0158	0.0307	-5.9
0.0052	0.0045	-0.0128	0.0277	-6
0.0082	0.0007	-0.0128	0.0187	-5.8
0.0165	-0.0015	-0.0091	0.0157	-6
0.0172	-0.0023	-0.0015	0.0105	-5.8
0.0082	-0.003	-0.0053	0.0082	-5.9
0.0075	-0.0015	0	0.006	-5.9
0.009	-0.0038	0.0202	0.0007	-5.9
0.0082	-0.0053	0.027	-0.0008	-5.9
0.0037	-0.0075	0.0157	-0.0046	-5.9
-0.0075	-0.0083	0.0007	-0.006	-5.9
-0.0068	-0.0053	-0.0053	-0.0046	-5.9
0.0067	-0.0008	-0.0015	-0.0008	-5.9
0.0127	0.0015	0.0015	0.0007	-5.9
0.0127	0.0007	-0.0015	-0.0008	-5.9
0.0127	0.0007	-0.003	-0.0015	-5.9
0.0165	0.0015	-0.003	-0.0068	-5.9
0.0127	0.0015	-0.0068	-0.0083	-6
0.0052	0.0037	-0.0091	-0.0091	-6.1
-0.0053	0.0045	-0.012	-0.0091	-5.9
-0.0143	0	-0.0091	-0.0068	-5.9
-0.0158	-0.0008	0.0015	-0.0038	-5.9
-0.03	0.0007	0	-0.0008	-5.8
-0.042	-0.0015	-0.0015	-0.003	-5.8
-0.0203	0	-0.0015	-0.0015	-5.9
0.0082	0.0052	0	0	-6.2
0.0202	0.0045	0.0172	-0.0008	-5.7
0.0195	0.0015	0.0255	-0.0038	-6.2
0.0165	-0.0008	0.0232	-0.0083	-5.7
0.018	-0.0053	0.0045	-0.0083	-6.1
-0.0038	-0.0083	-0.0128	-0.0105	-5.9
-0.0346	-0.0091	-0.0105	-0.0113	-6
-0.0503	-0.0053	-0.0195	-0.0083	-6.1
-0.0443	0.003	-0.012	-0.0083	-5.8
-0.0346	0.003	0.0052	-0.0068	-5.9
-0.0248	0.0015	0.0157	-0.0046	-5.7
0.024	0.0082	0.039	-0.0038	-6.1
0.057	0.0127	0.0367	-0.003	-6
0.0397	0.0067	0.0112	-0.0053	-5.9
0.027	-0.0008	-0.0023	-0.0091	-5.9
0.0202	-0.0038	-0.003	-0.012	-5.9
-0.0015	-0.0083	-0.0046	-0.0165	-6.2
-0.0165	-0.015	-0.0083	-0.0165	-6
0	-0.015	-0.0046	-0.0128	-6
0.018	-0.0091	-0.006	-0.0098	-5.9
0.0052	-0.0008	-0.0158	-0.0068	-6
-0.0143	0.0022	-0.024	-0.0053	-6.1
0	0.0045	-0.024	-0.0015	-5.9
0.0217	0.0127	-0.012	-0.0008	-6
-0.0008	0.0045	-0.0015	-0.006	-5.9
-0.0495	-0.0143	-0.006	-0.0053	-6
-0.0683	-0.012	-0.0075	0	-5.9
-0.0443	-0.0038	0.006	0.0075	-6.1
0.0015	0.0082	0.015	0.009	-6
0.0255	0.009	0.009	0.0052	-5.9
0.0232	0.0052	-0.0046	0.0045	-6.1
0.0172	0.0045	-0.0046	0.0007	-6.2
0.012	0.0007	0.012	-0.0023	-6.1
0.0052	0.0015	0.018	-0.0068	-6.1
0	-0.0008	0.0157	-0.0091	-5.9
-0.0023	-0.0015	0.0127	-0.0105	-6.1
-0.0015	-0.0015	0.0052	-0.0128	-6.1
-0.0008	0.0015	0.0037	-0.0091	-6.3
0.0007	0.003	-0.0008	-0.0038	-6
0.003	0.0015	-0.006	-0.0015	-6.3
0.0067	0	-0.0135	-0.003	-6.2
0.0135	-0.0046	-0.0181	-0.0053	-6.2
0.0127	-0.0083	-0.012	-0.0083	-6.3
0.0015	-0.0128	-0.012	-0.0068	-5.9
-0.0165	-0.0091	-0.0158	-0.0038	-6.2
-0.042	-0.003	-0.0143	-0.0015	-6.1
-0.0555	-0.0098	-0.0135	-0.0008	-6
-0.0361	-0.012	-0.0128	-0.0008	-6.1
0.0082	-0.0023	-0.015	0.0015	-6
0.036	0.0037	-0.0158	0.003	-6.2
0.0367	0.006	0.0082	0.0037	-5.9
0.0285	0.0052	0.033	0.0022	-6.2
0.0187	0.0007	0.0292	0.0022	-6
0.0142	0	0.0142	0.0015	-6
0.0142	-0.0015	0.0052	0	-6
0.009	-0.0038	0.003	0.0015	-5.9
-0.0068	-0.0046	-0.0023	0.0037	-6.1
-0.0218	-0.0023	-0.0023	0.0067	-6
-0.0173	0.0082	-0.0068	0.0112	-6.2
0.0097	0.0157	-0.0158	0.0127	-6
0.024	0.009	-0.0053	0.009	-6.1
0.018	0.0015	0.0105	0.0007	-6.1
0.015	-0.003	0.0112	-0.0008	-5.9
0.0045	-0.0015	0.0075	0.0045	-6
-0.0098	0.0045	0.0105	0.0082	-6
-0.0091	0.0045	0.0045	0.0052	-6
-0.0023	0.0045	0.003	0.0067	-6
0.0052	0.0015	0.0067	0.0127	-6
0.009	0.003	0.003	0.018	-6.2
0.0082	0.003	-0.006	0.0202	-6
0.0052	-0.0023	-0.0165	0.0195	-6.3
-0.0015	-0.0083	-0.0181	0.0157	-6
-0.0256	-0.0128	-0.0083	0.0172	-6.2
-0.039	-0.0098	-0.0015	0.0202	-6.1
-0.0098	-0.006	-0.0091	0.0232	-6
0.021	-0.0008	-0.0038	0.027	-6.1
0.0315	0.0007	0.0127	0.0217	-5.9
0.0277	0.0007	0.0082	0.0195	-5.9
0.0135	0	0.0015	0.0217	-6
0.0075	-0.0015	0.0052	0.021	-5.9
-0.0015	0.0007	0.0022	0.0232	-6
-0.0075	0.0022	-0.003	0.0255	-5.9
-0.0098	0.0045	-0.0038	0.0262	-6.2
-0.012	0.0045	-0.0083	0.0217	-5.9
-0.0083	0.0045	-0.0068	0.0127	-6.1
-0.0068	0.003	-0.006	0.009	-5.9
-0.0053	0.003	-0.0068	0.003	-6.1
-0.0046	0.0015	-0.0046	-0.0015	-5.9
-0.0008	-0.0038	-0.003	-0.0053	-6
-0.0046	-0.0068	-0.0046	-0.0091	-5.9
-0.0165	-0.0105	-0.0068	-0.0091	-6
-0.012	-0.006	-0.0135	-0.0098	-6.2
0.006	0	-0.0165	-0.0105	-6.2
0.0067	-0.0008	-0.012	-0.0105	-6
0.0015	0.006	-0.0181	-0.0098	-6.1
0.0105	0.0015	-0.027	-0.0105	-6.1
0.0165	-0.003	-0.0068	-0.0105	-6.1
0.0082	0.0007	0.0127	-0.0083	-5.9
0.0052	0.0007	0.006	-0.0091	-5.9
0.0135	0.0022	0.0015	-0.0068	-6
0.009	0.0037	0.0007	-0.0053	-5.9
-0.0008	0.0022	-0.0046	-0.0015	-6.2
-0.0008	0	-0.0008	-0.0023	-5.9
-0.0068	-0.0046	0.0007	-0.0068	-6.1
-0.0248	-0.0128	-0.003	-0.006	-5.8
-0.0256	-0.012	-0.003	-0.0046	-6.2
0.003	-0.0015	0.012	-0.0008	-6
0.018	0.0045	0.0232	0.0007	-6.1
0.009	0.0082	0.0217	0	-6.1
-0.0181	0.006	0.021	-0.0008	-6
-0.048	-0.0015	0.0112	-0.0046	-6
-0.0578	-0.003	0.0007	-0.003	-6.1
-0.039	0.006	0.0022	0.0015	-6
-0.0105	0.0045	0.0097	-0.0008	-6.1
-0.0218	-0.0091	0.0142	-0.0023	-6.2
-0.0293	-0.0098	0.006	0.0007	-6.2
-0.0091	0.0015	0.0127	0.0052	-6
0.0127	0.0075	0.0105	0.0082	-6.2
0.0457	0.0022	-0.003	0.0097	-5.9
0.0577	0.003	0.0015	0.0082	-6.2
0.0412	0	0.0037	0.0007	-5.9
0.0225	-0.003	0.0105	-0.0015	-6.1
0.0157	-0.003	0.009	-0.0053	-6
0.009	-0.0046	0	-0.0053	-6.1
0.012	-0.0008	0.0022	-0.0053	-6.2
0.0157	-0.0015	-0.0008	-0.0113	-6.1
0.0097	-0.0008	-0.0015	-0.012	-6
0.0067	-0.0015	-0.0105	-0.0128	-6.3
0.0045	-0.0008	-0.0195	-0.0128	-6.1
-0.0023	-0.0046	-0.0091	-0.0105	-6.3
-0.0105	-0.0068	-0.0046	-0.0091	-6.1
-0.0353	-0.0046	-0.012	-0.0105	-6.3
-0.0638	-0.0143	-0.0233	-0.0158	-6.2
-0.057	-0.0113	-0.0218	-0.0128	-6.2
-0.0158	-0.0015	0	-0.0068	-6.2
0.0165	0.0067	0.027	-0.0023	-6.2
0.0165	0.0097	0.0255	0.003	-6.2
0.0187	0.0007	-0.0008	0.0007	-6.1
0.0262	-0.003	0.0037	0.003	-6.2
0.024	0.0015	0.0232	0.0052	-6.1
0.0277	0.0052	0.0255	0.003	-6.1
0.0135	0.0015	0.015	0.0022	-6.3
-0.0008	0.0007	-0.0053	0	-6.3
-0.0068	-0.0038	-0.012	-0.0015	-6.2
-0.0218	-0.0083	-0.012	-0.0015	-6.2
-0.0248	-0.006	-0.0181	-0.0008	-6.4
-0.0248	-0.0038	-0.0233	0.0015	-6.2
-0.0143	0.0015	-0.0256	0.003	-6.3
0.0075	0.0045	-0.0225	0.0007	-6.3
0.0217	0.0037	-0.0023	-0.0008	-6.3
0.0157	0.0037	0.009	-0.0015	-6.3
0.006	0.0045	0.0015	-0.0023	-6.1
0.012	0.0037	0.0067	-0.0015	-6.5
0.0202	0.006	0.0067	-0.0046	-6.1
0.0202	0.0045	0.009	-0.006	-6.4
-0.0015	0.0022	0.0052	-0.0068	-6.2
-0.021	0	-0.0053	-0.0083	-6.5
-0.021	-0.003	-0.0083	-0.0091	-6.3
-0.03	-0.006	-0.021	-0.0075	-6.5
-0.045	-0.0068	-0.039	-0.0023	-6.4
-0.0383	-0.0068	-0.0518	-0.0008	-6.3
-0.0225	-0.0105	-0.0593	-0.0038	-6.3
-0.0091	-0.0105	-0.054	-0.0068	-6.4
0.0015	-0.012	-0.0315	-0.0105	-6.2
0.003	-0.003	-0.0015	-0.0091	-6.3
0.0067	0.0112	0.015	-0.006	-6.3
0.0067	0.0105	0.027	-0.0038	-6.3
0.006	0.0052	0.0465	-0.0038	-6.2
0.012	0.0082	0.0645	-0.0181	-6.3
0.021	0.0045	0.057	-0.042	-6.5
0.0247	0.003	0.033	-0.0361	-6.3
0.0127	0.0015	0.0202	-0.0203	-6.3
0.0067	0	0.0142	-0.015	-6.3
0.0045	0.0007	0.003	-0.0038	-6.3
0.0052	-0.0008	0.0015	-0.0008	-6.3
0.003	0	0.0015	0.0075	-6.2
-0.0038	-0.0008	-0.0068	0.0112	-6.5
-0.0015	-0.0023	-0.0143	0.0127	-6.1
0.0015	-0.0046	-0.0135	0.0202	-6.5
0.0052	-0.0083	-0.0143	0.0127	-6.3
0.0037	-0.0068	-0.024	0.015	-6.3
-0.0053	-0.0046	-0.0353	0.0142	-6.4
-0.0015	-0.0075	-0.0361	0.0142	-6.3
0.0105	-0.0053	-0.0338	0.018	-6.3
0.024	-0.0008	-0.0165	0.0165	-6.2
0.0225	0.0007	0.0165	0.018	-6.4
0.0127	0.0067	0.0262	0.0187	-6.2
0.0105	0.0052	0.0105	0.0165	-6.4
0.003	0.0015	0.0052	0.0165	-6.3
0.0007	0	0.0067	0.0172	-6.3
-0.0015	-0.003	0.0067	0.015	-6.2
-0.0023	-0.003	0.009	0.0165	-6.3
-0.0008	-0.0023	0.0127	0.0165	-6.3
0.003	-0.0008	0.0135	0.0142	-6.3
0.0075	-0.0015	0.0052	0.015	-6.2
0.0067	-0.0015	0.003	0.0142	-6.3
0.0015	-0.0008	0.0045	0.0142	-6.3
-0.0046	-0.0015	0.003	0.018	-6.4
-0.0038	-0.0015	0.0082	0.0202	-6.3
-0.0068	0.0007	0.0082	0.0195	-6.4
-0.0203	0.0037	0.0037	0.018	-6.3
-0.0308	0.006	-0.003	0.0172	-6.3
-0.0368	-0.0008	-0.0038	0.015	-6.3
-0.024	-0.0068	-0.0046	0.021	-6.3
0.0067	-0.0038	-0.0113	0.0262	-6.5
0.0157	-0.0038	-0.0203	0.0255	-6.4
-0.0008	-0.0053	-0.0225	0.0255	-6.5
-0.0075	-0.0046	-0.0091	0.024	-6.2
-0.0015	0.0015	-0.006	0.0255	-6.2
0.003	0.006	-0.0015	0.0262	-6.3
-0.0008	0.003	0.006	0.027	-6.2
-0.003	-0.003	0.0045	0.0367	-6.5
0.0007	-0.0015	0.0045	0.0487	-6.2
-0.003	0.0045	0.0007	0.051	-6.4
-0.0091	0.0007	-0.0023	0.0412	-6.4
0.0007	-0.003	-0.0091	0.03	-6.4
0.0202	-0.0008	-0.0008	0.0157	-6.5
0.015	-0.0038	0.0127	0.003	-6.3
-0.0068	-0.0038	0.0082	-0.0083	-6.5
-0.0113	-0.0046	0.0105	-0.0173	-6.3
-0.012	-0.0038	0.006	-0.0181	-6.5
-0.0158	0.0015	0.0037	-0.0158	-6.3
-0.0083	0.006	0.009	-0.0158	-6.3
-0.0105	0.0067	0.0172	-0.0188	-6.4
-0.0195	0.003	0.0112	-0.0233	-6.4
-0.015	-0.0015	-0.0008	-0.0256	-6.5
-0.0091	-0.003	0.003	-0.0248	-6.4
0.009	-0.0008	0	-0.0248	-6.5
0.03	0.0015	0.0052	-0.0263	-6.5
0.0315	0.0037	-0.003	-0.0278	-6.6
0.0232	0.0067	-0.0158	-0.0285	-6.7
0.0142	0.0082	-0.0158	-0.0285	-6.5
0.0067	0.0052	-0.0233	-0.0278	-6.5
0.009	0.0015	-0.0135	-0.0293	-6.6
-0.0008	-0.0046	0.0037	-0.0315	-6.7
-0.0263	-0.0135	0.0067	-0.0353	-6.6
-0.0405	-0.0158	0.0067	-0.0308	-6.4
-0.0263	-0.0046	0.0217	-0.0225	-6.7
0.0045	0.0082	0.0277	-0.0181	-6.6
0.0292	0.009	0.012	-0.0165	-6.7
0.033	0.0045	0.003	-0.0173	-6.6
0.015	0.0045	0.0075	-0.0158	-6.5
0.0082	0.0052	0.0097	-0.0135	-6.8
0.0045	0.0037	0.0082	-0.0165	-6.6
-0.0098	0.003	0.003	-0.0158	-6.8
-0.0135	0.0007	-0.003	-0.0195	-6.6
-0.0098	-0.0083	-0.0068	-0.0233	-6.8
-0.0083	-0.0143	-0.0083	-0.0233	-6.8
-0.0173	-0.0143	-0.0128	-0.0233	-6.8
-0.0256	-0.0075	-0.0203	-0.0158	-6.8
-0.0203	-0.0008	-0.0285	-0.012	-6.8
-0.0098	-0.0038	-0.0285	-0.0113	-6.8
-0.003	-0.0068	-0.0195	-0.0098	-6.9
-0.0008	-0.0038	0.0015	-0.0046	-7
-0.0046	0.003	0.009	-0.0015	-6.9
-0.0083	0.0007	-0.003	-0.0038	-6.8
0.012	0.0007	-0.0008	-0.0015	-7.1
0.0187	0.003	0.0097	-0.003	-6.8
0.012	0.0007	0.0015	-0.0053	-7.1
0.0082	0.0015	-0.0015	-0.0068	-6.8
-0.0008	0.0007	0.003	-0.0068	-7
-0.0015	0.0015	0	-0.0053	-6.9
-0.0023	0.0007	0.0007	-0.003	-6.9
0.0037	0.0022	0	0.0007	-7.1
0.006	0.0007	0	-0.0008	-7
0.0007	0	0.0007	-0.0015	-7.1
-0.0015	-0.0015	-0.0068	-0.003	-7
-0.0038	-0.003	-0.0105	-0.0015	-7.2
-0.0008	-0.0015	-0.006	0	-6.9
-0.0008	-0.0046	-0.0053	0.0007	-7.1
-0.003	-0.0053	-0.0135	0.0015	-7
-0.0075	0	-0.0165	0.0052	-7.1
-0.0091	0.0067	-0.006	0.0082	-7
-0.012	-0.0023	0.0037	0.0067	-7.1
-0.012	-0.0068	-0.0038	0.0127	-7.1
0.0082	0.0015	-0.0128	0.0142	-7.2
0.0277	0.0045	-0.006	0.0127	-7.1
0.027	0.0022	0.0045	0.0112	-7.1
0.012	-0.0015	0.0082	0.0067	-7.1
0.0007	-0.0008	0.0195	0.0112	-7.2
-0.0046	-0.0015	0.0127	0.0105	-7
0.0007	0.0007	0.0022	0.0082	-7.1
0.0037	0.0007	0.003	0.009	-7.1
0.003	0	-0.0008	0.0135	-7
0.0067	0.0007	-0.0015	0.0195	-7.1
0.012	0	-0.0068	0.0217	-7.2
0.0202	0.0015	-0.0098	0.0202	-7.1
0.0232	0.0015	-0.0083	0.0202	-7.2
0.0195	-0.0008	-0.0068	0.021	-7.1
0.0082	-0.003	-0.0015	0.0225	-7.2
-0.0135	-0.0046	-0.0015	0.0292	-7
-0.0361	-0.0105	-0.0015	0.0337	-7.3
-0.0518	-0.0113	-0.0008	0.0427	-7.2
-0.033	-0.0015	-0.0015	0.0532	-7.3
0.0045	0.003	-0.0015	0.0517	-7.1
0.0105	0.0015	-0.0091	0.0442	-7.2
0.0007	-0.003	-0.0188	0.0352	-7.2
0.0127	-0.0023	-0.0046	0.0285	-7.2
0.0142	-0.003	0.0015	0.0255	-7.3
0.003	-0.0008	-0.0046	0.0217	-7.1
-0.0053	0.0067	-0.0083	0.0217	-7.4
-0.003	0.0067	-0.0188	0.0232	-7.3
0.0067	0.0052	-0.015	0.0217	-7.3
0.0105	0.003	0.0015	0.0135	-7.3
0.0097	-0.0008	0.0127	0.0037	-7.2
0.0045	-0.0046	0.0142	0.0007	-7.3
0.0037	-0.0053	0.0157	0.0015	-7.3
0.0105	-0.003	0.0165	-0.0008	-7.1
0.0142	0.0007	0.0165	-0.0075	-7.5
0.0105	0.003	0.027	-0.0083	-7.2
0.0082	0.0015	0.024	-0.0068	-7.2
0.0105	0.0015	0.0135	-0.0098	-7.2
0.0082	-0.0008	0.012	-0.0128	-7.3
0.003	-0.003	0.012	-0.012	-7.3
-0.0053	-0.003	0.0082	-0.0091	-7.3
-0.0128	-0.0046	0.0045	-0.012	-7.4
-0.015	-0.0015	-0.0008	-0.015	-7.3
-0.0098	0.0052	-0.0046	-0.0128	-7.5
-0.0113	0.0067	-0.0053	-0.0143	-7.4
-0.0181	0.0015	-0.0046	-0.0158	-7.5
-0.0128	-0.003	-0.0098	-0.0158	-7.7
-0.0046	-0.003	-0.0188	-0.0181	-7.3
-0.0015	-0.0038	-0.0105	-0.0165	-7.6
0.0022	-0.0023	0.0037	-0.0181	-7.5
0.006	-0.003	0.0127	-0.0195	-7.7
0.0022	-0.0038	0.0217	-0.0218	-7.6
0.003	-0.003	0.0165	-0.0218	-7.6
0.0022	-0.003	0.0112	-0.021	-7.5
-0.0068	-0.0015	0.0045	-0.0195	-7.7
-0.0143	0.0022	-0.003	-0.0188	-7.7
-0.0158	0.0045	-0.0038	-0.0181	-7.7
-0.0046	0.0037	-0.0113	-0.0173	-7.7
-0.0053	0.0022	-0.0173	-0.0188	-7.7
-0.0128	-0.0008	-0.0195	-0.0195	-7.7
-0.012	0	-0.0263	-0.0203	-7.9
-0.0105	0.0015	-0.0256	-0.024	-7.9
-0.012	0.0015	-0.0075	-0.0263	-7.7
-0.0256	0.0007	0.0112	-0.027	-7.7
-0.0346	-0.0038	0.0157	-0.0263	-7.7
-0.0285	-0.0091	0.0232	-0.024	-7.9
-0.0218	-0.006	0.0165	-0.0203	-7.8
-0.012	-0.0008	0.0052	-0.0398	-8
0.0067	0.003	-0.0015	-0.0765	-8
0.0292	0.0067	-0.0203	-0.0893	-8.1
0.036	0.0067	-0.0218	-0.0818	-7.9
0.0292	0.0045	-0.0143	-0.0795	-8.1
0.0165	0.0022	0.0052	-0.066	-8.1
-0.003	0.0015	0.027	-0.0533	-7.9
-0.0143	-0.0008	0.0225	-0.0428	-8.1
-0.0165	-0.0038	0.0217	-0.0293	-8
-0.0195	-0.0046	0.0157	-0.0173	-8.1
-0.0256	-0.0083	0.0045	-0.0046	-8.2
-0.0233	-0.0091	-0.0008	0.0052	-8.2
-0.0113	-0.0068	-0.0083	0.0165	-8.5
0.0052	-0.003	-0.012	0.0217	-8.1
0.0142	-0.0008	-0.006	0.027	-8.3
0.015	-0.0015	0.0022	0.0307	-8.2
0.0195	0.003	0.0067	0.03	-8.5
0.0232	0.0045	0.0075	0.0307	-8.4
0.0142	0.003	0.0052	0.0307	-8.3
0.0067	0	0.0082	0.033	-8.5
0	0	0.012	0.0345	-8.3
-0.0083	0.0022	0.0105	0.0352	-8.6
-0.0143	0	0.006	0.0345	-8.5
-0.0173	0.0007	0.0052	0.0322	-8.7
-0.015	0.0007	0.0022	0.0315	-8.5
-0.0046	-0.0015	-0.003	0.0292	-8.7
0.0112	-0.0015	-0.0046	0.024	-8.8
0.012	-0.0023	-0.0091	0.0165	-8.8
0.0052	-0.0046	-0.012	0.0135	-8.9
0.0015	-0.0008	-0.0188	0.012	-8.8
-0.0008	0.0052	-0.024	0.0142	-8.8
-0.0053	0.006	-0.0263	0.021	-9
-0.012	0.0007	-0.0278	0.0225	-8.8
-0.015	-0.0038	-0.0315	0.0202	-9
-0.0181	-0.0075	-0.0383	0.0172	-8.9
-0.0128	-0.0053	-0.042	0.0165	-9
-0.0023	-0.0015	-0.0263	0.0165	-8.9
0.0037	-0.0008	-0.0083	0.012	-8.9
0.0052	0.0022	-0.0091	0.0082	-9
0.012	-0.003	-0.006	0	-9
0.0217	-0.0008	0.0015	-0.0091	-9
0.0292	0.003	-0.0023	-0.0158	-9
0.0315	0.003	-0.0046	-0.0181	-8.9
0.0217	0.0015	-0.0053	-0.0165	-9.4
0.015	-0.0038	-0.0105	-0.0181	-9
0.0075	-0.006	-0.0038	-0.0165	-9.3
0.0007	-0.0053	0.009	-0.0135	-8.9
0.0105	0	0.009	-0.0218	-9.2
0.0187	0.0007	0.0045	-0.0375	-9
0.0217	0	-0.0038	-0.063	-9.2
0.0142	-0.0038	0.0007	-0.0691	-9.3
-0.0023	-0.0098	0.0195	-0.06	-9.2
-0.0046	-0.0083	0.0255	-0.0593	-9.3
0.006	0.0007	0.0127	-0.039	-9.1
0.0187	0.0045	-0.0053	-0.024	-9.4
0.0195	0.0007	-0.0113	-0.0158	-9.4
0.0172	0.0015	-0.0083	0.003	-9.4
0.015	0.0007	-0.0068	0.009	-9.5
0.009	-0.0008	-0.006	0.0165	-9.3
0.0067	-0.0015	-0.0083	0.0195	-9.4
0.003	-0.0008	-0.0053	0.021	-9.4
0.0015	-0.0008	0.0015	0.0195	-9.2
-0.0038	-0.003	0.0037	0.024	-9.5
-0.0083	0.0015	0.0142	0.0382	-9.4
-0.0046	0.0105	0.027	0.042	-9.5
-0.003	0.0082	0.021	0.0435	-9.3
-0.012	0.0052	0.0052	0.0427	-9.5
-0.0165	0.003	-0.0083	0.0412	-9.4
-0.0083	-0.0008	-0.0135	0.033	-9.6
0.0015	-0.0023	-0.0091	0.0217	-9.6
0.003	-0.0046	-0.0046	0.0187	-9.5
-0.0023	-0.0083	-0.0053	0.018	-9.6
-0.0091	-0.0091	-0.0046	0.015	-9.6
-0.0128	-0.0113	0.0157	0.018	-9.6
-0.0128	-0.0113	0.0352	0.027	-9.5
-0.0165	-0.003	0.0307	0.0307	-9.6
-0.0233	0.0052	0.0225	0.0307	-9.6
-0.0203	0.0067	0.009	0.0217	-9.5
-0.012	0.0045	-0.0105	-0.0046	-9.8
-0.0038	0.003	-0.0083	-0.0293	-9.6
-0.0068	0.003	-0.0128	-0.03	-9.8
-0.0083	0.003	-0.012	-0.0218	-9.8
-0.003	0.0037	0.0097	-0.015	-9.7
-0.003	0.003	0.0105	-0.0068	-9.9
0	0.0037	0.0082	-0.0015	-9.8
0	0.0037	0.012	0.0045	-9.8
-0.0008	0.0015	0.0007	0.0007	-9.8
0.0015	-0.0046	-0.0091	-0.0053	-9.9
-0.0075	-0.0091	-0.0158	-0.003	-9.9
-0.0203	-0.0135	-0.0195	-0.003	-10
-0.0278	-0.012	-0.0135	0.0015	-10
-0.0233	-0.0008	0.0052	0.003	-9.9
-0.0008	0.009	0.0315	0.0045	-10.1
0.0247	0.0105	0.0375	0.0052	-10.2
0.033	0.0052	0.0322	0.0022	-10
0.033	0.0045	0.0345	0.009	-10.2
0.0255	0.0037	0.027	0.0232	-10
0.0105	-0.0008	0.0135	0.042	-10.3
0	-0.0083	0.0015	0.0607	-10.1
-0.0143	-0.0128	-0.0143	0.0712	-10.2
-0.0263	-0.0143	-0.0263	0.0802	-10.2
-0.0293	-0.012	-0.0353	0.0825	-10.4
-0.0173	-0.003	-0.0383	0.0705	-10.4
0.009	0.003	-0.0315	-0.0188	-10.4
0.0232	0.0015	-0.0225	-0.1898	-10.4
0.0232	-0.0015	-0.0083	-0.2085	-10.5
0.0217	-0.0008	0.0045	-0.1163	-10.4
0.0315	0.0007	0.0135	-0.0863	-10.5
0.0615	0	0.0157	-0.0143	-10.4
0.069	-0.0023	0.009	0.0232	-10.7
0.042	-0.0015	0.0045	0.0465	-10.4
0.0217	-0.0008	0.0007	0.0787	-10.6
0.0082	0.0015	-0.0008	0.075	-10.6
0.003	0.0007	0.0015	0.1005	-10.7
-0.0075	0.0007	0.003	0.099	-10.8
-0.0105	0.003	0.0015	0.1042	-10.6
-0.0068	0.003	-0.0008	0.105	-10.7
-0.0173	0.0007	-0.0008	0.093	-10.6
-0.0293	0	-0.0023	0.084	-10.8
-0.0368	-0.003	-0.0023	0.0637	-10.7
-0.0375	-0.0053	-0.003	0.0532	-10.8
-0.048	-0.0046	-0.0068	0.0382	-11
-0.0555	-0.0046	-0.0068	0.0337	-10.8
-0.0585	-0.003	0	0.0307	-10.8
-0.0533	0.003	0.0045	0.0225	-11
-0.0315	0.003	-0.0075	0.012	-10.9
-0.0135	0.0015	-0.0091	-0.0008	-11
0.0037	0.0105	-0.0015	-0.0068	-11
0.0105	0.0082	-0.0135	-0.0098	-11.2
0.006	0.0015	-0.0158	-0.0068	-10.8
0.0075	0.003	-0.0015	-0.0091	-11.2
0.0045	-0.0008	-0.0008	-0.0068	-10.9
0.0015	-0.0008	0	-0.0098	-11.1
-0.0008	0.0007	0.003	-0.0158	-11.1
-0.0053	0.0015	0.0007	-0.0173	-11.1
-0.0113	-0.0015	-0.0015	-0.03	-11.2
-0.0135	-0.0015	-0.0091	-0.0473	-11.2
-0.0091	0.0007	-0.015	-0.0578	-11.2
-0.0068	0.0022	-0.0158	-0.0743	-11.3
-0.0038	0.0015	-0.0188	-0.099	-11.3
-0.0015	0.0015	-0.0195	-0.1163	-11.4
0.0015	0.0022	-0.0143	-0.1448	-11.2
-0.0008	0.0007	-0.0128	-0.15	-11.4
-0.0053	-0.003	-0.0105	-0.1275	-11.3
-0.0083	-0.006	-0.0046	-0.1193	-11.4
-0.0098	-0.0068	-0.0008	-0.099	-11.3
-0.006	-0.0068	0.009	-0.0758	-11.3
-0.0008	0	0.0187	-0.0525	-11.3
0.0045	0.0045	0.0262	-0.027	-11.3
0.006	0.0007	0.0217	-0.0128	-11.5
0.0097	-0.0015	0.0007	0.0022	-11.3
0.021	-0.0015	-0.0075	-0.0083	-11.6
0.0315	0.0007	-0.003	-0.0158	-11.4
0.0307	0.0015	0.003	0.0067	-11.4
0.0277	0.0007	0.0052	0.0165	-11.5
0.027	0.0015	-0.0046	0.021	-11.6
0.0217	0.0007	-0.0105	0.0292	-11.6
0.0232	0	-0.0105	0.0367	-11.6
0.0217	0.0007	-0.0083	0.048	-11.4
0.0157	-0.0008	0.003	0.0495	-11.7
0.0082	-0.0046	0.0105	0.0495	-11.5
-0.0015	-0.0083	0.0225	0.0472	-11.7
-0.0038	-0.012	0.0232	0.0412	-11.6
-0.0098	-0.0128	0.0165	0.0427	-11.9
-0.0165	-0.0046	0.0225	0.048	-11.7
-0.015	0.0015	0.0112	0.0532	-11.7
-0.0083	0.003	-0.012	0.0555	-11.9
-0.006	0.006	-0.0203	0.0562	-11.8
-0.0135	0.0037	-0.0181	0.057	-11.8
-0.015	-0.0008	-0.0158	0.057	-11.7
-0.006	-0.0023	-0.0143	0.0637	-11.8
0.0022	-0.0008	-0.0128	0.0825	-12
0.0172	0.0045	-0.0128	0.0982	-11.9
0.0292	0.0082	-0.0053	0.0975	-11.9
0.027	0.006	0.012	0.0855	-11.7
0.0165	0.0015	0.0232	0.0712	-12
0.0067	0	0.0195	0.057	-11.8
0.003	-0.003	0.006	0.039	-12.1
-0.0008	-0.0038	0.0007	0.027	-11.9
0.0007	-0.003	-0.0038	0.024	-12.2
0.0007	-0.0038	-0.0091	0.018	-12.2
0	0	-0.0105	0.0157	-12.1
0.0045	0.0015	-0.0068	0.0142	-12.2
0.0037	0.0007	-0.0015	0.0112	-12
0.0052	0.0015	0.0015	0.0067	-12
0.0015	-0.0008	0.0052	0.0037	-12.2
-0.0068	-0.0053	0.0067	-0.0023	-12.2
-0.0181	-0.0091	0.0142	-0.0068	-12.2
-0.021	-0.0053	0.0232	-0.0068	-12.2
-0.003	-0.0023	0.0142	-0.0143	-12.4
0.0075	-0.0008	-0.0008	-0.0203	-12.5
0.0127	0.0007	-0.0158	-0.0233	-12.5
0.009	-0.0015	-0.024	-0.0278	-12.6
0.0045	-0.0008	-0.0188	-0.0383	-12.5
0.0007	-0.0008	-0.0053	-0.0503	-12.7
-0.0075	-0.0008	0.0157	-0.054	-12.6
-0.0143	-0.0023	0.0255	-0.0503	-12.6
-0.0203	-0.0038	0.0225	-0.0473	-12.6
-0.0165	-0.0008	0.0232	-0.0413	-12.8
-0.0068	0.0037	0.0097	-0.0338	-12.7
0.0015	0.0037	-0.0053	-0.0293	-12.9
-0.0046	0.0007	-0.0091	-0.0263	-12.8
-0.0113	-0.0023	-0.0173	-0.0218	-12.8
-0.0158	-0.0038	-0.0165	-0.0158	-12.9
-0.0158	-0.0015	-0.0083	-0.0181	-13.1
-0.0165	-0.0008	-0.0083	-0.0203	-13
-0.0181	-0.0008	-0.0083	-0.0158	-13.1
-0.0068	-0.0015	-0.006	-0.0105	-12.9
-0.0091	0.0007	0.0075	-0.0053	-13.2
-0.0083	0.0045	0.0285	-0.003	-13.1
-0.0015	0.0037	0.03	-0.0046	-13.2
-0.0091	0.0015	0.0157	-0.0083	-13.1
-0.021	0	0.0127	-0.0075	-13.3
-0.0233	-0.0068	0.0082	-0.006	-13.4
-0.033	-0.0091	-0.003	-0.003	-13.1
-0.048	-0.0068	-0.0046	0.003	-13.4
-0.0511	-0.0015	-0.0083	0.0105	-13.5
-0.0398	0.0022	-0.0083	0.0135	-13.4
-0.0105	0.0015	0	0.0105	-13.5
0.0105	0.003	0	0.0082	-13.5
0.0195	0.003	-0.0046	0.0037	-13.6
0.0165	0.0022	-0.0083	-0.0008	-13.6
0.0067	0.0022	-0.0075	-0.0015	-13.8
0.0015	0.0022	-0.0068	-0.0068	-13.8
-0.0046	0.0007	-0.0113	-0.0075	-13.7
-0.0046	0.0007	-0.0091	-0.0046	-13.9
-0.003	0.0007	-0.0053	-0.0008	-13.7
0	0.0015	-0.0046	0.0007	-13.9
0.006	0.0022	-0.0068	-0.0015	-13.7
0.009	0.0007	-0.0091	-0.0053	-14
0.0097	0.0007	-0.0068	-0.0075	-14
0.0075	0.0022	-0.0083	-0.0075	-14
0.0045	0.0015	-0.0105	-0.0083	-14.1
0.0007	-0.0008	-0.0173	-0.0105	-14.1
-0.0008	0.0007	-0.0315	-0.0068	-14
0.0037	0.0015	-0.033	-0.0046	-14.2
0.003	0.0007	-0.0256	-0.003	-14.1
0.0037	-0.0015	-0.0195	0.0015	-14.2
0.0127	-0.003	-0.0181	0.0015	-14.2
0.0112	-0.0046	-0.0195	-0.0008	-14.4
0.0015	-0.0046	-0.0195	-0.0008	-14.2
0.0022	-0.0015	-0.021	0.003	-14.5
0.015	-0.0015	-0.0105	0.003	-14.3
0.027	0	0.0112	0.0007	-14.3
0.0277	-0.0008	0.0112	0.0015	-14.4
0.024	0.0007	0.0037	0.003	-14.4
0.0202	0.0015	0.0195	0.006	-14.4
0.018	0.0007	0.0277	0.0075	-14.4
0.0165	0	0.0255	0.0067	-14.5
0.0165	-0.0015	0.0232	0.0045	-14.4
0.015	-0.0008	0.012	0.0052	-14.6
0.0142	0.0007	0.0082	0.0082	-14.6
0.012	0	0.0045	0.0075	-14.5
0.0052	-0.0008	0.0007	-0.0038	-14.6
-0.0015	-0.0008	-0.0023	-0.0181	-14.6
-0.0068	-0.0008	-0.0053	-0.033	-14.7
-0.0113	-0.003	-0.0098	-0.0465	-14.7
-0.0105	-0.003	-0.0181	-0.0465	-14.6
-0.0046	0.0015	-0.0128	-0.039	-14.8
0.006	0.003	-0.0015	-0.0346	-14.6
0.0082	0	0.0082	-0.0218	-14.9
0.0022	-0.0008	0.0105	-0.0135	-14.6
0.003	-0.0008	0.0105	-0.003	-14.8
0.0067	-0.0023	0.0127	0.0037	-14.6
0.006	-0.0023	0.009	0.0067	-14.8
0.0007	-0.0075	0.0067	0.012	-14.8
-0.0128	-0.0098	0.0045	0.0127	-14.8
-0.0173	-0.0053	-0.0008	0.0195	-14.8
-0.0038	-0.0008	0.0015	0.0262	-14.9
0.0135	0.0015	0.0067	0.03	-14.9
0.0202	0.0037	0.0127	0.0315	-15.1
0.024	0.0022	0.0105	0.0307	-14.8
0.0217	0.0007	0.0037	0.03	-15
0.012	0	0.006	0.027	-14.9
-0.006	-0.0008	0.0067	0.0277	-15
-0.0405	0.0007	0.003	0.027	-15
-0.0593	-0.0008	-0.0023	0.0262	-15
-0.0458	0.0007	-0.0008	0.0247	-15
-0.0188	0.0022	0.0052	0.021	-15.1
0.012	0.003	0.0015	0.0172	-15.1
0.0412	0.0007	-0.0008	0.0082	-15.1
0.06	-0.0038	0.0022	-0.0015	-15.1
0.0525	-0.0046	0.0067	-0.0023	-15.2
0.0195	-0.0046	0.0172	-0.0015	-15.2
0.0127	-0.0046	0.0232	-0.003	-15.4
0.0082	-0.0008	0.0172	-0.0015	-15.1
0.0082	0.0037	-0.006	-0.0158	-15.3
0.0157	-0.0008	-0.021	-0.0555	-15.5
0.0105	-0.0008	-0.003	-0.0795	-15.3
0.0195	0.0015	0.0112	-0.0765	-15.4
0.0217	0.003	0.006	-0.0803	-15.4
0.0165	0.003	-0.006	-0.0735	-15.7
0.0082	0.0015	-0.0046	-0.0608	-15.4
0.0015	0.0015	0.0015	-0.0518	-15.6
-0.0015	0.0022	-0.0008	-0.0436	-15.4
-0.003	0.0022	-0.0008	-0.045	-15.5
0.003	0.0015	-0.003	-0.042	-15.6
0.006	0.0015	-0.006	-0.0315	-15.7
0.0082	0.0007	-0.0091	-0.0158	-15.7
0.0067	0	-0.0105	-0.0015	-15.7
0.0052	-0.0008	-0.0091	0.0082	-15.7
-0.0015	-0.0015	-0.012	0.0195	-15.8
-0.0068	-0.003	-0.0135	0.0255	-15.7
-0.0128	-0.006	-0.0143	0.0307	-15.8
-0.0346	-0.006	-0.0158	0.0307	-15.7
-0.0443	-0.0023	-0.0188	0.0315	-16
-0.0405	-0.003	-0.0113	0.0292	-15.8
-0.054	-0.003	0.0082	0.027	-16
-0.0428	-0.0008	0.018	0.0307	-15.9
-0.0165	0.0007	0.018	0.0322	-15.9
-0.0128	0.0052	0.0142	0.0352	-15.9
-0.0158	0.0045	-0.0053	0.0322	-15.9
-0.0218	0.0015	-0.0128	0.0345	-16.2
-0.0195	-0.0015	-0.0075	0.0367	-16.1
-0.0083	-0.003	-0.0046	0.0367	-16.2
0.0127	-0.0015	0.0037	0.0397	-16.2
0.0105	-0.003	0.0067	0.0382	-16.1
-0.0046	-0.0023	0.0045	0.042	-16.2
-0.0098	-0.003	0.0007	0.0435	-16.2
-0.0293	-0.0023	-0.0008	0.0442	-16.3
-0.057	-0.0008	-0.0015	0.0442	-16.4
-0.0743	-0.0008	-0.0008	0.039	-16.4
-0.075	-0.0008	0.0022	0.0322	-16.5
-0.0758	0.0015	0	0.0262	-16.2
-0.0863	0.0022	-0.0046	0.027	-16.6
-0.0488	0.0007	-0.012	0.027	-16.4
0.0472	0.0022	-0.0218	0.0292	-16.7
0.1005	0	-0.0285	0.0285	-16.5
0.075	-0.0046	-0.0308	0.0255	-16.7
0.0307	-0.0023	-0.0256	0.0277	-16.7
0.0315	-0.0015	-0.0091	0.0277	-16.7
0.0427	-0.003	0.0045	0.027	-16.8
0.0435	-0.0046	0.0135	0.0262	-16.8
0.0322	-0.0038	0.0165	0.0262	-16.8
0.018	-0.003	0.0105	0.024	-17
0.027	-0.0023	0.009	0.0232	-16.8
-0.0113	0	0.0067	0.0232	-17
-0.048	0.0007	0.0022	0.018	-16.9
-0.0256	0.0045	0.0007	0.0195	-17.1
0.009	0.0045	0.0015	0.0165	-16.9
-0.0068	0.0045	0.0022	0.0105	-17.1
-0.0195	0.0052	-0.0023	0.009	-17
0.0322	0.0045	-0.006	0.0052	-17.1
0.0525	0.0015	-0.0083	0.0037	-17.3
0.0307	-0.0023	-0.0068	0	-17.2
-0.0046	-0.0053	-0.0053	-0.0046	-17.1
-0.0315	-0.0075	-0.0068	-0.0083	-17.3
-0.0158	-0.0083	-0.0038	-0.0128	-17.4
0	-0.0098	0.003	-0.0165	-17.5
-0.0195	-0.0098	0.0022	-0.0181	-17.3
-0.0278	-0.006	0.0075	-0.0143	-17.4
-0.0203	0.0015	0.018	-0.012	-17.4
-0.054	0.003	0.024	-0.0105	-17.6
-0.0743	0.0045	0.024	-0.0143	-17.5
-0.0218	0.0075	0.009	-0.0128	-17.6
0.0127	0.0045	-0.0083	-0.0105	-17.6
-0.033	0.0022	-0.0135	-0.012	-17.6
-0.0458	0	-0.0188	-0.0105	-17.9
0.021	0.0007	-0.0181	-0.0091	-17.8
0.0525	0.003	-0.0135	-0.0068	-18
0.042	0.0022	-0.0105	-0.0053	-17.9
0.066	0.0015	-0.0113	-0.0068	-18
0.0975	0	-0.0105	-0.0083	-18
0.0742	0.0007	-0.003	-0.0105	-18
0.0427	-0.0015	0.0007	-0.0105	-18
0.0225	-0.003	-0.0053	-0.0113	-18
0.0105	-0.0015	-0.006	-0.0091	-18.2
0.003	0	0.0045	-0.0068	-18
-0.0053	0.0022	0.0052	-0.0068	-18.1
-0.0046	0.0037	0.0022	-0.0068	-18.3
-0.003	0.0045	0.0082	-0.0083	-18.1
0.0015	0.0022	0.0127	-0.0105	-18.4
0.0052	0.0007	0.012	-0.0105	-18.2
0.0015	-0.0038	0.0105	-0.0128	-18.5
-0.0053	-0.0068	0.009	-0.0128	-18.3
-0.0083	-0.006	0.0105	-0.0128	-18.2
-0.0128	-0.0053	0.0105	-0.0128	-18.3
-0.0098	-0.0053	0.0097	-0.0091	-18.4
-0.0053	-0.0053	0.0052	-0.0068	-18.6
-0.0158	-0.0023	0.0007	-0.0053	-18.5
-0.0143	0.0007	0.0022	-0.0038	-18.4
-0.0068	-0.0008	0.0015	-0.0046	-18.5
-0.0173	0.0007	0.0015	-0.0038	-18.6
-0.0555	0.0015	0.0045	-0.0068	-18.8
-0.0818	0.0007	0.0045	-0.0075	-18.8
-0.0638	0.0007	0.0007	-0.0075	-18.8
0.0067	-0.0008	0.0045	-0.0083	-18.7
0.0907	0.0007	0.003	-0.0068	-18.9
0.1537	-0.0008	0.0052	-0.006	-18.8
0.1522	-0.0023	0.0157	-0.0068	-18.9
0.0405	-0.0038	0.0097	-0.0068	-19
-0.0135	-0.0015	0.0082	-0.0068	-18.9
-0.012	-0.0023	0.0045	-0.0046	-19.2
-0.0563	-0.0046	-0.0091	-0.0053	-19.1
-0.0533	-0.0046	-0.0105	-0.0068	-19.4
-0.0083	0	-0.0083	-0.003	-19.2
-0.0165	0.003	-0.0046	-0.003	-19.1
-0.0938	0.0045	0.0007	-0.0046	-19.3
-0.1103	0.0037	0.0067	-0.0023	-19.1
-0.0721	0.0022	0.0165	-0.0046	-19.4
-0.033	0.0007	0.0105	-0.0046	-19.3
0.0172	-0.0015	-0.0068	-0.0046	-19.6
0.0772	-0.0023	-0.0158	-0.0053	-19.5
0.105	-0.0015	-0.0128	-0.0038	-19.4
0.0315	-0.0023	-0.0083	-0.0053	-19.7
-0.0165	-0.0038	-0.0046	-0.0053	-19.4
-0.0465	-0.003	-0.006	-0.0053	-19.7
-0.0668	-0.0008	-0.015	-0.0038	-19.7
-0.0195	-0.0015	-0.0181	-0.0023	-19.9
0.0067	-0.003	-0.0173	-0.003	-19.8
0.0127	-0.0008	-0.0195	-0.0023	-19.8
0.021	-0.0008	-0.0188	-0.0023	-19.8
0.0142	0	-0.0158	0	-19.9
0.015	0	-0.012	0	-19.9
0.012	-0.0023	-0.0091	0	-19.9
-0.003	-0.003	-0.0023	0.0007	-19.9
-0.0038	-0.0008	0.0067	0	-20.2
0.0015	0.0007	0.0052	0	-20
-0.0008	0.0007	0.0045	-0.003	-20.2
-0.0068	-0.0008	0.0082	-0.0038	-20.1
-0.0068	-0.0015	0.009	-0.0023	-20.3
0.0067	-0.0008	0.0067	-0.0015	-20.2
0.024	0.0007	0.0045	-0.0015	-20.3
0.0337	0.0007	0.0082	-0.003	-20.4
-0.0091	-0.0008	0.012	-0.0015	-20.4
-0.0773	0	0.0105	-0.0015	-20.4
-0.0863	-0.0008	0.0022	-0.0008	-20.4
-0.0825	0	-0.0068	-0.0008	-20.5
-0.0323	-0.0008	-0.0218	0.0007	-20.8
0.1072	0	-0.0263	-0.0008	-20.6
0.1387	0.0015	-0.0135	-0.003	-20.8
0.0277	0.0007	-0.0098	-0.003	-20.8
-0.0068	0.0007	-0.0105	-0.0008	-20.9
0.0015	-0.0008	-0.0068	0.0007	-20.9
-0.0068	0.0007	0.0045	0	-20.8
0.0135	0.003	0.0195	0.0015	-21
0.0082	0.003	0.0187	0.0015	-21
0.0105	0.003	0.0142	0.0007	-21.1
0.0112	0.0015	0.0142	0	-21
0.012	0.0015	0.012	0	-21.2
0.0142	0.0015	0.0052	0	-21
0.0112	0.0015	0.0045	-0.0008	-21.3
0.0045	-0.0015	0.0082	-0.0015	-21.4
-0.0346	-0.0046	0.0082	-0.0008	-21.4
-0.0593	-0.0008	0.009	-0.0008	-21.4
-0.057	0.0007	0.012	0.0022	-21.4
-0.0383	0.003	0.012	0.0037	-21.7
0.0067	0.003	0.0067	0.003	-21.6
0.0795	0.0015	-0.0068	0.0015	-21.8
0.0667	-0.0008	-0.0105	0.0022	-21.9
0.0052	-0.0015	-0.0091	0.0015	-21.9
0.009	-0.0015	-0.0135	0.0037	-22.2
0.009	-0.003	-0.0203	0.003	-22
-0.0046	-0.0053	-0.0195	0.0022	-22.2
-0.0128	-0.0046	-0.0091	0.0022	-22.1
-0.0248	-0.0046	0	0.0015	-22.2
-0.033	-0.003	0.012	0.0015	-22.3
-0.024	0.0007	0.0165	0.003	-22.2
-0.012	0.0007	0.0142	0.003	-22.2
0.0067	0.0007	0.0082	0.003	-22.5
0.0292	0.0015	-0.003	0.0022	-22.5
0.0315	0.0015	-0.0068	0.0015	-22.8
0.0217	0.0015	-0.0068	0.0022	-22.5
-0.0323	0.003	-0.0038	0.0045	-22.9
-0.0825	0.003	-0.0046	0.0045	-22.7
-0.0578	0.0015	-0.0083	0.0045	-23
-0.0105	0.0007	0.0007	0.003	-22.8
0.042	0.0015	-0.0008	0.0052	-23
0.096	0.0045	-0.0083	0.006	-23.1
0.0757	0.0015	-0.0038	0.0015	-23.1
0.006	-0.0008	-0.0023	0	-23.2
-0.0075	-0.0038	-0.0083	-0.0008	-23
0.0217	-0.0046	-0.0165	-0.0008	-23.5
0.0075	-0.0046	-0.0173	0.0037	-23.5
-0.057	-0.0053	-0.0075	0.0037	-23.5
-0.0638	-0.0046	0.0067	0.0022	-23.5
-0.0375	-0.003	0.0157	0.0015	-23.5
-0.0256	-0.003	0.0105	0	-23.6
0.0307	-0.0053	0.0052	-0.0008	-23.4
0.0825	-0.0046	0.0015	0.0007	-23.9
0.0855	-0.003	0.0067	0	-23.7
0.0727	-0.003	0.006	-0.0008	-23.8
0.0592	-0.0008	-0.0015	-0.0023	-24
0.0562	-0.003	0.0007	-0.0015	-24.1
0.0592	-0.0023	0.0007	-0.0008	-23.9
0.024	-0.0008	-0.0023	-0.0015	-24.1
-0.006	-0.0015	-0.0053	-0.0008	-24.3
-0.066	0.0007	-0.0075	0.0007	-24.3
-0.111	0.0022	-0.0015	0.0022	-24.2
-0.042	0.0015	-0.0068	0.0022	-24.4
-0.0405	0.0007	-0.0135	0.003	-24.4
-0.0668	0	-0.012	0.0022	-24.5
-0.0443	0	-0.015	0.0037	-24.7
-0.012	-0.0008	-0.0181	0.0007	-24.6
0.024	-0.0015	-0.015	-0.0023	-24.8
-0.0015	-0.0023	-0.0158	0	-24.7
0	0	-0.0113	0.0007	-25.1
0.0015	-0.0008	-0.0075	0.0015	-24.8
-0.0046	0.0015	-0.003	0.0052	-25
-0.0046	0.003	0.003	0.0052	-25
-0.0256	0.0022	0.0015	0.0052	-25.1
-0.0233	0	-0.0068	0.0037	-25.2
-0.0188	-0.003	-0.0068	0.003	-25.1
-0.0068	-0.0038	-0.0053	0.0022	-25.3
-0.0083	-0.0038	-0.0046	0.0015	-25.1
-0.0098	-0.003	0.0007	0.0015	-25.3
0.0052	-0.0015	0.0015	0.0022	-25.3
0.0217	-0.0015	0.0067	0.0007	-25.3
0.024	-0.0008	0.0082	-0.0008	-25.5
0.0165	-0.0015	0.003	0.0015	-25.4
0	-0.0015	-0.0038	0.0022	-25.7
-0.0458	-0.0015	-0.0135	0.0007	-25.6
-0.0278	-0.0015	-0.0225	0	-25.7
0.0225	-0.0015	-0.0128	-0.0008	-25.7
-0.0098	0.0007	0.003	0	-25.6
-0.0278	0.0022	0.0052	0.0015	-25.8
-0.003	0.0015	0.006	0.0045	-25.7
-0.0135	0	0.0082	0.0022	-26
0.0015	0.0007	0.0105	0	-26
0.0135	0.0045	0.0097	0.0007	-26
0.0217	0.0045	0.0105	-0.0015	-26.1
0.0315	0	0.0097	-0.0038	-26.2
0.018	-0.003	0.0105	-0.003	-26
0.0135	-0.003	0.0157	-0.0038	-26.1
-0.0188	-0.0046	0.0217	-0.0046	-26.2
-0.0533	-0.003	0.0277	-0.0015	-26.2
-0.0645	0.0015	0.0307	0	-26.2
-0.042	0.0015	0.0285	0	-26.4
-0.0248	0.0007	0.0217	0.003	-26.2
0.0015	0.003	0.012	0.0045	-26.4
0.063	0.003	-0.0068	0.0045	-26.5
0.0585	0.0007	-0.0158	0.0045	-26.6
0.0285	0.0007	-0.0143	0.003	-26.6
0.039	-0.003	-0.0195	0.0015	-26.6
0.0405	-0.0038	-0.0135	-0.0008	-26.8
0.0262	-0.0008	-0.0098	0	-26.6
0.0135	-0.0008	-0.0023	-0.0008	-26.9
0.003	-0.0008	0.0045	-0.0015	-26.8
0.0045	-0.0023	-0.0008	-0.0015	-26.8
0.0015	-0.0015	0.0007	-0.0008	-26.9
-0.003	-0.0015	0.0045	0.0007	-26.7
-0.0008	-0.003	0.0037	0.0007	-27.1
-0.003	-0.003	0.0045	0.0007	-26.9
-0.0158	-0.003	0.0082	0.0007	-27
-0.03	-0.0015	0.009	0	-26.9
-0.0203	0	0.0045	0.0015	-27
-0.03	0.0007	0.0052	0.0015	-27.1
-0.0368	-0.0008	0.0067	0.003	-27.2
0.0247	0	0.0067	0.0007	-27.3
0.0517	0.003	0.0052	-0.0008	-27.3
0.0172	0.003	0.0037	-0.0008	-27.4
0.0195	0.0007	0.0007	-0.0015	-27.3
0.009	0.0015	-0.0008	0.0007	-27.5
-0.0511	0	0.006	-0.0015	-27.4
-0.0608	-0.003	0.0045	-0.0015	-27.6
0.021	-0.003	-0.003	0.0015	-27.5
0.063	-0.0046	-0.0113	0.0045	-27.7
0.0517	-0.0023	-0.0165	0.0067	-27.7
0.0195	-0.0046	-0.012	0.0045	-27.7
-0.0158	-0.0053	-0.0105	0.0015	-27.7
-0.0195	-0.0015	-0.0091	0.0015	-27.9
-0.0165	0.0015	-0.0105	0.003	-27.8
0.0007	0.0045	-0.0128	0.0037	-28
0.0045	0.0037	-0.006	0.0015	-27.9
0.0037	0.0052	0.0015	0	-28
0.0067	0.0045	-0.0008	-0.0015	-28
0.0187	0.0015	-0.0046	-0.003	-28
0.0525	0.0007	0	-0.0046	-28.2
0.0795	-0.0015	0.0015	-0.003	-28
0.0825	-0.003	0.0022	-0.0023	-28.3
0.0315	-0.0038	-0.0008	-0.0008	-28.2
-0.0788	-0.0008	-0.0091	0.003	-28.3
-0.1485	0.0007	-0.0165	0.0007	-28.5
-0.1396	-0.0008	-0.0158	-0.0008	-28.3
-0.1043	-0.0008	-0.0143	-0.0008	-28.5
-0.0165	-0.0015	-0.015	-0.0008	-28.5
0.024	-0.0008	-0.015	-0.0015	-28.8
0.033	-0.003	-0.0158	-0.0068	-28.6
0.0277	-0.006	-0.0143	-0.0083	-28.6
-0.0256	-0.0015	-0.0135	-0.0038	-28.8
-0.0008	0.006	-0.0105	0.0007	-28.6
0.0007	0.0112	-0.003	0.0045	-28.9
0.0007	0.0067	0.0075	0.0052	-28.9
0.0127	0.0015	0.0082	0.0022	-28.9
0.003	-0.003	0.0067	-0.0008	-28.8
0.012	-0.0038	0.009	0	-29
-0.0091	-0.0038	0.012	0.0007	-29
-0.0225	-0.0038	0.0172	-0.0008	-29
-0.0128	-0.003	0.0202	-0.0015	-29
0.0165	0	0.0202	-0.0008	-29.2
0.0277	0.0007	0.0135	0.0007	-29
0.0277	-0.003	0.0022	0.0015	-29.3
0.0105	-0.003	-0.003	0.003	-29.1
-0.039	0.0007	-0.0098	0.0045	-29.4
-0.0323	0.0007	-0.0128	0.0015	-29.4
0.018	0	-0.0091	0.0015	-29.4
0.0345	0.0007	-0.0098	0.0022	-29.7
0.0487	0.0007	-0.0128	-0.0008	-29.7
0.0405	0.0015	-0.0091	0.0015	-29.8
0.0022	-0.0008	-0.0075	0.0015	-29.5
0.0127	-0.0023	-0.0083	0	-29.7
0.006	-0.003	-0.0083	0.0022	-29.8
0.0112	-0.0046	0.0007	0.0022	-29.8
0.0285	-0.0023	0.018	0.0015	-29.7
0.0247	-0.0015	0.0202	0.0015	-29.7
0.0172	-0.0008	0.015	0.0015	-29.9
0	-0.0008	0.009	0.0007	-29.7
-0.0218	-0.0046	0.009	0.0007	-29.9
-0.042	-0.0046	0.0097	0	-30
-0.0165	-0.003	0.0045	0.0015	-30
0.0007	-0.003	-0.0015	-0.0008	-30.1
0.0045	-0.0008	-0.0053	-0.0015	-30.1
0.018	0.0007	-0.0091	0.0007	-30.3
0.0097	0	-0.0105	0.0007	-30.2
-0.0173	0	-0.0105	0.003	-30.3
-0.0323	0	-0.006	0.0045	-30.3
-0.0195	0.0007	-0.003	0.0045	-30.3
-0.039	0.0007	0.0007	0.0015	-30.3
-0.063	-0.003	0.0015	0.0022	-30.3
-0.063	-0.0015	0.0015	0.0045	-30.4
-0.0398	0	0.0045	0.0037	-30.4
0.015	-0.0015	0.006	0.0045	-30.5
0.0735	-0.0008	0.0015	0.0052	-30.6
