File Name: marcha.log
Channel 4: 'Recto Femoral', 11075 values, engineering units: mV, no filters.
Channel 5: 'Biceps Femoral', 11075 values, engineering units: mV, no filters.
Channel 6: 'Vasto Medial', 11075 values, engineering units: mV, no filters.
Channel 7: 'EMG Semitendinoso', 11075 values, engineering units: mV, no filters.
Channel 8: 'Flexo-Extension', 11075 values, engineering units: deg, no filters.

-0.042	-0.0068	-0.0383	0.003	1.9
0.0292	-0.0638	-0.1021	-0.003	1.8
0.024	-0.039	-0.1043	-0.0015	1.8
0.0225	0.0007	-0.1058	0.0052	1.7
0.0322	0.0022	-0.1035	0.009	1.8
0.042	0.0105	-0.0953	0.0082	1.8
0.054	0.0105	-0.0893	0.0075	1.7
0.0697	0.0127	-0.0803	0.0037	1.6
0.078	0.027	-0.0683	0.0052	1.8
0.0825	0.0165	-0.0533	0.0045	1.4
0.084	-0.0083	-0.0428	0	1.5
0.081	-0.0248	-0.0353	-0.003	1.5
0.0765	-0.033	-0.0181	-0.015	1.5
0.0667	-0.0338	0.0015	-0.0233	1.5
0.063	-0.0181	0.0097	-0.0278	1.5
0.0577	0.003	0.012	-0.0293	1.5
0.0517	0.0142	0.0202	-0.0218	1.4
0.0487	0.0195	0.0277	-0.012	1.5
0.048	0.0247	0.0307	-0.0075	1.5
0.0547	0.0075	0.0352	-0.006	1.4
0.0652	-0.0046	0.0382	-0.0068	1.3
0.0802	-0.0083	0.0427	-0.0083	1.4
0.093	-0.0158	0.042	-0.006	1.1
0.1012	-0.003	0.0375	-0.006	1.3
0.108	0.0022	0.042	-0.0068	1.2
0.1102	0.0037	0.0435	-0.0068	1.3
0.1072	-0.0008	0.045	-0.0068	1.1
0.0967	-0.0053	0.0495	-0.003	1.2
0.0817	-0.0015	0.054	-0.0008	1.2
0.0592	-0.0015	0.054	0.003	1.3
0.033	0.0067	0.048	0.0097	1.1
0.0052	0.0165	0.0405	0.015	1.1
-0.0248	0.027	0.0337	0.0195	1
-0.048	0.0352	0.0292	0.0255	1
-0.0638	0.0322	0.027	0.0315	0.9
-0.0765	0.003	0.0232	0.027	1
-0.0818	-0.063	0.0232	0.0097	0.9
-0.081	-0.093	0.0247	-0.0015	1
-0.0825	-0.0413	0.0285	-0.012	0.8
-0.0878	-0.0038	0.0352	-0.0256	1.1
-0.0975	-0.0015	0.0255	-0.027	0.9
-0.1006	0.012	0.003	-0.0158	1
-0.0968	0.0037	-0.0105	-0.0165	0.9
-0.09	0.0067	-0.0195	-0.015	0.9
-0.0788	0.0112	-0.0233	-0.0105	0.6
-0.066	0.0082	-0.024	-0.024	0.9
-0.0533	0.009	-0.0263	-0.039	0.9
-0.0405	0.0022	-0.03	-0.0465	0.9
-0.0278	0.0067	-0.039	-0.048	0.7
-0.0165	0.003	-0.0383	-0.048	0.7
-0.012	0.015	-0.0346	-0.0465	0.9
-0.012	0.0345	-0.0315	-0.042	0.8
-0.0068	0.0502	-0.027	-0.0383	0.8
0.0007	0.0585	-0.0293	-0.0375	0.9
0.0135	0.0345	-0.033	-0.0368	0.6
0.0307	0.0165	-0.039	-0.0293	0.9
0.0427	-0.021	-0.0458	-0.027	0.6
0.0457	-0.0638	-0.0458	-0.0278	0.8
0.048	-0.0878	-0.042	-0.0218	0.7
0.0532	-0.162	-0.0436	-0.024	0.7
0.054	-0.123	-0.0436	-0.0188	0.7
0.054	0.0202	-0.0368	-0.003	0.7
0.051	0.039	-0.0383	0.0022	0.7
0.0465	0.0607	-0.0398	0.0135	0.7
0.0442	0.0735	-0.0383	0.027	0.7
0.0412	0.039	-0.0346	0.0315	0.7
0.039	0.024	-0.027	0.0367	0.7
0.039	-0.0443	-0.0218	0.0315	0.8
0.039	-0.0585	-0.0165	0.039	0.7
0.039	0.003	0.006	0.0487	0.9
0.042	0.0412	0.0517	0.0352	0.7
0.0457	0.054	0.0915	0.0247	0.7
0.0442	0.0592	0.099	0.027	0.7
0.039	0.048	0.0967	0.0307	0.9
0.033	0.018	0.0945	0.0382	0.7
0.021	-0.0585	0.0795	0.039	0.8
0.009	-0.093	0.0652	0.0345	0.8
0	0.0022	0.0742	0.0352	0.7
-0.003	0.0442	0.0862	0.033	0.8
0.0022	0.0277	0.09	0.0277	0.6
0.0022	0.0232	0.0967	0.0217	0.9
0.0007	-0.003	0.1087	0.0195	0.7
0.003	0.0052	0.129	0.0172	0.6
0.0007	-0.0023	0.15	0.0105	0.8
0.0015	-0.0083	0.1702	0.009	0.6
0.003	0.009	0.2017	0.0082	0.7
0.0082	0.0202	0.2265	0.003	0.5
0.0142	0.0255	0.2287	-0.003	0.9
0.0112	0.0052	0.222	-0.0046	0.5
0.003	0.0015	0.207	-0.0015	0.9
-0.006	-0.006	0.1882	0.0007	0.6
-0.0098	-0.0203	0.1717	0.0015	0.9
-0.0083	-0.0195	0.15	0.003	0.8
-0.0068	-0.0015	0.1237	0.0007	0.6
-0.0113	0.0067	0.0765	-0.0046	0.9
-0.012	0	0.0172	-0.0075	0.7
-0.0091	0.0045	-0.0293	-0.0113	0.8
-0.0053	0.0015	-0.0638	-0.012	0.8
0.003	0.0082	-0.1028	-0.0113	0.7
0.0075	0.0015	-0.1396	-0.015	0.7
0.0105	-0.0053	-0.1673	-0.0195	0.7
0.0142	0	-0.1943	-0.0203	0.9
0.0165	0.009	-0.2145	-0.0195	0.7
0.0157	0.024	-0.2273	-0.021	0.8
0.0097	0.0217	-0.2355	-0.0233	0.8
0.0075	0.0015	-0.2385	-0.027	0.9
0.009	-0.0225	-0.2378	-0.0285	0.9
0.006	-0.0398	-0.2333	-0.0285	1.1
-0.0038	-0.0518	-0.2303	-0.027	1
-0.0105	-0.0728	-0.228	-0.0256	1
-0.0113	-0.0915	-0.2183	-0.021	1.1
-0.0105	-0.0248	-0.2063	-0.0075	0.9
-0.0091	0.042	-0.1943	-0.0038	1
-0.012	0.042	-0.1763	-0.0046	0.9
-0.0181	0.0555	-0.1658	-0.0046	1
-0.0195	0.0217	-0.1523	-0.0105	0.9
-0.0203	0.0127	-0.1403	-0.0135	0.9
-0.0225	0.0105	-0.1268	-0.0143	1
-0.0218	-0.0046	-0.111	-0.0105	0.9
-0.0233	0.0105	-0.099	-0.0046	1
-0.0256	0	-0.0825	-0.003	1
-0.0368	0.003	-0.0668	-0.0008	1
-0.0458	-0.0105	-0.0511	-0.0023	0.9
-0.0353	-0.0128	-0.0383	-0.003	0.9
-0.0323	-0.0068	-0.0293	-0.006	1.1
-0.0338	-0.0128	-0.0203	-0.0083	0.9
-0.0293	-0.0068	-0.0105	-0.0046	0.9
-0.033	-0.0098	-0.003	-0.003	0.8
-0.0346	-0.006	0.0015	0.003	1.2
-0.0375	-0.0091	0.0045	0.0082	1
-0.0383	-0.0083	0.0067	0.0165	1
-0.0361	-0.0053	0.009	0.0202	1.1
-0.033	-0.0083	0.012	0.012	0.9
-0.0181	-0.003	0.0097	0.009	1.3
-0.003	0.0015	0.0105	0.0127	0.9
0.0232	0.0105	0.0172	0.0165	1.3
0.0495	0.0105	0.0202	0.0187	0.9
0.0682	-0.0008	0.0225	0.0165	1.1
0.0817	-0.0181	0.0247	0.0142	1
0.09	-0.0218	0.024	0.0157	1.2
0.084	-0.0135	0.0217	0.0165	1.2
0.0667	-0.003	0.0157	0.0142	1.1
0.0547	0.0067	0.0195	0.0172	1.1
0.0345	0.0105	0.036	0.0225	0.9
0.0105	0.015	0.0427	0.0232	1.2
-0.0083	0.0135	0.0495	0.0195	0.9
-0.024	0.003	0.0502	0.0045	1
-0.0338	0.0082	0.0555	-0.006	1.1
-0.0473	0.0375	0.0735	0.0052	1.1
-0.0555	0.0555	0.0727	0.0112	1.1
-0.06	0.0345	0.072	0.0037	0.9
-0.0608	-0.0105	0.0697	0.003	1
-0.0593	-0.0233	0.054	0	1
-0.0533	-0.0075	0.0532	0.0015	1.1
-0.0428	-0.0405	0.0577	-0.0015	1.2
-0.0383	-0.1193	0.0622	-0.0128	1
-0.0353	-0.1583	0.06	-0.0218	1.2
-0.03	-0.0698	0.051	-0.021	1
-0.0293	0.0142	0.048	-0.0075	1.3
-0.0233	0.018	0.0465	-0.0008	0.9
-0.0195	0.0495	0.0382	0.0045	1.2
-0.0203	0.0592	0.0247	0.0105	0.9
-0.021	0.0847	0.0105	0.0195	1.1
-0.0256	0.1027	0.0052	0.0202	1
-0.0308	0.0645	0.0195	0.0157	1.1
-0.0383	0.0225	0.039	0.0135	1.1
-0.0436	-0.081	0.0472	0.0052	0.9
-0.042	-0.18	0.0555	0.0052	1.3
-0.0383	-0.0893	0.06	0.0112	1
-0.039	0.039	0.0592	0.009	1.1
-0.042	0.027	0.0375	0.0052	1.1
-0.039	0.0532	0.0037	0.003	1
-0.0361	0.0517	-0.0105	0	1.1
-0.0338	0.0367	-0.0113	0.0007	1
-0.0293	0.0555	-0.0068	0.0015	1.3
-0.0218	0.0412	0.0067	0.0007	0.9
-0.015	0.054	0.0225	0.0015	1.3
-0.0143	0.0277	0.0262	-0.0038	1
-0.0128	0.0067	0.0255	-0.0068	1.2
-0.0113	0.0007	0.0247	-0.0075	1.2
-0.0098	-0.0113	0.0217	-0.0105	1.1
-0.003	-0.0046	0.0195	-0.012	1.1
0.0082	0.0022	0.0127	-0.0158	1
0.0195	0.0187	0.012	-0.0158	1.2
0.0277	0.0105	0.009	-0.0135	1
0.0352	0.0067	0.0045	-0.012	1.2
0.039	0.003	0.003	-0.0135	1.1
0.0412	-0.0008	0.0007	-0.0105	1.2
0.0442	0.0082	-0.003	-0.0091	1.1
0.048	0.0082	-0.0091	-0.0091	1
0.0525	0.0135	-0.012	-0.0068	1.1
0.0457	0.009	-0.0128	-0.0046	1
0.033	0.009	-0.0143	-0.003	1.2
0.024	0.0082	-0.0105	-0.0038	1
0.0187	0.0015	-0.0083	-0.0046	1.2
0.0157	-0.0008	-0.0091	-0.003	1.1
0.018	-0.006	-0.0083	-0.003	1.2
0.027	-0.0046	-0.0068	-0.0046	1.2
0.0382	-0.0068	-0.006	-0.0083	1.2
0.0442	-0.0105	-0.0008	-0.0091	1.2
0.048	-0.0128	0.0045	-0.0105	1.3
0.0495	-0.0158	0.0052	-0.0135	1.3
0.048	-0.0218	0.0075	-0.015	1.3
0.0465	-0.0256	0.0142	-0.015	1.3
0.0465	-0.0218	0.027	-0.0128	1.4
0.0375	-0.0165	0.0345	-0.0105	1.3
0.0382	-0.0091	0.03	-0.0083	1.4
0.0495	-0.003	0.0277	-0.0038	1.3
0.0532	0.003	0.0292	-0.0046	1.5
0.0577	0.0045	0.0277	-0.0038	1.3
0.0607	-0.0023	0.0292	-0.0046	1.4
0.057	-0.0068	0.0307	-0.0046	1.4
0.0495	-0.0075	0.0307	-0.0083	1.4
0.036	-0.006	0.0292	-0.0105	1.4
0.027	-0.0008	0.0262	-0.0091	1.3
0.0142	0.0007	0.0232	-0.0068	1.5
0	-0.0038	0.0225	-0.0008	1.3
-0.0105	-0.003	0.021	-0.0046	1.4
-0.0165	-0.003	0.0172	-0.0053	1.4
-0.0233	-0.006	0.0157	-0.0068	1.5
-0.0278	-0.0075	0.012	-0.0181	1.5
-0.0285	-0.006	0.0067	-0.0218	1.4
-0.0256	-0.0068	0.0082	-0.0181	1.5
-0.0203	-0.0105	0.012	-0.0098	1.4
-0.0165	-0.0053	0.0105	0.0015	1.6
-0.0128	0.0052	0.0082	0.0105	1.5
-0.0083	0.0052	0.0082	0.0172	1.5
-0.0038	0.0052	0.009	0.0277	1.4
0	0.009	0.012	0.027	1.5
0.0052	0.0052	0.0067	0.0127	1.7
0.012	0.0015	0.0007	0.0022	1.3
0.0165	0.0007	-0.003	-0.003	1.7
0.018	-0.0015	-0.0038	-0.003	1.5
0.015	-0.0008	-0.0038	0	1.8
0.0105	-0.0015	-0.0053	0	1.6
0.0045	-0.0015	-0.0105	-0.006	1.8
-0.0008	-0.0038	-0.0091	-0.012	1.6
-0.0053	-0.0053	-0.0083	-0.0053	1.5
-0.006	-0.0046	-0.0083	-0.0015	1.8
-0.0046	-0.0023	-0.0091	-0.0015	1.7
-0.003	0.0052	-0.0105	0.006	1.8
-0.003	0.0045	-0.0113	0.0097	1.8
-0.0038	0.0007	-0.0128	0.0067	1.7
-0.0046	0.003	-0.0105	0.003	1.9
-0.0083	0.0015	-0.0083	0.003	2
-0.0105	-0.0023	0.0007	0.003	2.1
-0.0135	-0.0046	0.0127	0.0007	1.9
-0.0173	-0.0053	0.0045	0.0022	2.1
-0.0195	-0.003	-0.0083	0.0045	2
-0.021	-0.0023	-0.0158	0.0052	2.2
-0.0248	-0.0015	-0.0195	0.0067	2.1
-0.0346	-0.0015	-0.0158	0.0082	2.2
-0.0458	-0.0015	-0.0105	0.009	2.2
-0.0518	0.0015	-0.0105	0.009	2.2
-0.0555	0.0015	-0.0068	0.0142	2.3
-0.0608	0.0007	-0.003	0.0202	2.3
-0.0645	0.003	-0.0046	0.0232	2.6
-0.0638	0.0052	-0.003	0.0217	2.5
-0.0593	0.0045	0	0.0067	2.6
-0.0533	0	0.0007	-0.0195	2.6
-0.0346	-0.0046	-0.0008	-0.0188	2.7
-0.0023	-0.006	-0.0015	-0.015	2.7
0.0247	-0.0083	-0.0008	-0.0218	2.7
0.0427	-0.0083	-0.0008	-0.0068	3
0.0577	-0.0046	-0.0046	0.0007	2.8
0.0817	-0.0046	-0.0038	0.0142	3
0.0847	-0.003	-0.0046	0.027	3
0.0705	0.003	-0.0046	0.0157	3.2
0.0585	0.003	-0.003	0.0067	3.1
0.036	-0.003	-0.0015	0.0015	3.3
0.0157	0.0007	0.0015	0.0037	3.4
-0.003	0.0037	0.0007	0.0015	3.6
-0.0105	0.003	0.003	-0.0038	3.5
-0.0135	0.0007	0.0052	-0.0068	3.4
-0.0256	-0.0015	0.003	-0.0008	3.6
-0.0323	0.0022	0.0015	0.0007	3.7
-0.0346	0.0015	0.003	-0.0038	3.6
-0.0323	0	0	-0.0068	3.8
-0.0278	-0.0038	0.0015	-0.0083	3.9
-0.0158	-0.0083	0.0052	-0.0008	4.1
-0.0023	-0.006	0.003	0.0045	3.8
0.0142	-0.003	-0.0008	-0.0015	4.2
0.0292	0	-0.0015	-0.0083	4
0.033	0.003	-0.0053	-0.015	4.4
0.0412	0.003	-0.0098	-0.0181	4.1
0.0525	0.0015	-0.0105	-0.0083	4.6
0.069	0.0015	-0.0091	0.003	4.4
0.0922	-0.0046	-0.012	-0.0008	4.6
0.1117	-0.0083	-0.0105	0.003	4.6
0.1207	-0.006	-0.0083	0.015	4.6
0.1222	-0.0008	-0.0038	0.0195	4.8
0.1155	-0.0015	0.0007	0.0165	4.9
0.1042	-0.006	0.003	0.0202	5
0.1012	-0.003	0.006	0.0165	5.2
0.1087	0.0015	0.0067	0.0037	5.2
0.1335	0.0037	0.0075	0.0157	5.3
0.1485	0.0045	0.0067	0.0202	5.3
0.1612	0.003	0.0037	0.0142	5.6
0.1965	0.006	0.0015	0.0105	5.6
0.2175	0.0105	0.0045	-0.0015	5.8
0.1702	0.0127	0.0307	-0.0105	5.8
0.033	0.0105	0.0847	-0.0053	6.1
-0.1328	0.0112	0.054	-0.0008	6.1
-0.252	0.0112	-0.0083	0.003	6.3
-0.3368	0.0075	0.018	0.009	6.4
-0.4013	0.0052	-0.0015	-0.0091	6.5
-0.4545	0.0007	-0.0165	-0.0346	6.7
-0.4898	-0.006	-0.0008	-0.0346	6.8
-0.4853	-0.006	-0.0015	-0.0128	7
-0.4485	-0.0046	0.0075	-0.003	7.2
-0.39	-0.0053	-0.006	0.0105	7.2
-0.3195	-0.0091	-0.0046	0.0322	7.6
-0.2573	-0.0083	-0.0195	0.0502	7.6
-0.2011	0.0015	-0.042	0.0495	7.9
-0.1396	0.0052	-0.048	0.0157	7.8
-0.0856	-0.0015	-0.0555	-0.0053	8.3
-0.0405	-0.0015	-0.0495	0.0127	8.4
-0.0053	0.0082	-0.0458	0.027	8.8
0.0255	0.006	-0.048	0.027	8.7
0.0495	0.0007	-0.0555	0.0225	9.2
0.069	-0.0015	-0.0608	0.0007	9.2
0.084	-0.0068	-0.0698	-0.0046	9.5
0.093	-0.0053	-0.075	-0.0091	9.7
0.1027	-0.0068	-0.063	-0.027	10
0.1095	-0.0015	-0.054	-0.0218	10.1
0.0982	0.0045	-0.0443	-0.0181	10.4
0.093	-0.0023	-0.0315	-0.0218	10.7
0.1087	-0.0046	-0.027	-0.0203	10.8
0.1177	-0.0046	-0.0293	-0.0083	11.1
0.1207	0.0015	-0.0473	0.0067	11.6
0.1215	0.003	-0.0691	-0.0038	11.8
0.108	-0.0015	-0.0578	-0.0165	12.1
0.093	0.003	-0.0405	-0.0143	12.4
0.078	0.003	-0.0428	-0.0068	12.7
0.0615	0.0052	-0.0338	0.0045	12.8
0.0397	0.0037	-0.033	0.0082	13.3
0.0202	-0.0046	-0.0368	0.0015	13.4
0.0015	-0.0091	-0.0368	0.0037	13.9
-0.0158	-0.0083	-0.0375	0.0082	14.1
-0.027	-0.0053	-0.0346	0	14.5
-0.0256	-0.0046	-0.0368	0.0045	14.8
-0.0128	0.0075	-0.012	0.0225	15
0.006	0.0165	0.093	0.009	15.4
0.0382	0.0082	0.2812	-0.0083	15.6
0.0742	-0.0008	0.36	-0.0203	16.1
0.1162	-0.0015	0.3802	-0.0428	16.1
0.1537	-0.0038	0.5062	-0.0368	16.6
0.1612	-0.003	0.5955	-0.021	16.8
0.1282	0.0007	0.624	-0.0158	17.1
0.0772	-0.0015	0.5707	-0.012	17.4
0.0502	-0.003	0.4462	-0.012	17.7
0.0427	-0.0046	0.3142	-0.0083	18.1
0.0502	-0.0068	0.1845	-0.0068	18.2
0.063	-0.006	0.0667	-0.0053	18.7
0.0592	-0.0053	-0.0375	-0.0053	18.9
0.0412	-0.0053	-0.1043	-0.0083	19.3
0.012	-0.0038	-0.1756	-0.0083	19.5
-0.0135	-0.0046	-0.2475	-0.0075	19.9
-0.0346	-0.0068	-0.3	-0.0068	20.2
-0.045	-0.0083	-0.3195	-0.0098	20.3
-0.039	-0.0046	-0.3233	-0.0075	20.8
-0.0218	0.0052	-0.3383	-0.0046	20.9
0.0067	0.0082	-0.3391	-0.0046	21.3
0.0345	0.0105	-0.357	0	21.5
0.0637	0.0127	-0.369	0.0015	21.9
0.09	0.0112	-0.3728	0.0052	22.1
0.1177	0.012	-0.3818	0.0082	22.5
0.1485	0.009	-0.3818	0.0127	22.9
0.1665	0.006	-0.3788	0.018	23
0.1725	0.003	-0.3638	0.0195	23.5
0.1635	-0.0015	-0.3481	0.0202	23.8
0.1447	-0.0046	-0.333	0.024	24.1
0.1245	-0.0083	-0.309	0.0255	24.4
0.1177	-0.0091	-0.2955	0.0255	24.5
0.1297	-0.0098	-0.2783	0.027	25
0.1582	-0.0083	-0.2558	0.0277	25
0.195	-0.0068	-0.2288	0.0292	25.6
0.2272	-0.0083	-0.1965	0.0277	25.6
0.249	-0.0091	-0.1665	0.027	26.3
0.2587	-0.0091	-0.1328	0.027	26.2
0.246	-0.0083	-0.0975	0.0292	26.6
0.1942	-0.0068	-0.0615	0.033	26.9
0.1125	-0.0068	-0.0256	0.0345	27.3
0.0322	-0.0015	0.0045	0.0337	27.6
-0.0346	-0.0008	0.0367	0.027	28.1
-0.1043	-0.0023	0.0615	0.0135	28.2
-0.1898	-0.0015	0.081	-0.0015	28.4
-0.3345	-0.0008	0.0877	-0.012	28.8
-0.5408	0.0022	0.0907	-0.0233	29
-0.7065	0.0007	0.0915	-0.0405	29.4
-0.7838	-0.0015	0.084	-0.0593	29.7
-0.8161	-0.0015	0.081	-0.0615	30
-0.8101	-0.0015	0.069	-0.0428	30.5
-0.7478	0.0007	0.048	-0.0233	30.7
-0.6683	0.0045	0.0352	0.0015	31
-0.5918	0.0067	0.021	0.0135	31.2
-0.501	0.003	0.0052	0.0097	31.8
-0.417	0.0015	-0.0098	-0.0053	31.8
-0.3585	0.0022	-0.0233	-0.0308	32.3
-0.3045	0.0015	-0.0225	-0.0361	32.4
-0.2505	0.003	0.0015	-0.039	33
-0.1988	-0.0008	0.0487	-0.042	33.2
-0.15	-0.0068	0.105	-0.039	33.6
-0.0915	-0.0075	0.1717	-0.0383	34
-0.0308	-0.003	0.252	-0.0323	34.2
0.0225	0.009	0.3555	-0.0278	34.5
0.0892	0.0165	0.495	-0.0203	34.8
0.168	0.0172	0.6225	-0.0105	35.2
0.2512	0.0157	0.6682	0.0007	35.5
0.3412	0.0135	0.6217	0.0127	35.9
0.4252	0.0127	0.4995	0.0202	36.2
0.4875	0.0082	0.3345	0.0315	36.5
0.5325	0.0052	0.1747	0.0457	37.1
0.5557	0.0037	0.0382	0.0615	37.3
0.5557	-0.0008	-0.0713	0.0832	37.6
0.54	-0.0075	-0.159	0.105	37.8
0.5085	-0.0128	-0.2295	0.1335	38.2
0.4597	-0.0181	-0.2821	0.1485	38.4
0.405	-0.0203	-0.312	0.111	38.9
0.3442	-0.024	-0.3135	0.039	39.1
0.2835	-0.0293	-0.2843	-0.0091	39.3
0.2257	-0.0315	-0.2363	-0.039	39.7
0.1687	-0.033	-0.2063	-0.0668	40
0.1132	-0.033	-0.2093	-0.0795	40.3
0.0652	-0.0323	-0.2085	-0.0788	40.5
0.024	-0.0315	-0.1756	-0.0645	40.8
-0.0165	-0.027	-0.1275	-0.0555	41.1
-0.0638	-0.021	-0.0938	-0.0488	41.4
-0.114	-0.0135	-0.0706	-0.0428	41.6
-0.1523	-0.0068	-0.057	-0.0436	41.8
-0.1688	0.0007	-0.0383	-0.0458	42.1
-0.1711	0.009	-0.0068	-0.0458	42.2
-0.1741	0.0142	0.0427	-0.048	42.7
-0.1815	0.0187	0.1102	-0.0525	42.6
-0.1928	0.024	0.1755	-0.0548	42.8
-0.2003	0.0315	0.243	-0.0555	43.2
-0.2108	0.0367	0.2992	-0.054	43.2
-0.2258	0.0405	0.333	-0.054	43.4
-0.2325	0.0442	0.3607	-0.054	43.5
-0.219	0.0435	0.387	-0.0518	43.9
-0.189	0.0427	0.4057	-0.048	44.1
-0.162	0.0435	0.4177	-0.0436	44.4
-0.1418	0.0427	0.4215	-0.039	44.4
-0.1013	0.0427	0.4185	-0.0368	44.5
-0.0436	0.039	0.408	-0.0361	44.8
0.0067	0.0375	0.3975	-0.0315	45
0.0465	0.0375	0.3945	-0.0293	45.3
0.0922	0.0345	0.4027	-0.0338	45.3
0.1365	0.0307	0.408	-0.0398	45.6
0.1455	0.024	0.3532	-0.0465	45.4
0.1402	0.0195	0.1837	-0.0495	45.9
0.1425	0.0142	0.0127	-0.0465	45.9
0.1522	0.0082	-0.0691	-0.0346	45.9
0.1635	0.003	-0.1238	-0.0158	46.1
0.1732	-0.003	-0.1358	0.009	46.2
0.189	-0.0075	-0.1493	0.0277	46.4
0.2197	-0.012	-0.1748	0.0397	46.4
0.2632	-0.015	-0.189	0.0442	46.8
0.318	-0.0173	-0.2175	0.0405	46.8
0.357	-0.0181	-0.2183	0.033	47
0.3555	-0.0165	-0.207	0.012	47
0.3322	-0.0195	-0.1808	-0.0091	47.3
0.2947	-0.021	-0.1478	-0.0256	47.3
0.2745	-0.021	-0.1223	-0.0405	47.3
0.276	-0.021	-0.0938	-0.0503	47.6
0.2865	-0.0195	-0.0765	-0.0548	47.4
0.2947	-0.0165	-0.0578	-0.054	47.6
0.267	-0.0128	-0.0346	-0.0495	47.9
0.2347	-0.0113	-0.012	-0.0428	47.9
0.2212	-0.012	-0.0068	-0.0315	47.7
0.1912	-0.0083	-0.0113	-0.0218	48
0.1627	-0.0053	-0.0218	-0.0143	48.2
0.1485	-0.0053	-0.0308	-0.0053	48.1
0.129	-0.0053	-0.0398	0	48.2
0.117	-0.0053	-0.057	0.0052	48.2
0.1042	-0.0075	-0.0788	0.0097	48.5
0.0817	-0.0083	-0.1058	0.018	48.5
0.0652	-0.0083	-0.123	0.0277	48.5
0.048	-0.0068	-0.1335	0.0345	48.5
0.0165	-0.0053	-0.1335	0.039	48.4
-0.0398	-0.006	-0.1095	0.045	48.6
-0.1058	-0.006	-0.093	0.048	48.5
-0.1605	-0.0046	-0.09	0.0502	48.5
-0.2048	-0.0046	-0.0758	0.0525	48.6
-0.2363	-0.006	-0.063	0.0547	48.5
-0.2648	-0.0068	-0.0518	0.0547	48.6
-0.2925	-0.0053	-0.0398	0.0577	48.5
-0.3113	-0.0083	-0.0353	0.0592	48.7
-0.3263	-0.0075	-0.0195	0.0615	48.6
-0.3391	-0.006	-0.0053	0.0645	48.8
-0.3585	-0.0046	0.009	0.066	48.6
-0.3788	-0.003	0.0217	0.0667	48.8
-0.3915	-0.0046	0.033	0.0675	48.5
-0.3983	-0.0053	0.0442	0.066	48.8
-0.3998	-0.0053	0.048	0.066	48.6
-0.3968	-0.0068	0.0495	0.066	48.6
-0.3915	-0.0083	0.0487	0.0675	48.6
-0.384	-0.0083	0.0502	0.0667	48.5
-0.3713	-0.0068	0.0457	0.0667	48.7
-0.3473	-0.0053	0.0292	0.0667	48.5
-0.3053	-0.0053	0.003	0.063	48.6
-0.246	-0.0038	-0.0353	0.0592	48.4
-0.1763	-0.0015	-0.075	0.0555	48.4
-0.1095	0	-0.1178	0.0502	48.6
-0.057	-0.0008	-0.159	0.045	48.4
-0.0181	-0.0008	-0.1913	0.0397	48.4
0.0045	0.0015	-0.2145	0.036	48.3
0.0165	0.0015	-0.2258	0.027	48.6
0.0202	0	-0.2348	0.018	48.2
0.0157	-0.003	-0.2363	0.0135	48.1
0.0082	-0.0015	-0.231	0.0097	48.2
-0.0008	-0.0023	-0.2213	0.0045	48.2
-0.0015	-0.0038	-0.2063	-0.0023	48
0.0045	-0.0046	-0.1883	-0.0053	48
0.0157	-0.006	-0.1703	-0.0098	48.1
0.033	-0.0053	-0.1538	-0.0143	48
0.0427	-0.0046	-0.1343	-0.0143	47.9
0.0502	-0.0038	-0.1125	-0.0173	47.9
0.0547	-0.0015	-0.0885	-0.0188	47.7
0.057	-0.0015	-0.0668	-0.0195	47.6
0.0585	-0.0015	-0.048	-0.0165	47.6
0.0532	0.0045	-0.03	-0.0105	47.6
0.0442	0.0105	-0.0113	-0.0068	47.3
0.0367	0.0157	0.0082	-0.0046	47.5
0.0315	0.0172	0.0277	-0.0046	47.2
0.027	0.0142	0.0465	-0.0068	47.3
0.0172	0.012	0.06	-0.0038	46.9
0.0142	0.0082	0.0742	-0.0015	47
0.0442	0.0052	0.0892	-0.0015	46.8
0.0667	0.0022	0.099	-0.0023	46.8
0.0817	-0.0023	0.1065	-0.0046	46.6
0.1012	-0.0053	0.114	-0.0075	46.6
0.105	-0.0068	0.1207	-0.012	46.4
0.1012	-0.0068	0.123	-0.0158	46.3
0.09	-0.0053	0.1252	-0.0195	46.2
0.078	-0.003	0.1215	-0.0203	45.9
0.063	0.0007	0.114	-0.021	45.8
0.0495	0.0015	0.105	-0.0181	45.9
0.042	0.0037	0.0937	-0.0158	45.4
0.0405	0.0045	0.0825	-0.0143	45.6
0.045	0.0045	0.0675	-0.0135	45.3
0.0502	0.0045	0.0532	-0.0135	45.4
0.0555	0.0022	0.039	-0.0128	44.9
0.0585	0.0015	0.0232	-0.012	45
0.0652	0.0022	0.0105	-0.012	45
0.0705	0.003	0.009	-0.012	44.9
0.0712	0.006	0.0067	-0.0128	44.7
0.0712	0.0067	0	-0.0135	44.7
0.0652	0.0052	-0.0015	-0.0143	44.3
0.0667	0.0045	-0.006	-0.0128	43.9
0.0982	0.0015	-0.0083	-0.0098	44.1
0.1245	-0.003	-0.0105	-0.0128	43.8
0.0712	-0.0075	-0.012	-0.0181	43.9
0.027	-0.0068	-0.012	-0.0203	43.7
0.0345	-0.0046	-0.0135	-0.021	43.5
0.0202	0.0007	-0.0143	-0.0233	43.2
0.009	0.0037	-0.0173	-0.0263	43.1
0.0052	0.006	-0.0143	-0.024	43.1
-0.0038	0.0082	-0.0113	-0.0203	42.6
-0.012	0.0082	-0.0053	-0.015	42.9
-0.0278	0.009	0.0015	-0.0105	42.4
-0.0361	0.0075	-0.0015	-0.0068	42.5
-0.0361	0.006	-0.0068	-0.0023	42
-0.0338	0.0045	-0.0128	0	41.9
-0.0278	0.0022	-0.0225	0	41.8
-0.0256	-0.0008	-0.0346	0	41.6
-0.0218	-0.0038	-0.045	0.0007	41.6
-0.0158	-0.003	-0.0503	-0.0008	41.1
-0.0128	-0.0023	-0.0511	-0.003	41.1
-0.0098	-0.0015	-0.0465	-0.0075	40.8
-0.0053	-0.0015	-0.0383	-0.0083	40.7
0.0037	0.0015	-0.0293	-0.0075	40.5
0.0165	0.0022	-0.0188	-0.0083	40.2
0.0277	0.003	-0.0075	-0.0091	40.1
0.0367	0.0045	0.0045	-0.0105	39.7
0.0465	0.0022	0.0165	-0.0105	39.7
0.0532	0.0022	0.027	-0.012	39.3
0.0577	0.0022	0.0382	-0.0128	39.2
0.0637	0.0015	0.0465	-0.0128	39.1
0.0637	0.003	0.0532	-0.0135	38.9
0.0592	0.0022	0.06	-0.0128	38.6
0.0517	0.0007	0.0682	-0.0128	38.4
0.042	-0.0008	0.075	-0.0128	38.2
0.0315	-0.0008	0.0787	-0.0113	37.8
0.0217	0	0.0832	-0.0098	37.8
0.0172	-0.0008	0.084	-0.0091	37.3
0.0142	0.0007	0.0847	-0.0091	37.3
0.0165	-0.0008	0.0862	-0.0068	37.1
0.0165	0.0007	0.0862	-0.0053	37
0.0127	0.003	0.084	-0.0038	36.9
-0.0015	0.0015	0.0802	-0.0023	36.4
-0.0225	0.0022	0.0757	-0.0038	36.4
-0.0368	0.0022	0.0697	-0.0015	35.8
-0.045	0.003	0.0645	0	35.9
-0.0428	0.0022	0.0577	0.0015	35.5
-0.0383	-0.0008	0.0517	0.003	35.3
-0.0315	-0.0023	0.048	0.003	34.8
-0.0278	-0.003	0.0502	0.0052	34.7
-0.024	-0.0046	0.0645	0.0045	34.5
-0.0195	-0.003	0.0892	0.006	34.1
-0.0181	-0.0046	0.1087	0.0075	34
-0.0165	-0.0046	0.0952	0.0075	33.7
-0.0143	-0.003	0.0472	0.0075	33.6
-0.0038	-0.0053	0.0007	0.0067	33.3
0.0127	-0.0068	-0.048	0.0067	33.1
0.024	-0.0053	-0.0878	0.006	33
0.0217	-0.0068	-0.1118	0.0067	32.4
0.003	-0.0083	-0.126	0.0067	32.4
-0.0188	-0.0091	-0.1313	0.0052	31.8
-0.039	-0.0075	-0.1275	0.009	31.9
-0.048	-0.0053	-0.117	0.0105	31.5
-0.045	-0.006	-0.1103	0.009	31.2
-0.0405	-0.0046	-0.1013	0.009	31
-0.0383	-0.003	-0.09	0.0097	30.7
-0.0346	-0.0046	-0.081	0.0097	30.6
-0.0346	-0.003	-0.0706	0.0097	30.1
-0.0353	-0.0015	-0.0638	0.0112	30.1
-0.033	0.0007	-0.06	0.0127	29.5
-0.0346	0.0015	-0.0548	0.0105	29.5
-0.0346	-0.0008	-0.0495	0.0112	29
-0.0323	-0.0008	-0.042	0.0135	28.8
-0.024	-0.0015	-0.0353	0.012	28.4
-0.0128	-0.0038	-0.0256	0.0112	28.3
-0.003	-0.0023	-0.0165	0.009	28
-0.0008	-0.0008	-0.0105	0.0052	27.7
-0.0083	-0.0023	-0.0068	0.003	27.5
-0.012	-0.003	-0.0015	0	27.3
-0.0128	-0.006	0.003	-0.0015	27
-0.0135	-0.0068	0.0045	0.0037	26.6
-0.0091	-0.006	0.009	0.003	26.3
-0.0098	-0.0068	0.0135	0.0015	26.1
-0.012	-0.0053	0.018	0.003	25.6
-0.0091	-0.0038	0.0217	0.003	25.6
-0.0015	-0.0023	0.0232	0.0045	25.1
0.009	0	0.0255	0.003	24.8
0.021	-0.0008	0.0262	0.003	24.5
0.0322	-0.0023	0.0255	0.003	24.2
0.0442	-0.0015	0.0232	0.003	23.9
0.0502	-0.0015	0.0217	0.0045	23.6
0.048	-0.0046	0.0247	0.003	23.3
0.0367	-0.0046	0.03	0.0045	23
0.024	0.003	0.033	0.0067	22.8
0.0142	0.0082	0.0345	0.0075	22.4
0.0015	0.006	0.033	0.0097	22.1
-0.0053	0.003	0.0255	0.0097	21.6
-0.0083	0.0015	0.0217	0.003	21.3
-0.0053	0.0007	0.0255	0.0007	21.2
-0.0046	-0.0008	0.0217	-0.0015	20.8
-0.0068	-0.0038	0.018	-0.0181	20.6
-0.0083	-0.0015	0.0105	-0.0173	20.2
-0.0105	0.0022	-0.003	-0.0091	20.1
-0.0128	0.003	-0.0038	-0.0105	19.5
-0.0173	0.0037	-0.0053	-0.0038	19.3
-0.0195	0.0052	-0.012	0.0022	18.8
-0.0203	0.0067	-0.0165	0.012	18.9
-0.024	0.009	-0.021	0.0112	18.4
-0.0278	0.0127	-0.0181	0.0007	18
-0.0308	0.0127	-0.0158	-0.012	17.7
-0.0308	0.0082	-0.0173	-0.0293	17.5
-0.0278	0.0015	-0.0135	-0.015	17.1
-0.0256	-0.003	-0.0128	-0.0008	16.9
-0.0233	-0.0053	-0.0128	-0.006	16.6
-0.0233	-0.0091	-0.0083	0.003	16.2
-0.0218	-0.0105	-0.0068	0	16
-0.0203	-0.0083	-0.0075	0.0045	15.6
-0.024	-0.0015	-0.006	0.009	15.5
-0.0256	0.0045	-0.0023	0.0052	15.1
-0.021	0.0067	-0.0038	0.0135	14.7
-0.0165	0.0067	-0.0053	0.009	14.8
-0.0135	0.0037	-0.0083	-0.0143	14.1
-0.0158	0.0052	-0.0105	-0.0158	14.1
-0.0203	0.0052	-0.0113	0.015	13.5
-0.0233	0.0052	-0.0143	0.015	13.5
-0.0203	0.003	-0.0091	-0.0038	13
-0.0165	-0.006	0	-0.0308	13.1
-0.012	-0.0203	0.0022	-0.0668	12.7
-0.0091	-0.0368	-0.0023	-0.0623	12.5
-0.0053	-0.0368	-0.0038	-0.021	12.2
-0.0053	-0.024	0.0052	0.024	12.1
-0.0068	-0.0046	0.009	0.042	11.8
-0.0083	0.0187	0.0045	0.0525	11.4
-0.0105	0.0367	-0.003	0.0637	11.3
-0.0128	0.063	-0.0091	0.0217	11
-0.015	0.0765	-0.015	-0.0938	10.7
-0.0128	0.0637	-0.021	-0.0893	10.6
-0.0128	0.0487	-0.0315	0.0195	10.3
-0.0128	0.0135	-0.039	0.024	10.1
-0.0098	-0.0398	-0.0443	0.0375	9.5
-0.0053	-0.0518	-0.057	0.048	9.6
0.0015	-0.0233	-0.0615	0.0015	9.2
0.0015	-0.0098	-0.0668	-0.0975	8.9
0.0015	-0.0195	-0.0675	-0.1313	8.7
-0.0053	-0.0375	-0.0653	-0.024	8.5
-0.0181	-0.063	-0.0638	-0.0173	8.2
-0.0128	-0.084	-0.057	-0.012	7.8
0.018	-0.0346	-0.0615	0.0135	7.6
0.0712	0.0292	-0.075	0.0127	7.3
0.123	0.0367	-0.0765	0.0637	7.1
0.1777	0.054	-0.0593	0.0937	7
0.249	0.0412	-0.0518	0.0952	6.5
0.3007	-0.0046	-0.06	0.0495	6.4
0.3255	-0.0405	-0.0653	-0.0075	6
0.3307	-0.0743	-0.0503	-0.057	6.1
0.3187	-0.0728	-0.0158	-0.0383	5.5
0.297	-0.033	0.0135	0.0345	5.5
0.273	0.0247	0.0352	0.0675	5
0.2557	0.057	0.0465	0.057	5
0.2377	0.039	0.0495	0.012	4.5
0.2295	0.021	0.0472	-0.0968	4.3
0.2325	0.009	0.0517	-0.1463	4.2
0.2287	-0.0105	0.0615	-0.0983	3.8
0.186	-0.0256	0.063	-0.1223	3.7
0.081	-0.0165	0.0532	-0.1208	3.3
-0.0593	0.0127	0.0405	-0.048	3.2
-0.1838	0.0345	0.0442	0.0442	2.9
-0.2761	0.0367	0.0532	0.033	2.7
-0.3233	0.0157	0.0465	0.0067	2.5
-0.33	-0.0008	0.0615	0.0105	2.1
-0.3165	-0.0008	0.1087	-0.0038	2.1
-0.294	0.003	0.141	0.0322	1.8
-0.2828	0.015	0.1807	0.0465	1.6
-0.273	0.039	0.2175	0.0847	1.3
-0.249	0.0727	0.21	0.0915	1.2
-0.2213	0.09	0.2032	0.0517	0.9
-0.2041	0.096	0.1987	0.0225	0.7
-0.2048	0.0817	0.186	0.0585	0.4
-0.2183	0.009	0.1552	0.072	-0.1
-0.243	-0.1485	0.1222	0.0052	-0.1
-0.2685	-0.21	0.0967	-0.0788	-0.5
-0.2783	-0.1028	0.045	-0.1463	-0.4
-0.2708	-0.063	0.0142	-0.0923	-0.9
-0.2498	-0.042	0.0142	-0.0608	-1
-0.2205	-0.003	0.0105	-0.0308	-1.2
-0.189	-0.003	-0.0091	0.0487	-1.4
-0.1613	0.0255	-0.1073	0.084	-1.5
-0.1328	0.0495	-0.147	0.1072	-1.6
-0.1021	0.0787	-0.105	0.0817	-2
-0.075	0.075	-0.1298	0.0502	-2.2
-0.0503	0.0435	-0.0878	0.015	-2.2
-0.0203	0.0255	-0.0615	-0.0256	-2.4
0.018	0.006	-0.0548	-0.0585	-2.6
0.0525	0.0127	-0.0158	-0.042	-2.9
0.084	0.0142	-0.0135	0.0052	-3
0.1102	-0.0143	0.0307	-0.0046	-3
0.1267	-0.0675	0.0315	0.0157	-3.1
0.1372	-0.0938	0.0157	0.0337	-3.1
0.1387	-0.0368	0.024	0.0472	-3.6
0.132	0.0127	0.0442	0.0787	-3.4
0.1207	0.0195	0.0667	0.1282	-3.6
0.1087	0.0307	0.0765	0.144	-3.6
0.093	0.006	0.0675	0.0562	-3.8
0.0825	-0.0075	0.0345	-0.033	-3.9
0.072	0.018	0.0052	-0.0706	-4.1
0.063	0.0142	-0.0428	-0.1523	-4.3
0.0577	0.0082	-0.0578	-0.2415	-4.2
0.0555	0.0067	-0.078	-0.1388	-4.2
0.0555	-0.003	-0.1178	-0.0413	-4.4
0.0502	-0.0218	-0.1343	0.0105	-4.4
0.0465	-0.0181	-0.1463	0.042	-4.4
0.0502	0.003	-0.1478	-0.0098	-4.4
0.051	-0.0083	-0.1628	-0.0323	-4.6
0.0465	-0.0181	-0.1665	-0.0675	-4.3
0.036	-0.0353	-0.1711	-0.0593	-4.7
0.0247	-0.048	-0.1763	-0.0233	-4.4
0.0067	-0.0495	-0.1665	0.0262	-4.5
-0.0068	-0.0428	-0.1711	0.0532	-4.5
-0.027	-0.033	-0.1748	0.0555	-4.5
-0.054	-0.0285	-0.1328	0.0675	-4.4
-0.075	-0.0008	-0.0818	0.033	-4.4
-0.099	0.018	-0.057	-0.0015	-4.5
-0.1223	0.0315	-0.0278	-0.024	-4.1
-0.135	0.0525	-0.0158	-0.0015	-4.2
-0.1298	0.0495	-0.0023	0.0277	-4.1
-0.1163	0.012	0.021	0.0457	-4
-0.12	-0.024	0.03	0.0292	-4.1
-0.129	-0.0046	0.027	0.0015	-3.8
-0.1088	0.0142	0.0015	-0.0083	-3.9
-0.0638	0.0105	-0.0143	-0.0008	-3.6
-0.0158	0.0307	-0.0233	0.0217	-3.9
0.057	0.0105	-0.0383	0.0217	-3.4
0.156	-0.0188	-0.0368	0.0322	-3.6
0.2287	0.0052	-0.024	0.039	-3.3
0.2625	0.021	-0.0135	0.0442	-3.5
0.2625	0.042	-0.0128	0.0457	-3.3
0.2445	0.069	-0.0083	0.0457	-3.2
0.2287	0.0585	0.0457	0.0457	-3.1
0.2182	0.0532	0.1335	0.024	-3.1
0.21	0.0382	0.207	-0.006	-2.7
0.21	0.009	0.2872	-0.0278	-2.7
0.2212	-0.0046	0.3502	-0.0593	-2.6
0.2272	0.0052	0.3847	-0.1155	-2.6
0.222	0.0315	0.3892	-0.1515	-2.3
0.2145	0.0247	0.3525	-0.1006	-2.3
0.2032	-0.0068	0.3127	0.009	-2.2
0.1837	-0.093	0.2647	0.024	-2
0.1657	-0.1711	0.2055	0.0472	-1.7
0.1462	-0.1013	0.135	0.0915	-1.8
0.1252	0	0.0847	0.0765	-1.7
0.099	0.0142	0.1065	0.054	-1.6
0.0705	0.0202	0.1252	0.0202	-1.2
0.045	0.0517	0.0795	0.0067	-1.3
0.0142	0.054	0.018	-0.0203	-1.1
-0.0075	0.0465	-0.0248	-0.0346	-1
-0.0203	0.042	-0.0473	-0.0443	-0.8
-0.03	0.0615	-0.0653	-0.0398	-0.8
-0.045	0.084	-0.0818	-0.0195	-0.5
-0.0638	0.042	-0.1365	-0.0128	-0.4
-0.0706	-0.0188	-0.2438	0.0082	-0.2
-0.0728	-0.1163	-0.306	0.027	-0.1
-0.0788	-0.1741	-0.321	0.048	0
-0.084	-0.0885	-0.3443	0.0502	0.3
-0.0968	0.0052	-0.3668	0.0502	0.5
-0.1013	0.0525	-0.3915	0.084	0.4
-0.0968	0.0652	-0.4088	0.1005	0.9
-0.0856	0.018	-0.411	0.0555	0.8
-0.0706	-0.0068	-0.4275	-0.0165	1
-0.0615	-0.0173	-0.4298	-0.057	1.2
-0.0458	-0.0533	-0.3818	-0.1515	1.4
-0.0346	-0.0518	-0.336	-0.213	1.4
-0.0225	-0.0068	-0.3045	-0.1006	1.6
-0.0158	0.0727	-0.2633	0.0172	1.9
-0.0143	0.1042	-0.2213	0.0727	2
-0.0181	0.0877	-0.1568	0.042	2
-0.048	-0.012	-0.0878	-0.0368	2.2
-0.0713	-0.2033	-0.024	-0.0915	2.3
-0.075	-0.2026	0.0352	-0.159	2.4
-0.0863	-0.0675	0.0742	-0.2175	2.6
-0.0975	0.0015	0.1207	-0.0848	2.9
-0.114	0.0682	0.1605	0.09	2.9
-0.132	0.1192	0.174	0.0877	3.1
-0.1328	0.147	0.1597	0.012	3.1
-0.1365	0.132	0.1462	-0.0968	3.3
-0.1426	0.0592	0.1462	-0.084	3.2
-0.1441	-0.0608	0.1312	-0.0165	3.6
-0.1305	-0.1268	0.114	0.0007	3.6
-0.114	-0.0983	0.1087	0.0187	3.8
-0.1118	-0.0953	0.1072	0.0405	3.8
-0.1013	-0.057	0.0795	0.0225	4
-0.0968	-0.0645	0.0277	-0.0181	4.3
-0.0975	-0.0706	-0.0203	0.0555	4.2
-0.093	0.0277	-0.0533	0.0907	4.4
-0.1043	0.039	-0.0885	0.0585	4
-0.135	0.0367	-0.1155	0.0397	4.2
-0.1463	0.0412	-0.108	0.0202	4.3
-0.1238	0.0382	-0.0856	0.0825	4.3
-0.1178	0.0547	-0.0743	0.1087	4.1
-0.0968	0.0502	-0.0353	0.0802	4.1
-0.0893	0.0757	0.0435	0.0232	4.1
-0.0975	0.0817	0.1402	-0.0885	3.6
-0.0848	0.0697	0.2422	-0.096	3.6
-0.078	0.0285	0.2977	-0.066	3.6
-0.0511	-0.033	0.3202	-0.0495	3.6
-0.027	-0.0818	0.3667	0.0255	3.7
0.018	-0.1448	0.4237	0.0127	3.6
0.0757	-0.1043	0.4447	-0.0113	3.6
0.1327	-0.0263	0.3915	0.0045	3.5
0.1957	-0.0195	0.3352	0.0307	3.6
0.2287	0.0075	0.285	0.0367	3.3
0.2535	0.0075	0.2032	0.0007	3.5
0.2595	-0.0015	0.1402	-0.0128	3.3
0.2617	-0.0038	0.0997	-0.0353	3.6
0.2707	-0.0256	0.057	0.0045	3.6
0.2707	-0.0046	-0.0248	0.045	3.3
0.2475	0.0292	-0.0743	0.0465	3.3
0.1987	0.048	-0.042	0.06	3.1
0.1702	0.0525	-0.0008	0.048	3.3
0.1575	0.042	0.0975	0.042	3.2
0.1425	0.0345	0.1402	0.033	3.3
0.0982	0.0277	0.1057	0.0195	3.1
0.0225	0.0202	0.099	0.0127	3.1
-0.0293	0.0195	0.0577	0.0052	3.4
-0.0638	0.0165	0.042	-0.0015	3.2
-0.1065	0.0105	0.0082	-0.0075	3.5
-0.1575	0.0067	-0.0968	-0.0105	3.6
-0.1995	0.0037	-0.2115	-0.012	3.8
-0.2453	0.0045	-0.2723	-0.0128	3.6
-0.2895	0.0052	-0.2881	-0.0165	4
-0.312	0.0082	-0.294	-0.0203	4.2
-0.3375	0.006	-0.258	-0.0195	4.4
-0.3511	0.0045	-0.2408	-0.0128	4.4
-0.333	0.0067	-0.2198	-0.0068	4.8
-0.303	0.0082	-0.1785	0	5.2
-0.2595	0.0097	-0.1268	0.0135	5.6
-0.2288	0.006	-0.075	0.0127	5.9
-0.2063	-0.003	-0.0563	-0.0195	6.3
-0.1778	-0.0083	-0.0308	-0.048	6.7
-0.1478	-0.006	0.0285	-0.0263	7.1
-0.1058	-0.012	0.1072	-0.0135	7.4
-0.0465	-0.0203	0.1545	-0.0181	8.1
0.0247	-0.0218	0.1912	-0.006	8.1
0.0495	-0.0068	0.216	-0.0068	8.8
0.0427	0.0217	0.2272	0.0045	9
0.123	0.0262	0.2415	0.0037	9.8
0.2025	0.0187	0.2535	-0.0105	9.9
0.2467	0.027	0.2325	0.003	10.5
0.3157	0.033	0.1522	0.0345	10.7
0.405	0.009	0.0855	0.0915	11.2
0.4875	-0.0691	0.0877	0.1042	11.2
0.5152	-0.1208	0.1237	0.069	11.6
0.507	-0.0458	0.162	-0.0053	11.8
0.4635	0.0217	0.2175	-0.1328	12
0.423	0.0015	0.231	-0.2153	11.9
0.4095	-0.033	0.231	-0.21	12.4
0.3727	-0.1125	0.2557	-0.0915	12.5
0.3112	-0.108	0.2587	-0.0068	12.5
0.2602	-0.0091	0.267	0.0202	12.6
0.2175	0.0045	0.2257	0.1005	12.7
0.1635	0.0165	0.162	0.1387	12.7
0.1102	0.0247	0.1567	0.1612	12.9
0.0547	0.0187	0.114	0.1335	12.7
-0.0053	0.0345	0.0615	0.0517	12.9
-0.0668	0.0262	0.033	-0.1088	12.8
-0.1163	0.024	-0.0465	-0.189	12.8
-0.165	0.018	-0.1065	-0.0623	12.5
-0.2265	0.018	-0.1568	0.0082	12.6
-0.2745	0.0187	-0.2123	0.015	12.4
-0.306	0.0157	-0.2558	0.0232	12.1
-0.333	0.027	-0.3105	0.0225	12.2
-0.3315	0.024	-0.3413	0.0262	12.1
-0.3053	0.0232	-0.3848	0.0285	11.9
-0.2723	0.024	-0.4148	0.0307	11.7
-0.2168	0.0195	-0.3945	0.0382	11.7
-0.1441	-0.0091	-0.363	0.0525	11.4
-0.0653	-0.0578	-0.3466	0.0487	11
0.0172	-0.0645	-0.3458	0.0307	11
0.099	-0.0278	-0.3481	0.0165	10.5
0.1807	-0.0053	-0.3293	0.0082	10.4
0.258	0.003	-0.3015	0.0015	9.9
0.3142	0.0127	-0.2933	-0.003	10.1
0.3607	0.0097	-0.2888	0.0037	9.6
0.3945	0.0127	-0.2813	0.012	9.3
0.3967	0.012	-0.255	0.0127	8.9
0.3817	0.0105	-0.2325	0.0187	8.6
0.3645	0.0165	-0.2078	0.0232	8.5
0.336	0.0165	-0.1711	0.0232	8.4
0.303	0.0165	-0.1448	0.0195	9.4
0.2497	0.0105	-0.1238	0.0142	9.4
0.1522	0.0067	-0.1088	0.0135	9.7
0.0187	0.006	-0.1006	0.009	8.6
-0.1223	0.0007	-0.0878	0.0082	7
-0.2505	-0.0046	-0.0856	0.0067	6.8
-0.36	-0.0091	-0.0923	0.0052	7.3
-0.4425	-0.0023	-0.0803	0.003	8.1
-0.4913	-0.0015	-0.0608	0.0007	8.2
-0.4965	-0.0038	-0.0518	0.0022	8.6
-0.4695	0	-0.0413	0.003	8.4
-0.429	-0.0008	-0.0128	0.0037	8.5
-0.3893	0.003	0.0082	0	8.4
-0.324	0.006	-0.0113	-0.003	8.4
-0.2385	0.0067	-0.0256	-0.0038	8.5
-0.1696	0.0112	-0.0256	-0.0038	8.7
-0.1275	0.0097	-0.0315	-0.0046	8.7
-0.1118	0.0052	-0.0233	-0.0083	8.4
-0.1298	0.003	-0.0075	-0.0075	9
-0.1748	-0.0008	0.0255	-0.0015	8.6
-0.2513	-0.0091	0.051	-0.0038	9
-0.3668	-0.0143	0.072	-0.0046	8.9
-0.4463	-0.003	0.0937	-0.0038	9
-0.4703	0.027	0.1012	-0.0105	9.2
-0.4935	0.0457	0.1117	-0.0278	9.3
-0.4778	0.033	0.111	-0.0293	9.1
-0.4523	0.0105	0.1087	-0.0181	9
-0.4133	-0.0165	0.0975	-0.0233	9
-0.381	-0.0278	0.078	-0.0203	9
-0.3668	-0.0165	0.0652	-0.0181	9.2
-0.3323	-0.0158	0.042	-0.0233	9.1
-0.297	-0.0128	0.0135	-0.027	9
-0.2138	-0.0105	-0.0105	-0.0308	9
-0.1013	-0.0195	-0.0195	-0.0203	9.1
0.0345	-0.0203	0.0037	-0.0181	8.9
0.1582	-0.0173	0.0517	-0.0158	8.7
0.2467	-0.0113	0.1207	-0.0135	8.8
0.324	0.0052	0.1995	-0.0188	8.6
0.3765	0.0187	0.2632	-0.0195	8.7
0.4237	0.0187	0.3127	-0.0181	8.7
0.4657	0.018	0.3562	-0.0158	8.4
0.5085	-0.0091	0.3915	-0.0173	8.5
0.5542	-0.0765	0.4192	-0.0173	8.5
0.5857	-0.1043	0.4312	-0.0218	8.5
0.597	-0.0495	0.4275	-0.027	8.5
0.591	0.0142	0.4155	-0.0225	8.8
0.5715	0.0457	0.4065	-0.0098	8.5
0.543	0.0742	0.4005	0.012	8.1
0.5085	0.0495	0.3862	0.0277	7.9
0.4612	-0.0083	0.3667	0.048	8.4
0.4065	-0.0053	0.3502	0.0772	8.1
0.348	0.0285	0.3307	0.0652	7.8
0.2917	0.0225	0.3067	0.0307	7.8
0.2287	0.003	0.2797	0.0255	7.6
0.156	0.0067	0.249	0.0307	7.7
0.0877	-0.0068	0.216	0.009	7.5
0.033	-0.0135	0.18	-0.0083	7.6
-0.0195	0.0105	0.1507	-0.0068	7.2
-0.0638	0.021	0.1215	-0.0165	7.6
-0.1043	-0.0083	0.0825	-0.0278	7.2
-0.1441	-0.003	0.045	-0.0105	7.2
-0.1673	0.0772	0.0127	0.0142	7.1
-0.1763	0.0735	-0.0105	0.0195	7
-0.1673	-0.0218	-0.0308	0.0202	7.1
-0.1613	-0.1441	-0.0518	0.0142	6.7
-0.1545	-0.1815	-0.0713	0.012	6.8
-0.1553	-0.0593	-0.1163	0.0202	6.7
-0.1583	0.0142	-0.1583	0.0217	6.6
-0.1538	0.0367	-0.1433	0.003	6.5
-0.1635	0.024	-0.1125	-0.0315	6.4
-0.1823	0.0082	-0.0923	-0.0653	6.3
-0.1838	0.0405	-0.0765	-0.0856	6
-0.1643	0.0255	-0.0856	-0.0915	6.2
-0.1583	0.033	-0.1058	-0.0938	5.8
-0.156	0.0352	-0.1313	-0.0938	6.1
-0.147	0.0292	-0.1575	-0.09	5.8
-0.1426	0.0442	-0.1785	-0.0856	5.8
-0.1313	0.0442	-0.2011	-0.0773	5.8
-0.1253	0.0517	-0.225	-0.0698	5.8
-0.1185	0.033	-0.2378	-0.0585	5.8
-0.1095	-0.0203	-0.243	-0.0488	5.8
-0.0975	-0.1133	-0.2483	-0.0413	5.9
-0.0765	-0.1253	-0.2378	-0.0278	5.7
-0.0533	-0.0188	-0.2295	-0.012	5.9
-0.0233	0.0277	-0.2273	-0.0008	5.4
0.012	0.027	-0.2213	0.012	5.5
0.0495	0.0405	-0.2115	0.0277	5.5
0.0862	0.0352	-0.1958	0.042	5.8
0.1177	0.0082	-0.1763	0.048	5.7
0.147	-0.0278	-0.1613	0.0435	5.6
0.1672	-0.0615	-0.1673	0.0255	5.6
0.1807	-0.0773	-0.165	0.024	5.3
0.1845	-0.0458	-0.126	0.0457	5.3
0.1792	-0.0128	-0.0818	0.0517	5.3
0.1657	0.0052	-0.0518	0.057	5.3
0.141	0.0352	-0.03	0.0675	5.2
0.1117	0.0337	-0.0368	0.0727	5.1
0.0952	0.0352	-0.0495	0.072	5
0.0892	0.0315	-0.0495	0.0547	5
0.0802	0.003	-0.039	0.0352	5.1
0.081	0.003	-0.0165	0.0345	5
0.0885	0.0127	0.0067	0.0382	5
0.0892	0.0285	0.0285	0.0352	4.9
0.0877	0.051	0.054	0.0277	5
0.0765	0.042	0.0742	0.021	4.9
0.063	0.003	0.0712	0.0337	4.9
0.0517	-0.033	0.0517	-0.0038	4.8
0.039	-0.0525	0.0457	-0.045	4.7
0.0217	-0.0293	0.0577	-0.003	4.6
0.0067	0.027	0.0645	0.0202	4.6
-0.003	0.0937	0.045	0.033	4.4
-0.0113	0.1485	0.0285	0.0517	4.5
-0.0143	0.0915	0.027	0.0652	4.4
-0.0218	-0.1133	0.0127	0.0817	4.5
-0.0263	-0.24	-0.0091	0.0315	4.3
-0.027	-0.1613	-0.0263	-0.0578	4.4
-0.0315	-0.0818	-0.0495	-0.0863	4.2
-0.0368	-0.0015	-0.0653	-0.078	4.2
-0.042	0.0592	-0.078	-0.0893	4
-0.0436	0.015	-0.0856	-0.0953	4.1
-0.0503	-0.0105	-0.084	-0.0863	3.9
-0.0518	-0.0585	-0.081	-0.0495	4.1
-0.0465	-0.0975	-0.0788	-0.021	3.8
-0.0473	-0.0863	-0.078	-0.0068	3.6
-0.0465	-0.099	-0.0743	0.021	3.7
-0.0503	-0.0653	-0.0713	0.0495	3.6
-0.057	0.0277	-0.0653	0.0577	3.6
-0.0585	0.0637	-0.0593	0.0465	3.6
-0.0585	0.075	-0.0525	0.0502	3.6
-0.06	0.0997	-0.0458	0.0457	3.5
-0.0578	0.0832	-0.039	0.0255	3.6
-0.0585	0.0772	-0.0308	0.0052	3.5
-0.0623	0.0682	-0.0285	-0.0038	3.4
-0.066	0.0015	-0.0218	-0.0046	3.3
-0.0675	-0.0555	-0.0143	-0.0008	3.1
-0.0706	-0.015	-0.012	0.009	3.3
-0.0706	0.0232	-0.0068	0.0097	3
-0.0638	0.0172	0	0.009	3.2
-0.0473	0.0307	0.0105	0.0082	2.9
-0.0338	0.0202	0.0195	0.0097	3.1
-0.0293	0.0202	0.0262	0.0105	3.1
-0.03	0.018	0.03	0.0075	2.9
-0.0256	0.0097	0.0307	0.0007	2.6
-0.0165	0.0142	0.036	-0.003	2.8
-0.0105	0.0082	0.039	-0.0068	2.9
0.0015	0.0105	0.0405	-0.0075	2.6
0.015	0.0127	0.042	-0.0046	2.6
0.0292	0.0112	0.039	-0.0015	2.4
0.0405	0.0037	0.0345	-0.0008	2.6
0.0457	-0.003	0.027	-0.0068	2.4
0.0487	-0.0046	0.0217	-0.0015	2.4
0.0442	-0.0046	0.0217	0.0015	2.3
0.0367	0.0007	0.0285	-0.012	2.2
0.0277	0.003	0.042	-0.0278	2.3
0.0157	0.012	0.0382	-0.0361	2.2
0.0045	0.0165	0.024	-0.033	2.3
-0.0128	0.0105	0.054	-0.03	2.1
-0.0315	0.0022	0.0832	-0.0165	2.1
-0.0465	-0.0023	0.0615	-0.003	2.1
-0.0548	-0.0015	0.0232	0.0075	1.8
-0.063	-0.006	-0.0105	0	1.9
-0.0735	-0.0105	-0.0278	-0.0165	1.7
-0.078	-0.012	-0.0405	-0.0143	1.9
-0.081	-0.0091	-0.0405	-0.0091	1.7
-0.0735	-0.0046	-0.042	-0.0083	1.7
-0.063	-0.0046	-0.0495	-0.0068	1.8
-0.0503	-0.0075	-0.0428	-0.0091	1.7
-0.0353	-0.0083	-0.0293	-0.006	1.5
-0.027	-0.0046	-0.0165	-0.0046	1.6
-0.0195	0.0015	-0.0233	-0.0046	1.5
-0.0083	0.0067	-0.0323	-0.003	1.5
-0.0015	0.015	-0.03	-0.003	1.4
-0.0008	0.0165	-0.0181	-0.0023	1.5
0.0052	0.0105	-0.0015	-0.0046	1.4
0.009	0.0067	0.012	-0.0015	1.5
0.0105	0.009	0.0127	0.0045	1.4
0.012	-0.012	0.0135	-0.0038	1.3
0.0127	-0.057	0.024	-0.012	1.3
0.0082	-0.0428	0.0292	-0.021	1.3
0.0007	-0.0083	0.0277	-0.0203	1.2
-0.0053	0.0052	0.027	-0.0038	1.3
-0.0128	0.0315	0.0277	-0.0038	1
-0.012	-0.0098	0.036	-0.0068	1.3
-0.006	-0.0915	0.045	-0.003	1
-0.0015	-0.0728	0.0532	-0.0008	1.3
0.0052	0.0202	0.0532	0.003	1.2
0.0127	0.0405	0.0442	-0.0023	1.2
0.0202	0.0397	0.045	-0.0053	1.3
0.0217	0.0652	0.0562	-0.0053	1.2
0.024	0.0645	0.0532	-0.0053	1
0.0292	0.0495	0.0457	-0.0038	1
0.0277	-0.033	0.0427	-0.0023	1
0.0285	-0.1388	0.0472	-0.0053	0.9
0.0277	-0.1711	0.054	-0.0091	1.2
0.0232	-0.0765	0.0585	-0.0083	1
0.0195	0.0045	0.0615	-0.0263	1.1
0.0112	0.0127	0.057	-0.0368	1.1
0.0052	0.0337	0.0517	-0.0181	1
0.003	0.0232	0.0345	0.0067	1.3
0.0052	0.0202	0.0067	0.018	0.9
0.009	0.009	-0.0091	0.0217	1.1
0.0052	0.0037	-0.0203	0.0352	0.9
-0.003	0	-0.0181	0.0352	1.1
-0.0105	0.0225	-0.0015	0.0255	0.9
-0.0181	0.0712	-0.003	0.0165	1
-0.0135	0.0345	-0.0315	0.0157	0.9
-0.0053	0.015	-0.0361	0.0142	1
-0.0015	0.0232	-0.0256	0.0082	0.9
0.0015	0.0142	-0.0346	0.0075	0.9
0.0052	0.015	-0.0458	0.0112	1
0.0105	0.0127	-0.0615	0.0187	0.9
0.0105	0.0142	-0.0383	0.018	0.9
0.0082	0.0082	-0.0053	0.0187	0.9
0.0007	0.009	0.0007	0.0195	0.9
-0.0046	0.0105	0.015	0.0157	1
0.003	0.0105	0.0007	0.012	0.9
0.003	0.0082	-0.0128	0.009	0.8
-0.0008	0.0052	-0.03	0.0067	0.8
-0.0053	0.0105	-0.0728	0.0022	0.9
-0.0105	0.0015	-0.123	0.003	0.8
-0.0203	-0.0015	-0.1583	0.0045	0.8
-0.0383	0.003	-0.1613	0.0037	0.9
-0.06	-0.0015	-0.1508	0.0015	0.9
-0.0795	-0.0068	-0.1305	0	0.9
-0.09	-0.0158	-0.1343	-0.0008	0.7
-0.096	-0.0218	-0.1305	-0.0015	1
-0.099	-0.0046	-0.1155	-0.0015	0.9
-0.1006	0.0105	-0.0615	-0.0023	0.9
-0.1013	0.0052	0.0795	-0.003	0.7
-0.093	0.0045	0.192	-0.0023	0.9
-0.0788	-0.0046	0.261	-0.0053	0.8
-0.0668	-0.0143	0.3562	-0.0068	0.9
-0.0465	-0.0323	0.438	-0.0068	0.9
-0.027	-0.0488	0.4312	-0.0083	0.8
-0.0143	-0.0256	0.4042	-0.0053	0.8
-0.0113	-0.0068	0.4185	-0.0075	0.7
-0.0135	-0.0113	0.426	-0.0091	0.8
-0.006	-0.0053	0.4522	-0.0105	0.7
0.0067	-0.0053	0.4695	-0.0143	0.9
0.018	-0.0068	0.4455	-0.0128	0.9
0.033	-0.0015	0.3127	-0.0091	0.8
0.0532	-0.0015	0.1365	-0.0075	0.9
0.0742	0	0.033	-0.0068	0.8
0.0892	-0.0015	-0.078	-0.0015	1
0.0937	0.0015	-0.1733	0.0022	0.9
0.0945	0.0015	-0.2408	0.0007	1.2
0.099	-0.0046	-0.2993	-0.0038	0.9
0.099	-0.0046	-0.327	-0.0053	1
0.1027	-0.0053	-0.3668	-0.0038	0.9
0.1252	-0.0046	-0.4133	-0.0053	0.9
0.156	-0.0038	-0.4553	-0.0038	0.9
0.1725	-0.0038	-0.4853	-0.0015	1.1
0.1875	-0.0015	-0.498	-0.0015	0.9
0.2107	-0.0015	-0.4928	-0.0023	1.1
0.231	-0.0008	-0.48	-0.003	1
0.2445	0.0015	-0.4568	-0.0015	1.1
0.237	0.0045	-0.4283	-0.0015	1.1
0.2235	0.0045	-0.4081	-0.003	1.2
0.2122	0.0015	-0.3953	-0.0038	1.1
0.201	0.0045	-0.3938	-0.0015	1.2
0.1867	0.0082	-0.3938	0.0007	1.1
0.162	0.0142	-0.375	-0.0008	1.2
0.1327	0.0285	-0.3406	-0.0008	1.1
0.0952	0.0315	-0.327	-0.0015	1.3
0.0517	0.0127	-0.294	-0.0046	1.1
0.0052	-0.0068	-0.2273	-0.006	1.4
-0.042	-0.0203	-0.177	-0.0053	1.2
-0.0856	-0.0256	-0.126	-0.0046	1.4
-0.1238	-0.0278	-0.1013	0	1.3
-0.1553	-0.0278	-0.0758	0.0052	1.3
-0.192	0.0135	-0.0405	0.012	1.3
-0.2355	0.0577	0.0007	0.0127	1.4
-0.2655	0.0645	0.0577	0.0105	1.4
-0.2888	0.0705	0.1065	0.0127	1.3
-0.2955	0.0712	0.1657	0.018	1.5
-0.2685	0.063	0.222	0.0187	1.5
-0.2033	0.0517	0.2775	0.0105	1.4
-0.1275	0.0405	0.3157	0.003	1.5
-0.0503	0.0465	0.3405	-0.0046	1.4
0.018	0.033	0.3705	-0.015	1.5
0.0712	-0.039	0.3877	-0.0173	1.3
0.1042	-0.129	0.4057	-0.024	1.6
0.111	-0.1741	0.3952	-0.024	1.4
0.1072	-0.1741	0.3517	-0.0075	1.5
0.0877	-0.0691	0.303	-0.003	1.5
0.0562	0.093	0.2617	0.0097	1.5
0.0187	0.1215	0.2347	0.0165	1.6
-0.021	0.102	0.2122	0.0195	1.6
-0.063	0.0765	0.1905	0.018	1.6
-0.1006	0.0157	0.1762	0.0075	1.6
-0.123	-0.0773	0.1875	0.0045	1.7
-0.1365	-0.1628	0.2055	-0.0008	1.7
-0.135	-0.0706	0.2235	0.003	1.7
-0.1275	0.0127	0.2542	0.0015	1.6
-0.1178	0.0067	0.2895	-0.0008	1.5
-0.1088	-0.0023	0.3322	0.0015	1.8
-0.0975	0.0045	0.3675	0.0015	1.6
-0.0825	0.0367	0.3742	0.0022	1.9
-0.0675	0.024	0.3405	0	1.5
-0.045	0.0292	0.2805	-0.0008	1.8
-0.027	0.027	0.2287	-0.0015	1.7
-0.0113	0.0165	0.1642	-0.0015	1.8
0.0015	0.018	0.075	-0.0008	1.8
0.0067	0.0037	-0.0105	0.0007	1.8
0.0045	0.0082	-0.075	0.0037	1.8
-0.006	0.0015	-0.1328	0.0022	1.8
-0.0188	0.0007	-0.1748	0.0015	1.9
-0.0203	-0.0023	-0.2026	0.0007	1.9
0.0022	-0.0068	-0.225	0.0007	1.9
0.0307	-0.0083	-0.2235	0.0007	2
0.0577	-0.0128	-0.1883	-0.0008	2.1
0.0945	-0.012	-0.1411	-0.003	2.1
0.1042	-0.0181	-0.1088	-0.003	2
0.0967	-0.0278	-0.084	-0.0053	2.2
0.0937	-0.0458	-0.0645	-0.0083	1.8
0.084	-0.042	-0.054	-0.0068	2.2
0.0765	-0.0233	-0.045	-0.0038	2
0.072	-0.0091	-0.0488	0.003	2
0.0712	0.0105	-0.0511	0.0082	2.2
0.0735	0.0232	-0.057	0.0097	2.2
0.0772	0.0427	-0.0728	0.012	2.4
0.0735	0.0412	-0.0773	0.0075	2
0.0652	0.0157	-0.0615	0.003	2.2
0.063	-0.0038	-0.0346	-0.0015	2
0.0592	-0.0323	-0.003	-0.0046	2.4
0.0592	-0.042	0.0285	-0.0008	2.2
0.0502	-0.0165	0.0652	0.0037	2.5
0.0435	-0.0091	0.1005	0.0045	2.2
0.0495	-0.0091	0.1095	0.006	2.2
0.0577	-0.0015	0.1245	0.0022	2.2
0.0637	-0.006	0.1365	0.0022	2.3
0.0607	-0.0135	0.1432	0	2.4
0.051	-0.0346	0.1432	-0.0053	2.4
0.0382	-0.0346	0.114	-0.0015	2.2
0.0157	-0.0128	0.1065	0.0037	2.4
-0.0181	-0.0143	0.1102	0.0022	2.3
-0.0593	-0.0405	0.1102	0.0007	2.2
-0.1103	-0.0488	0.1042	0.0045	2.2
-0.1523	-0.0128	0.0885	0.0067	2.3
-0.1733	-0.003	0.072	-0.0008	2.3
-0.1935	-0.0046	0.057	-0.0135	2.4
-0.222	0.0262	0.0435	-0.0075	2.4
-0.2393	0.0727	0.0165	0.0187	2.4
-0.2445	0.0862	-0.0083	0.0247	2.2
-0.243	0.0585	-0.0353	0.021	2.4
-0.231	0.042	-0.0653	0.018	2.4
-0.1958	0.0277	-0.0878	0.0022	2.2
-0.1403	0.018	-0.1148	-0.0046	2.3
-0.0818	0.0165	-0.135	-0.0008	2.4
-0.0195	0.0135	-0.1523	-0.0038	2.2
0.0435	0.0165	-0.1688	-0.0023	2.2
0.099	0.018	-0.1823	0.0015	2.2
0.1357	0.006	-0.1943	0.0015	2.3
0.1597	0.0007	-0.2011	0.0052	2.1
0.171	-0.0113	-0.2085	0.003	2.2
0.15	-0.0338	-0.2108	-0.0008	2.2
0.1402	-0.045	-0.2033	-0.0046	2.3
0.1545	-0.0563	-0.186	-0.0053	2.1
0.1372	-0.0405	-0.1815	-0.0068	2.4
0.1155	-0.0181	-0.186	-0.0068	2.2
0.0915	-0.0023	-0.1808	-0.0046	2.3
0.0742	0.009	-0.1823	-0.0083	2.2
0.0765	-0.003	-0.18	-0.0098	2.3
0.0772	-0.012	-0.1711	-0.0091	2.2
0.0862	-0.0128	-0.1703	-0.003	2.2
0.084	0.0067	-0.1673	-0.0015	2.1
0.0765	0.009	-0.1665	-0.0113	2.4
0.0607	-0.012	-0.1635	-0.027	2.2
0.0427	-0.0203	-0.1575	-0.0285	2.1
0.0255	-0.021	-0.1478	-0.0181	2.1
0.0045	-0.006	-0.1388	-0.0105	2.3
-0.0128	0.012	-0.132	-0.003	2.1
-0.0293	0.0277	-0.129	0.0067	2.3
-0.045	0.0172	-0.1253	0.0195	2.2
-0.0563	0.012	-0.1148	0.024	2.5
-0.0608	0.0165	-0.1058	0.0112	2.1
-0.063	0.0022	-0.093	-0.003	2.2
-0.0638	0.0052	-0.0856	-0.0075	2.1
-0.066	0.003	-0.0735	-0.0091	2.2
-0.0638	-0.0015	-0.0533	-0.012	2.2
-0.0615	-0.0091	-0.0353	-0.0135	2.4
-0.0615	-0.0135	-0.0203	-0.0105	2.3
-0.0608	-0.0015	-0.0091	-0.006	2.2
-0.0555	0.0052	0.0007	-0.0038	2.2
-0.0495	0.012	0.012	-0.0008	2.2
-0.045	0.0142	0.0255	0.0022	2.2
-0.0428	0.0165	0.0442	0	2.2
-0.0465	0.0112	0.0592	-0.0023	2.4
-0.0511	0.006	0.0705	-0.0015	2.3
-0.057	0.006	0.0832	-0.0023	2.2
-0.0653	0.0022	0.0915	-0.0038	2.4
-0.0728	0.0052	0.099	-0.0046	2.3
-0.0788	0.0052	0.1087	-0.0046	2.4
-0.0825	0.0052	0.1185	-0.0068	2.3
-0.0848	0.0045	0.1252	-0.0091	2.4
-0.0833	-0.0008	0.1275	-0.0091	2.3
-0.075	-0.0015	0.1297	-0.0091	2.3
-0.0675	-0.0015	0.1297	-0.0023	2.3
-0.0623	0.0015	0.1335	0.0067	2.4
-0.0608	-0.0008	0.1372	0.0142	2.4
-0.057	-0.003	0.138	0.0127	2.5
-0.0525	-0.0023	0.1387	0.0007	2.4
-0.0495	-0.0015	0.135	-0.0158	2.6
-0.0465	-0.0015	0.1282	-0.0256	2.3
-0.0383	0.0007	0.1237	-0.0128	2.6
-0.0278	0.006	0.117	-0.0046	2.4
-0.0165	0.0045	0.1087	-0.0068	2.6
-0.006	0.0052	0.105	-0.0008	2.5
-0.0008	0.0067	0.0967	0.0007	2.5
0.0075	0.0075	0.0877	0.003	2.6
0.018	0.0082	0.0817	-0.0008	2.6
0.027	0.0052	0.0765	-0.0046	2.6
0.039	0.0045	0.075	-0.0083	2.8
0.0465	0.0015	0.069	-0.012	2.7
0.0577	0.0037	0.0637	-0.0023	2.8
0.069	0.003	0.0607	0.009	2.9
0.0735	-0.0015	0.0547	0.0157	2.9
0.078	0	0.0502	0.009	2.9
0.0862	0.003	0.0442	0.0082	3
0.0937	0.0045	0.0375	0.0045	2.9
0.099	0.0007	0.0345	0.0045	3.1
0.1012	-0.0015	0.0307	0.009	2.9
0.1005	-0.0068	0.027	0.0007	3.2
0.1005	-0.0143	0.027	-0.0046	3
0.1042	-0.0135	0.0255	-0.0105	3.3
0.1065	-0.012	0.024	-0.0218	3.1
0.1117	-0.0098	0.0217	-0.0278	3.3
0.1132	-0.0023	0.018	-0.015	3.2
0.1132	0.0007	0.0172	0.0045	3.6
0.1125	0.0007	0.0157	0.0105	3.5
0.1087	0.0015	0.0142	0.0067	3.5
0.1087	0	0.012	0.0067	3.6
0.1117	-0.0023	0.009	0.0045	3.5
0.105	-0.0053	0.0105	-0.0008	3.7
0.099	-0.0105	0.0075	-0.0046	3.7
0.0937	-0.0098	0.0007	-0.0008	3.7
0.0855	-0.0008	0.0007	0.003	3.9
0.0832	0.0045	0.0015	0.0037	3.8
0.084	0.0037	0.003	0.012	4
0.0855	0.0052	0.0022	0.0127	3.9
0.087	0.0007	0.0007	0.0022	4.2
0.0862	-0.003	0.003	-0.0068	4.1
0.081	-0.0038	0.0045	-0.0105	4.4
0.0742	-0.003	0.0082	-0.0046	4.3
0.069	0	0.0112	0.0075	4.5
0.06	0.0037	0.0112	0.018	4.5
0.0495	0.0045	0.012	-0.003	4.5
0.042	-0.006	0.0127	-0.0383	4.5
0.036	-0.012	0.0157	-0.0308	4.6
0.0307	-0.0068	0.018	-0.0308	4.7
0.024	-0.0083	0.0195	-0.0383	4.9
0.0172	-0.0128	0.0202	-0.0173	4.9
0.0075	-0.0143	0.0202	0.0127	5
-0.0038	-0.0083	0.0187	0.0465	5.1
-0.0143	0.0007	0.0157	0.042	5.2
-0.0218	0	0.0112	0.0262	5.3
-0.03	0.003	0.0082	0.033	5.3
-0.0375	0.0067	0.021	0.0315	5.4
-0.0428	0.0045	0.024	0.0142	5.6
-0.048	-0.0008	0.009	0.0007	5.5
-0.0518	-0.0015	-0.003	0.0007	5.8
-0.054	0.0007	-0.0143	-0.0015	5.8
-0.0608	-0.0008	-0.0233	-0.0015	5.9
-0.066	0.0015	-0.027	0.0007	5.9
-0.0675	0.006	-0.0353	-0.0008	6
-0.0668	0.006	-0.0383	-0.0008	6.2
-0.0668	0.0045	-0.039	0.0007	6.3
-0.0691	0.0037	-0.0413	0.003	6.4
-0.0765	0.006	-0.0405	0.009	6.4
-0.0915	0.0067	-0.0368	0.0187	6.5
-0.105	0.0067	-0.0293	0.0232	6.7
-0.1155	0.006	-0.027	0.0195	6.8
-0.1253	0.0052	-0.024	0.0097	7.1
-0.1283	0.0015	-0.0218	-0.0165	7
-0.1215	-0.0053	-0.0218	-0.0323	7.2
-0.099	-0.0091	-0.0203	-0.027	7.3
-0.078	-0.0105	-0.021	-0.03	7.6
-0.09	-0.0068	-0.0195	-0.0143	7.6
-0.093	-0.0008	-0.0173	-0.0023	7.8
-0.0428	-0.0023	-0.0128	-0.0068	7.9
-0.042	0.0015	-0.012	0	8.1
-0.1065	0.003	-0.0105	-0.0038	8.5
-0.165	0.0015	-0.0068	0.0015	8.4
-0.231	0.0052	-0.0038	0.0067	8.9
-0.2693	0.0052	0.0015	0.0082	8.9
-0.2738	0.0067	0.006	0.0135	9.2
-0.2468	0.009	0.009	0.0165	9.3
-0.2063	0.0105	0.0127	0.0195	9.5
-0.18	0.0105	0.018	0.0187	9.8
-0.153	0.0112	0.021	0.0157	9.9
-0.135	0.012	0.0217	0.012	10.2
-0.108	0.0127	0.0225	0.0082	10.2
-0.0788	0.012	0.024	0.0037	10.5
-0.0593	0.009	0.033	0.0007	10.7
-0.0458	0.0082	0.039	0.0007	11
-0.039	0.0067	0.0352	-0.003	11.4
-0.033	0.0045	0.033	-0.0015	11.6
-0.027	0.003	0.0322	0.003	11.8
-0.0218	0.0045	0.0277	0.0052	12
-0.0128	0.0067	0.0315	0.0052	12.4
0.003	0.006	0.0457	-0.0008	12.5
0.0225	0.003	-0.0233	-0.0053	12.7
0.0405	0.0037	-0.1538	-0.0053	13
0.0645	0.0015	-0.1433	-0.0053	13.3
0.0877	-0.0023	-0.1245	-0.003	13.6
0.105	-0.0038	-0.1575	-0.0046	13.9
0.1155	-0.0105	-0.1635	-0.0068	14.4
0.1185	-0.0128	-0.1785	-0.0068	14.4
0.1185	-0.0143	-0.0743	-0.0091	15.1
0.1162	-0.0143	0.009	-0.0098	15.3
0.1132	-0.0165	0.0645	-0.015	15.6
0.114	-0.0195	0.1005	-0.0158	16
0.12	-0.0203	0.0562	-0.0143	16.1
0.1335	-0.0203	0.0172	-0.0135	16.6
0.15	-0.0218	-0.0593	-0.0105	16.8
0.162	-0.0233	-0.0953	-0.0083	17.3
0.1627	-0.0218	-0.1021	-0.0053	17.4
0.15	-0.0195	-0.0863	-0.0075	17.9
0.1222	-0.0165	-0.1223	-0.0075	18
0.0885	-0.0143	-0.2078	-0.0091	18.4
0.0615	-0.012	-0.243	-0.0083	18.7
0.042	-0.012	-0.255	-0.003	19
0.0307	-0.015	-0.0443	0.0022	19.5
0.0255	-0.0135	0.195	0.009	19.6
0.0232	-0.0128	0.3615	0.0157	20
0.0255	-0.0105	0.5655	0.018	20.2
0.033	-0.0068	0.6165	0.0195	20.7
0.0427	-0.0015	0.609	0.024	21
0.0555	0.0015	0.534	0.024	21.1
0.0682	0.0015	0.444	0.0187	21.5
0.0922	0.0015	0.3637	0.0157	21.6
0.1237	0	0.2302	0.0097	22.2
0.1537	-0.0053	0.1102	0.0037	22.3
0.165	-0.006	-0.0173	0.0007	22.6
0.1597	-0.0038	-0.1215	-0.0015	22.9
0.1447	-0.0023	-0.2295	0	23.3
0.1177	0	-0.3203	0.0037	23.5
0.0952	0.0022	-0.3893	0.0067	23.8
0.0802	0.0045	-0.4538	0.009	24.2
0.0682	0.0075	-0.51	0.0135	24.4
0.0615	0.0112	-0.5708	0.0202	24.7
0.063	0.0127	-0.6068	0.027	25
0.0727	0.012	-0.624	0.0382	25.2
0.0832	0.0097	-0.6105	0.0495	25.6
0.0952	0.0105	-0.5805	0.06	25.9
0.0975	0.012	-0.549	0.0697	26.4
0.093	0.0105	-0.5145	0.0712	26.5
0.0907	0.0067	-0.4845	0.0652	27
0.0825	0.003	-0.4553	0.0607	27.1
0.0795	-0.0008	-0.4185	0.054	27.6
0.0802	-0.0008	-0.3728	0.0367	27.8
0.0577	-0.003	-0.3233	0.0202	28.2
0.024	-0.0046	-0.2648	0.0052	28.4
-0.0015	-0.0023	-0.2108	-0.0068	28.7
-0.0256	0.0007	-0.1538	-0.0195	29
-0.0405	0.0052	-0.093	-0.0315	29.5
-0.0615	0.012	-0.0443	-0.039	29.7
-0.0848	0.018	0.0097	-0.0465	30.1
-0.114	0.024	0.0592	-0.048	30.3
-0.1583	0.0292	0.1012	-0.0465	30.7
-0.2063	0.0307	0.138	-0.0413	31
-0.2543	0.0315	0.1657	-0.0293	31.4
-0.2985	0.0285	0.1905	-0.021	31.7
-0.327	0.0255	0.2062	-0.0128	32.1
-0.3436	0.0217	0.2175	-0.0098	32.2
-0.3518	0.0202	0.216	-0.006	32.8
-0.3496	0.0225	0.192	-0.0038	32.8
-0.3315	0.0232	0.153	-0.0068	33.4
-0.2783	0.024	0.1125	-0.0068	33.5
-0.2258	0.021	0.0727	-0.0105	34.1
-0.207	0.0202	0.0517	-0.012	34.2
-0.1703	0.0202	0.0442	-0.0113	34.7
-0.1163	0.0172	0.0442	-0.0091	34.9
-0.0968	0.0127	0.0712	-0.0105	35.3
-0.1035	0.009	0.1237	-0.0181	35.6
-0.1238	0.006	0.204	-0.0315	35.9
-0.129	-0.0008	0.3157	-0.048	36.3
-0.1313	-0.0046	0.477	-0.066	36.5
-0.1463	-0.0105	0.6652	-0.0803	36.9
-0.1673	-0.0158	0.7657	-0.0668	37.2
-0.1913	-0.0165	0.6945	-0.0375	37.4
-0.2063	-0.0248	0.5107	-0.0143	37.8
-0.2213	-0.0346	0.303	0.0022	38
-0.2235	-0.0465	0.1065	0.0052	38.6
-0.21	-0.0578	-0.0375	-0.006	38.5
-0.1868	-0.066	-0.15	-0.0188	39.1
-0.1545	-0.0698	-0.24	-0.0195	39
-0.1088	-0.0645	-0.3053	-0.0128	39.6
-0.0518	-0.057	-0.3503	-0.003	39.6
0.0097	-0.0428	-0.3698	0.0067	40
0.075	-0.0315	-0.3825	0.0135	40.3
0.1485	-0.024	-0.3788	0.0172	40.5
0.2227	-0.0165	-0.3638	0.006	40.8
0.2842	-0.012	-0.3345	-0.0046	40.9
0.3292	-0.0068	-0.2851	-0.0046	41.4
0.3555	-0.0015	-0.1741	0.0007	41.6
0.3652	0.0007	-0.0015	0.0007	41.8
0.3525	0.0007	0.1882	-0.015	42
0.3157	-0.0008	0.4012	-0.0256	42.2
0.2632	-0.0008	0.6172	-0.0285	42.6
0.2055	-0.0015	0.8535	-0.0293	42.8
0.1612	0.0007	1.1265	-0.039	43.1
0.1387	0.0045	1.3785	-0.063	43.1
0.135	0.0075	1.362	-0.0773	43.4
0.1395	0.0112	0.9165	-0.0743	43.3
0.159	0.0157	0.495	-0.0585	43.9
0.1897	0.0217	0.2992	-0.0443	44.1
0.2257	0.0292	0.1335	-0.0083	44.3
0.261	0.033	0.072	0.0457	44.6
0.2685	0.0367	0.033	0.087	44.7
0.2512	0.0382	0.0292	0.114	45
0.2145	0.039	0.0615	0.12	45.3
0.1762	0.0382	0.0555	0.1035	45.6
0.162	0.0367	0.0652	0.0862	45.6
0.171	0.0345	0.054	0.0667	46
0.195	0.0277	0.057	0.0375	46
0.2107	0.0247	0.0435	0.0082	46.2
0.1935	0.0202	0.0127	-0.0203	46.5
0.156	0.0172	-0.0046	-0.0458	46.4
0.1215	0.0157	-0.0181	-0.0765	46.8
0.093	0.0097	-0.0233	-0.1073	46.9
0.072	0.0082	-0.0458	-0.1283	47
0.0727	0.0052	-0.0698	-0.1388	47.3
0.0862	0.003	-0.1043	-0.1365	47.4
0.0907	0.0015	-0.132	-0.123	47.5
0.0915	-0.0008	-0.1523	-0.1103	47.6
0.0757	-0.0015	-0.1703	-0.1028	47.9
0.0495	-0.0053	-0.1688	-0.0953	47.9
0.0232	-0.0068	-0.1628	-0.0893	48.2
0.012	-0.0083	-0.1478	-0.0893	48.1
0.0165	-0.0098	-0.132	-0.093	48.5
0.021	-0.0105	-0.1178	-0.0938	48.4
0.024	-0.0091	-0.1035	-0.0893	48.5
0.0165	-0.0091	-0.0863	-0.0803	48.6
0.003	-0.0091	-0.0713	-0.0675	48.7
-0.0158	-0.0083	-0.0653	-0.0578	48.8
-0.0256	-0.006	-0.0653	-0.045	48.8
-0.033	-0.0038	-0.0803	-0.0315	49
-0.0368	-0.0008	-0.099	-0.0203	49
-0.033	-0.0015	-0.1185	-0.012	49.1
-0.048	-0.003	-0.1455	-0.0046	49.4
-0.0706	-0.0023	-0.1808	0.0067	49.1
-0.0938	-0.003	-0.2138	0.0157	49.3
-0.114	-0.0068	-0.2363	0.0285	49.2
-0.135	-0.006	-0.246	0.0412	49.5
-0.1575	-0.006	-0.2438	0.054	49.4
-0.1763	-0.0053	-0.2303	0.0667	49.6
-0.1913	-0.0046	-0.2145	0.0772	49.4
-0.207	-0.0038	-0.2033	0.0862	49.6
-0.2033	-0.0053	-0.1875	0.0915	49.4
-0.1913	-0.0075	-0.1711	0.096	49.6
-0.1973	-0.0053	-0.1583	0.1042	49.6
-0.2063	-0.0023	-0.147	0.1102	49.5
-0.2026	-0.003	-0.1381	0.1102	49.6
-0.1958	-0.0046	-0.1313	0.1102	49.8
-0.1973	-0.0053	-0.1358	0.1095	49.6
-0.1965	-0.003	-0.1515	0.1102	49.7
-0.1733	-0.0015	-0.1628	0.1102	49.5
-0.1403	-0.0008	-0.1718	0.1087	49.6
-0.1163	-0.0008	-0.1763	0.105	49.5
-0.1088	0	-0.1808	0.1012	49.7
-0.123	0.003	-0.186	0.0967	49.6
-0.135	0.0015	-0.1913	0.0907	49.6
-0.1343	0.0007	-0.1905	0.0862	49.5
-0.1245	0.0007	-0.1838	0.084	49.6
-0.0915	0.0007	-0.177	0.0802	49.5
-0.0563	-0.0015	-0.1665	0.0765	49.5
-0.0285	-0.0008	-0.1545	0.0727	49.4
-0.003	-0.0008	-0.1396	0.066	49.5
0.0052	-0.003	-0.1223	0.0577	49.5
-0.0256	-0.0008	-0.1095	0.0517	49.5
-0.0915	-0.0008	-0.0953	0.0465	49.4
-0.1515	-0.0008	-0.0743	0.039	49.5
-0.186	0.0015	-0.0495	0.0352	49.4
-0.1988	0.0045	-0.033	0.0292	49.4
-0.1898	0.0052	-0.012	0.021	49.2
-0.165	0.0052	0.0082	0.0165	49.3
-0.1365	0.0067	0.021	0.0127	49.1
-0.1125	0.0067	0.0345	0.0105	49.3
-0.0968	0.009	0.0427	0.0082	49
-0.0856	0.0082	0.0465	0.006	49.1
-0.0683	0.0082	0.051	0.0052	48.7
-0.0436	0.0067	0.06	0.0045	49
-0.0128	0.003	0.0675	0.0007	48.6
0.015	-0.0015	0.072	-0.003	48.7
0.0457	-0.0068	0.0787	-0.0105	48.6
0.078	-0.0113	0.087	-0.0158	48.5
0.114	-0.0181	0.0922	-0.0203	48.4
0.1447	-0.0218	0.0915	-0.0233	48.3
0.171	-0.0218	0.0952	-0.027	48.3
0.189	-0.0225	0.0937	-0.0315	48.1
0.1882	-0.0233	0.0937	-0.0315	48.1
0.177	-0.021	0.0967	-0.0308	48.1
0.1567	-0.0181	0.0967	-0.0293	47.7
0.129	-0.0158	0.099	-0.0285	47.8
0.0975	-0.0083	0.1005	-0.0263	47.5
0.069	-0.0046	0.0982	-0.027	47.6
0.0495	0.0015	0.0967	-0.0285	47.2
0.0352	0.0097	0.0997	-0.027	47.4
0.0307	0.0165	0.1087	-0.024	47.2
0.0307	0.0202	0.117	-0.021	47.3
0.0367	0.0202	0.12	-0.0203	47
0.0412	0.0202	0.1245	-0.0203	46.9
0.0457	0.0187	0.1425	-0.0181	46.7
0.0547	0.0157	0.1545	-0.0195	46.6
0.0667	0.0127	0.1237	-0.0203	46.8
0.0735	0.0127	0.0705	-0.0218	46.3
0.0727	0.0135	0.0277	-0.0233	46.4
0.0652	0.0112	-0.0046	-0.0225	46
0.0517	0.009	-0.0248	-0.0218	46
0.027	0.0052	-0.0346	-0.024	45.9
-0.0008	0.0015	-0.033	-0.0256	45.9
-0.0256	-0.003	-0.0233	-0.0233	45.6
-0.0398	-0.006	-0.0128	-0.0225	45.5
-0.0338	-0.0083	-0.0046	-0.0233	45.5
-0.0225	-0.0105	0.0007	-0.0218	45.1
-0.0113	-0.0143	0.0052	-0.0233	45.1
0.003	-0.0165	0.009	-0.0225	44.9
0.0202	-0.0158	0.0075	-0.0195	44.7
0.0457	-0.0165	0.0037	-0.0203	44.5
0.0712	-0.015	-0.0038	-0.0218	44.2
0.1252	-0.0143	-0.0113	-0.0203	44.1
0.201	-0.0128	-0.0173	-0.0195	43.8
0.1672	-0.0083	-0.0195	-0.0188	43.7
0.0825	-0.0053	-0.0165	-0.0173	43.5
0.1065	0	-0.0173	-0.0135	43.3
0.099	0.0045	-0.0188	-0.012	43.1
0.054	0.0075	-0.0165	-0.0113	42.9
0.0465	0.0105	-0.0158	-0.0098	42.8
0.018	0.0105	-0.0105	-0.0083	42.5
-0.0188	0.0082	-0.0053	-0.0083	42.6
-0.0548	0.0045	-0.0053	-0.0083	42.1
-0.0653	-0.0008	-0.0098	-0.0091	42.2
-0.0653	-0.0098	-0.0181	-0.0091	41.8
-0.06	-0.012	-0.024	-0.0083	41.6
-0.054	-0.0113	-0.0353	-0.0105	41.4
-0.0428	-0.0091	-0.0465	-0.0068	41
-0.024	-0.0046	-0.0563	-0.006	41
-0.0158	-0.003	-0.063	-0.0068	40.6
-0.0053	0.0007	-0.0638	-0.0046	40.6
0.003	0.003	-0.063	-0.003	40.1
0.009	0.0052	-0.0593	-0.0015	40.2
0.0165	0.0082	-0.0511	-0.0023	39.8
0.0292	0.0082	-0.042	-0.0023	39.6
0.0397	0.0097	-0.0278	-0.0015	39.4
0.0382	0.009	-0.0165	-0.0015	39.3
0.033	0.0105	-0.0053	-0.0015	39.1
0.0247	0.0105	0.0067	-0.0023	38.8
0.0157	0.0082	0.0202	-0.0015	38.6
0.0022	0.0082	0.0352	-0.0008	38.4
-0.0098	0.0067	0.0457	-0.0015	38.2
-0.012	0.0067	0.0547	0.0007	37.9
-0.0068	0.0052	0.0637	0.003	37.6
0.0045	0.0045	0.0712	0.003	37.6
0.0075	0.0045	0.0795	0.0022	37.1
0.0082	0.003	0.084	-0.0015	37.1
0.0067	0.0037	0.0855	-0.0008	36.7
-0.0008	0.0052	0.0855	0.0007	36.6
-0.0015	0.0045	0.0825	0.0007	36.1
-0.0053	0.0052	0.0802	0.003	36.1
-0.0105	0.0045	0.0765	0.003	35.7
-0.0195	0.0022	0.0712	0.0007	35.6
-0.0293	0	0.0667	0	35.1
-0.0353	-0.003	0.0615	-0.0023	34.9
-0.0443	-0.0038	0.0547	0	34.8
-0.0555	-0.003	0.0472	0.0045	34.5
-0.0683	-0.0023	0.0405	0.0045	34.1
-0.0765	0	0.0382	0.0045	33.9
-0.0773	-0.0015	0.0352	0.0022	33.8
-0.0743	-0.003	0.0292	0.0045	33.6
-0.0721	-0.0015	0.0225	0.0052	33.2
-0.0653	-0.003	0.0172	0	33
-0.0593	-0.0023	0.012	0.003	32.7
-0.0578	-0.0008	0.003	0.009	32.5
-0.057	0.0007	-0.0015	0.0067	32.2
-0.0615	-0.0008	-0.0091	0.0052	31.9
-0.0653	-0.0008	-0.0143	0.0105	31.5
-0.066	0.0015	-0.0165	0.012	31.4
-0.0608	0	-0.0233	0.0127	31
-0.0518	0.0007	-0.027	0.012	30.7
-0.0428	-0.0008	-0.0293	0.0112	30.6
-0.0346	-0.003	-0.03	0.012	30.2
-0.0188	-0.0038	-0.03	0.012	29.9
0.0067	-0.0083	-0.0293	0.0075	29.7
0.03	-0.0158	-0.0278	-0.0008	29.3
0.051	-0.0225	-0.0256	-0.0038	29.2
0.0652	-0.0225	-0.0256	-0.0046	28.7
0.0727	-0.0181	-0.0225	-0.0038	28.7
0.078	-0.0165	-0.0195	0.0067	28.1
0.0802	-0.0113	-0.021	0.0202	28.1
0.0795	-0.0038	-0.0195	0.027	27.6
0.0765	0.003	-0.0203	0.0255	27.5
0.066	0.0165	-0.0195	0.0285	27
0.0577	0.0202	-0.0188	0.0045	26.7
0.0652	0.0015	-0.0195	-0.0158	26.5
0.0712	-0.0046	-0.0181	-0.0113	26
0.0712	-0.0008	-0.0195	-0.0068	25.7
0.0667	-0.0008	-0.0173	-0.006	25.5
0.066	0.0045	-0.012	0.0007	25.2
0.0742	0.009	-0.0098	0.0165	24.8
0.0802	0.0127	-0.0135	-0.0008	24.7
0.0802	0.0165	-0.0143	-0.006	24.2
0.0787	0.012	-0.0038	-0.0038	24
0.0765	0.003	0.0045	-0.0105	23.7
0.0712	-0.0046	0.006	-0.0046	23.3
0.0712	-0.0233	0.0105	-0.0046	23.1
0.0735	-0.0368	0.0135	0.0015	22.5
0.0712	-0.0188	0.0165	0.003	22.3
0.0697	0.0007	0.0187	0.003	21.9
0.0607	0.0015	0.0187	-0.0008	21.6
0.0435	0.0045	0.0195	-0.0015	21.2
0.0255	0.006	0.018	0.0015	21
0.0045	0.0075	0.0135	0.0007	20.5
-0.0181	0.009	0.0112	0.006	20.3
-0.0353	0.0112	0.0075	0.0045	19.9
-0.0465	0.0105	-0.0038	0.0067	19.6
-0.0578	0.0015	-0.0105	0.0052	19.3
-0.0668	-0.0143	-0.0128	0.0007	18.9
-0.0713	-0.0218	-0.0158	0.0007	18.6
-0.0743	-0.0113	-0.0165	0.0007	18.2
-0.0743	-0.0068	-0.0203	0.0015	18
-0.0735	-0.0046	-0.021	0.003	17.6
-0.0728	0	-0.0181	0.0045	17.3
-0.0803	-0.0023	-0.0165	0.0007	17
-0.084	0.0007	-0.0181	0.003	16.6
-0.0773	-0.0008	-0.0203	0.003	16.4
-0.0653	0.0007	-0.0233	0.0007	16.1
-0.0555	0.0015	-0.0256	0.015	15.9
-0.0533	0.0045	-0.027	0.0465	15.3
-0.0488	0.0112	-0.0233	0.0555	15.1
-0.0428	0.012	-0.024	0.042	14.9
-0.033	0.0112	-0.03	0.0195	14.7
-0.0233	0.003	-0.0368	-0.0871	14.4
-0.0128	-0.0053	-0.0353	-0.1568	14
-0.0068	0.0052	-0.0293	-0.015	13.9
-0.0091	0.0157	-0.0308	0.054	13.5
-0.0128	0.003	-0.0285	0.0127	13.4
-0.021	-0.0128	-0.027	0.036	13
-0.0233	-0.0158	-0.0233	-0.0128	12.8
-0.024	-0.024	-0.0195	-0.0983	12.6
-0.0315	-0.0278	-0.0188	-0.1238	12.1
-0.0263	-0.0285	-0.0188	-0.042	12.1
-0.027	-0.0323	-0.0091	-0.0023	11.8
-0.0293	0.0067	0.0105	0.0052	11.8
-0.0375	0.0795	0.024	0.0472	11.3
-0.0443	0.1042	0.0345	0.0255	11
-0.024	0.063	0.0352	0.0135	11
-0.0083	0.039	0.0405	-0.003	10.6
-0.006	0.0667	0.0495	-0.0075	10.5
0.003	0.0517	0.051	-0.0143	10.1
-0.0038	-0.0315	0.0555	-0.0046	10.1
-0.0188	-0.0998	0.0495	0.006	9.6
-0.0218	-0.1298	0.0397	0.0082	9.5
-0.0278	-0.1335	0.0405	0.039	9.3
-0.0368	-0.0953	0.039	0.0232	9
-0.042	-0.045	0.0292	0.0105	8.9
-0.048	-0.0346	0.0225	0.0255	8.5
-0.0458	-0.0015	0.0255	-0.0173	8.3
-0.039	0.0412	0.0307	-0.0975	8.1
-0.0353	0.0457	0.0232	-0.0893	7.9
-0.042	0.0435	0.0007	-0.027	7.6
-0.0436	0.0345	-0.015	0.0172	7.2
-0.033	0.0345	-0.0263	0.0292	7
-0.0248	0.0255	-0.0548	0.0367	6.9
-0.0165	0.0127	-0.0893	0.024	6.7
-0.0105	0.0337	-0.1043	-0.0555	6.3
0.0015	0.0457	-0.1215	-0.093	6.1
0.0135	0.0457	-0.1441	-0.0368	5.8
0.0195	0.051	-0.1696	-0.0181	5.8
0.0217	0.0307	-0.2041	-0.0173	5.3
0.0187	-0.024	-0.2295	0.0247	5.5
0.0112	-0.09	-0.231	0.042	4.9
0.0075	-0.0593	-0.1928	0.048	5
0.0067	0.0052	-0.132	0.0405	4.5
0.0022	0.0015	-0.0623	0.0217	4.6
-0.0015	0.0105	0.0015	-0.0525	4.1
0.0007	0.0105	0.0382	-0.1006	4.1
0.0217	0.0075	0.0652	-0.0256	3.9
0.078	0.0142	0.0907	-0.0083	3.8
0.1402	-0.0015	0.12	-0.0143	3.5
0.1897	-0.0083	0.129	0.0165	3.2
0.2325	-0.0225	0.1222	0.0367	3.1
0.2535	-0.0203	0.1215	0.0697	2.9
0.2662	0	0.1117	0.0615	2.7
0.2797	0.0082	0.1087	0.045	2.5
0.294	0.0075	0.1102	-0.0038	2.3
0.2992	-0.0015	0.0915	-0.0803	1.8
0.288	-0.0015	0.054	-0.1006	1.6
0.2722	0.027	0.0525	-0.0443	1.5
0.2647	0.0667	0.0562	0.0382	1.2
0.2895	0.0787	0.0427	0.0067	1.3
0.3202	0.0705	0.066	0.0277	1
0.3255	0.0652	0.0795	0.102	0.8
0.2902	0.0495	0.0772	0.0982	0.6
0.189	0.0007	0.0667	0.0285	0.5
0.0825	-0.0878	0.0457	-0.0848	0.2
-0.0128	-0.1868	0.0345	-0.1043	0.1
-0.099	-0.183	0.003	-0.0825	0.1
-0.1515	-0.0683	-0.0128	0.0007	-0.3
-0.213	-0.0188	0.0547	0.093	-0.4
-0.252	-0.0285	0.075	0.0967	-0.6
-0.267	-0.033	-0.0878	0.063	-0.5
-0.2993	-0.0405	-0.1133	0.0045	-0.8
-0.3338	-0.0083	0.024	-0.0383	-0.8
-0.3518	0.003	0.0045	-0.0346	-0.8
-0.3481	0.0075	0.054	-0.0495	-0.9
-0.3503	0.03	0.0787	-0.0653	-1
-0.3503	0.0315	0.0712	-0.0158	-1.4
-0.3458	0.0315	0.0967	0.0427	-1.2
-0.333	0.0165	0.0532	0.1155	-1.3
-0.3143	0.0157	0.0772	0.1155	-1.4
-0.2985	0.0457	0.0735	0.0855	-1.5
-0.2866	0.0772	0.093	0.0405	-1.6
-0.2978	0.0855	0.1095	-0.1103	-1.6
-0.3248	0.0547	0.1057	-0.2003	-1.8
-0.3608	0.009	0.0892	-0.1373	-1.5
-0.4043	0.0157	0.0607	0.0045	-1.8
-0.4485	0.0352	0.0427	0.057	-1.6
-0.4883	0.0165	0.0015	0.0442	-1.9
-0.5145	0.0067	0.0015	0.0615	-1.8
-0.5145	-0.0068	-0.0405	0.0495	-1.8
-0.4838	-0.0105	-0.075	0.018	-1.7
-0.465	-0.0091	-0.1021	-0.039	-1.8
-0.4733	-0.0128	-0.1411	-0.0443	-1.9
-0.4725	-0.006	-0.1508	-0.0368	-1.8
-0.435	-0.0128	-0.1628	-0.042	-1.8
-0.3188	-0.042	-0.1523	0.0007	-1.8
-0.1448	-0.0728	-0.162	0.009	-1.8
0.0787	-0.0315	-0.1741	0	-1.8
0.318	0.0217	-0.1815	-0.0068	-1.8
0.5137	0.033	-0.1575	0.0067	-1.8
0.687	0.033	-0.1253	0.018	-1.7
0.7852	-0.0278	-0.1238	0.015	-1.7
0.8497	-0.075	-0.1043	0.0292	-1.8
0.8932	-0.0383	-0.0915	0.0292	-1.8
0.897	0.0082	-0.075	0.0247	-1.6
0.8872	0.0232	-0.0578	0.0217	-1.8
0.846	0.0307	-0.0465	0.0262	-1.6
0.7957	0.0352	-0.0046	0.0262	-1.8
0.738	0.0442	0.0225	0.0262	-1.5
0.6705	0.0547	0.0097	0.0255	-1.6
0.5865	0.0405	0.0442	0.0187	-1.6
0.4815	0.0097	0.072	0.018	-1.6
0.3615	-0.0398	0.0592	0.0127	-1.5
0.2505	-0.0803	0.0742	0.0052	-1.6
0.1552	-0.0878	0.1005	-0.006	-1.6
0.0607	-0.0691	0.1702	-0.0068	-1.3
-0.0263	-0.0278	0.2235	-0.006	-1.5
-0.1013	0.0142	0.285	-0.0053	-1.3
-0.1665	0.0555	0.3555	-0.0008	-1.5
-0.2183	0.0847	0.3435	0.0037	-1.2
-0.2438	0.0967	0.2865	0.0022	-1.4
-0.2513	0.0645	0.1852	0.0015	-1.2
-0.2513	-0.0068	0.1282	0.0105	-1.2
-0.2423	-0.0691	0.0975	0.012	-0.9
-0.2258	-0.0975	0.0555	0.003	-0.9
-0.2175	-0.024	0.0555	-0.0053	-1
-0.219	0.03	0.033	-0.0143	-0.8
-0.1958	0.0097	-0.024	-0.0158	-0.7
-0.1463	-0.0008	-0.0848	-0.0203	-0.7
-0.135	-0.039	-0.0788	-0.024	-0.5
-0.1298	-0.0555	-0.0735	-0.0143	-0.5
-0.1043	-0.0615	-0.0923	-0.0015	-0.4
-0.0908	-0.075	-0.054	0.0007	-0.5
-0.054	-0.0563	-0.0638	0.0052	-0.1
-0.0158	-0.0173	-0.1095	-0.0068	-0.2
0.0082	0.0165	-0.1163	-0.027	-0.1
0.033	0.0337	-0.1305	-0.0203	-0.1
0.0457	0.0577	-0.159	-0.0105	0.3
0.0465	0.06	-0.1913	-0.0075	0.1
0.048	0.0532	-0.2678	-0.0023	0.4
0.0585	0.06	-0.327	0.0045	0.4
0.066	0.0555	-0.3436	0.009	0.5
0.0637	0.0367	-0.3481	0.0142	0.6
0.051	0.0142	-0.3225	0.0045	0.7
0.027	0.0112	-0.3053	-0.0008	0.8
0.0052	0.0142	-0.2985	0.0022	0.9
0.0067	0.024	-0.291	-0.0053	0.9
0.0277	0.0495	-0.2708	-0.006	1
0.063	0.105	-0.231	-0.0053	1
0.0817	0.1537	-0.1763	-0.015	1.3
0.078	0.1335	-0.1058	-0.0128	1.3
0.0817	0.0285	-0.0645	-0.015	1.3
0.0817	-0.1583	-0.0195	-0.0158	1.3
0.0855	-0.2895	0.0315	-0.0053	1.6
0.0817	-0.2055	0.0667	0.006	1.4
0.06	-0.0091	0.0952	0.0105	1.9
0.0405	0.0442	0.1005	0.0067	1.6
0.0142	-0.0015	0.093	0.006	1.9
-0.0443	-0.0615	0.057	-0.0046	1.8
-0.1148	-0.1508	0.0142	-0.0068	1.9
-0.1418	-0.1013	0.0067	0.0045	2
-0.1478	0.0667	0.0045	0.0195	2.3
-0.114	0.1657	-0.0053	0.0307	2.4
-0.114	0.2235	-0.003	0.0285	2.4
-0.1635	0.2227	0.0067	0.0232	2.6
-0.1898	0.0817	0.0202	0.0112	2.6
-0.2205	-0.1493	0.027	-0.006	2.7
-0.2333	-0.3203	0.0127	-0.054	2.6
-0.2445	-0.2295	-0.0038	-0.1208	2.4
-0.2333	-0.06	-0.0256	-0.0728	2.2
-0.216	-0.0053	-0.0405	0.0172	2
-0.2085	0.0285	-0.0518	0.0142	2.1
-0.2108	0.024	-0.0713	0.0352	1.9
-0.2123	0.0352	-0.0765	0.0015	2
-0.1808	0.0495	-0.0743	-0.0353	1.9
-0.1635	0.0532	-0.0593	0.0112	1.8
-0.135	0.0495	-0.0315	0.0105	1.7
-0.0825	0.0007	0.0007	0.0052	1.6
-0.0195	-0.045	0.0262	0.0067	1.8
0.03	-0.0675	0.0547	0.0075	1.5
0.0562	-0.0713	0.135	0.0052	1.8
0.075	-0.0915	0.243	0.0045	1.3
0.0675	-0.0495	0.3592	0.0082	1.5
0.0772	0.0172	0.504	0.0172	1.3
0.093	0.0397	0.6202	0.0315	1.5
0.0937	0.0525	0.678	0.0442	1
0.093	0.027	0.6802	0.0727	1.2
0.0622	0.009	0.582	0.0675	0.9
0.0367	-0.0068	0.3937	0.0172	0.9
0.0217	-0.0023	0.21	-0.0863	0.8
-0.0195	0.027	0.0292	-0.1163	0.7
-0.0623	0.0465	-0.1508	-0.0233	0.6
-0.1118	0.0682	-0.2723	0.024	0.7
-0.1628	0.0682	-0.3563	0.0352	0.6
-0.2011	0.0585	-0.417	0.027	0.4
-0.2041	0.039	-0.477	0.0127	0.4
-0.1935	0.0247	-0.5108	0.0037	0.5
-0.2018	0.015	-0.39	-0.0053	0.6
-0.198	0.0082	-0.1733	-0.0023	0.8
-0.2048	0.0067	-0.0375	-0.0068	0.9
-0.234	0.0007	0.0615	-0.006	1.3
-0.2708	0.0067	0.1125	-0.0053	1.3
-0.2948	0.015	0.1102	-0.0008	1.5
-0.306	0.0225	0.1222	0.0015	1.9
-0.3173	0.0277	0.126	0.0007	1.9
-0.2573	0.045	0.1297	-0.0008	2.2
-0.165	0.066	0.1297	-0.0091	2.6
-0.0871	0.0592	0.1222	-0.0158	3
0.027	0.0345	0.1102	-0.0225	3.3
0.156	0.003	0.1267	-0.0278	3.4
0.276	-0.0293	0.156	-0.03	3.7
0.3367	-0.039	0.1702	-0.0293	4.1
0.3562	-0.0278	0.2025	-0.0278	4.6
0.345	-0.057	0.2362	-0.0256	5
0.2782	-0.105	0.2505	-0.0256	5.7
0.2145	-0.105	0.249	-0.0368	5.8
0.2115	-0.0518	0.258	-0.0503	6.4
0.2737	-0.006	0.2572	-0.033	6.5
0.3577	-0.0158	0.2512	-0.006	7.3
0.432	-0.0128	0.2482	0.0052	7.6
0.468	-0.0203	0.2317	0.012	8.2
0.486	-0.0555	0.204	0.015	8.6
0.5122	-0.0615	0.1485	0.0202	9.1
0.5392	-0.0143	0.0975	0.027	9.5
0.5805	0.0405	0.0787	0.0352	9.8
0.6022	0.0532	0.0915	0.0307	10
0.5572	0.0495	0.1012	0.0157	10.1
0.516	0.042	0.099	0.0142	10.6
0.5115	0.048	0.0847	0.009	10.8
0.4882	0.042	0.063	0.0052	11
0.4552	0.0187	0.069	0.003	11.2
0.393	-0.0195	0.0817	0.0022	11.2
0.3225	-0.0735	0.0855	0.003	11.6
0.2415	-0.0578	0.0675	0.003	11.4
0.1432	-0.015	0.054	0.0037	11.8
0.0502	-0.0038	0.0315	0.0067	11.6
-0.0653	0.0165	-0.0053	0.0067	11.8
-0.1703	0.009	-0.0353	0.0052	11.5
-0.2685	0.0105	-0.0428	0.009	11.9
-0.3203	0.0412	-0.0203	0.0112	11.8
-0.3053	0.048	-0.024	0.0187	11.9
-0.2798	0.0615	-0.099	0.0285	11.8
-0.2565	0.054	-0.1793	0.0255	11.7
-0.2475	-0.0128	-0.2235	0.0105	11.7
-0.2715	-0.096	-0.3045	0.003	11.2
-0.2745	-0.0765	-0.3705	0.0075	11.3
-0.2408	-0.0203	-0.4335	0.0105	11
-0.2228	-0.0091	-0.5295	0.0082	11.1
-0.2213	0.03	-0.588	0.0097	10.8
-0.2265	0.0232	-0.6188	0.0105	10.8
-0.2063	0.018	-0.603	0.0112	10.6
-0.153	0.018	-0.5873	0.0135	10.4
-0.0923	0.0022	-0.5483	0.0142	10.1
-0.0293	0.0157	-0.4913	0.0165	9.7
0.012	0.0067	-0.4395	0.0157	9.7
0.0345	0.0052	-0.3803	0.012	9.4
0.0795	0.0007	-0.3158	0.0105	8.9
0.111	-0.0075	-0.258	0.0082	8.5
0.1365	-0.0091	-0.216	0.006	7.8
0.1725	-0.0113	-0.1613	0.0052	7.8
0.1882	-0.0046	-0.1275	0.0052	7.2
0.192	-0.0068	-0.1013	0.0022	7.2
0.165	-0.0015	-0.0743	-0.0015	6.8
0.1177	-0.0008	-0.06	0	6.6
0.0667	-0.0015	-0.0165	-0.0008	7
0.0067	-0.003	0.0075	-0.003	7.3
-0.0788	-0.0158	-0.0158	-0.0053	7.5
-0.1785	-0.0256	-0.0218	-0.0083	8
-0.2618	-0.0195	0.0015	-0.003	7.9
-0.3293	-0.0023	0.0292	0.0007	8.1
-0.3406	0.0075	0.0525	0.003	8.4
-0.3323	0.0195	0.0592	0.0052	6.8
-0.3218	0.021	0.0637	0.0067	5.9
-0.3098	0.0232	0.063	0.012	6.2
-0.3188	0.0285	0.0502	0.0105	6.9
-0.3496	0.0262	0.0405	0.0105	7.2
-0.4125	0.0142	0.0337	0.0067	7.6
-0.4785	0.0015	0.03	0	7.6
-0.525	0.0105	0.0217	0.0015	7.5
-0.5108	0.0285	0.0195	0.0015	7.7
-0.4808	0.0277	0.0412	-0.0015	7.6
-0.5325	0.0045	0.0682	-0.0008	7.6
-0.582	-0.0188	0.09	0	7.6
-0.5573	-0.0398	0.1117	-0.0008	7.9
-0.489	-0.054	0.1245	-0.0008	7.6
-0.3735	-0.0465	0.1245	-0.0046	8.1
-0.2633	-0.0218	0.1185	-0.0068	7.4
-0.177	0.0075	0.1012	-0.0068	7.4
-0.1155	0.0135	0.0712	-0.0053	7.6
-0.0878	0.0082	0.03	-0.003	7.6
-0.048	0.0105	-0.0263	-0.0046	7.6
-0.0165	0.012	-0.0818	-0.0046	7.2
-0.021	0.0135	-0.1215	-0.0046	7.4
-0.0353	0.0097	-0.1343	-0.003	7.2
-0.0218	0.0067	-0.0923	-0.0046	7.5
0.0202	0.009	-0.0038	-0.0083	7.2
0.0945	0.012	0.0937	-0.0046	7.1
0.1807	0.015	0.1822	-0.0038	7.3
0.249	0.0142	0.2497	-0.0053	7.1
0.2925	0.024	0.309	0.0022	7.1
0.3105	0.0517	0.3645	0.0105	6.6
0.3165	0.0705	0.4027	-0.0053	6.7
0.327	0.051	0.429	-0.027	6.7
0.348	-0.021	0.444	-0.0225	6.8
0.363	-0.1343	0.4552	-0.027	7
0.3825	-0.18	0.4552	-0.0315	6.8
0.393	-0.1208	0.4402	-0.0143	7
0.3727	-0.0465	0.426	-0.0128	6.7
0.3292	0.0502	0.4162	-0.0091	7
0.2782	0.1005	0.4012	-0.0105	6.7
0.231	0.0862	0.3712	-0.0181	6.8
0.1905	0.0637	0.3142	-0.0181	6.7
0.1575	-0.0195	0.2505	-0.0143	6.8
0.1215	-0.0765	0.2242	-0.0091	6.7
0.0795	-0.0615	0.2032	-0.0181	6.8
0.0307	-0.0353	0.1717	-0.0173	6.7
-0.024	-0.0593	0.1597	-0.0113	6.7
-0.0713	-0.0495	0.1297	-0.0023	6.7
-0.1065	0.0105	0.0832	0.0187	6.9
-0.135	0	0.042	0.0165	7
-0.1628	0.0202	0.0015	0.0015	6.9
-0.1853	0.0292	-0.0346	-0.0083	6.6
-0.1965	0.0165	-0.0691	-0.012	6.3
-0.1973	0.0217	-0.1155	-0.0091	6.1
-0.189	0.0067	-0.1643	-0.003	6
-0.168	0.0285	-0.1988	0.0157	5.7
-0.1433	0.0517	-0.2243	0.0202	5.7
-0.1178	0.06	-0.243	0.0067	5.5
-0.0803	0.0532	-0.2573	-0.0091	5.8
-0.0495	0.0487	-0.2768	-0.027	5.8
-0.0308	0.0562	-0.2925	-0.03	5.5
-0.0046	0.0645	-0.303	-0.024	5.4
0.0202	0.0825	-0.3248	-0.0105	5.3
0.0367	0.0787	-0.3481	-0.0046	5.5
0.0472	-0.0308	-0.3743	-0.0038	5.5
0.0435	-0.2378	-0.4073	0.0015	5.3
0.0322	-0.2633	-0.4388	0.0067	5.2
0.0285	-0.1006	-0.4433	-0.0046	5.1
0.0397	-0.021	-0.3803	-0.0353	4.9
0.0682	-0.0038	-0.297	-0.0495	4.9
0.1177	0.0007	-0.2558	-0.0503	4.8
0.159	0	-0.2138	-0.042	4.7
0.1785	0.0127	-0.1703	-0.0293	4.9
0.1695	0.0232	-0.1313	-0.0248	4.5
0.147	0.045	-0.0683	-0.0195	4.8
0.1297	0.0615	0.003	-0.015	4.5
0.1207	0.0675	0.0637	-0.0083	4.7
0.1267	0.0487	0.1125	-0.0091	4.4
0.135	-0.0225	0.1897	-0.0158	4.5
0.1432	-0.099	0.3082	-0.0143	4.4
0.156	-0.0706	0.3907	-0.0143	4.6
0.1762	0.003	0.4372	-0.0158	4.2
0.1987	-0.0143	0.4552	-0.024	4.3
0.2182	-0.0181	0.447	-0.0383	4.1
0.2385	-0.0053	0.435	-0.0278	4
0.2497	0.0075	0.3937	-0.003	4.2
0.2527	0.027	0.3367	0.012	4.1
0.2482	-0.0068	0.2655	0.0382	4.1
0.2362	-0.0075	0.2047	0.048	4.1
0.2205	0.024	0.1672	0.036	4.2
0.2002	0.0292	0.1215	0.0472	3.9
0.1747	0.0292	0.075	0.0315	3.9
0.1447	0.024	0.0367	-0.0023	4
0.114	0.003	0.0075	-0.0083	3.5
0.0877	-0.0091	-0.0203	-0.012	4
0.0652	0.003	-0.045	-0.0105	3.6
0.0487	0.0277	-0.0698	0.0075	3.8
0.0405	0.051	-0.093	0.015	3.6
0.0405	0.0465	-0.096	0.0187	3.4
0.0412	0.027	-0.0706	0.0292	3.3
0.0457	-0.0046	-0.0375	0.0367	3.3
0.0427	-0.0218	-0.0203	0.0397	3.4
0.0277	0.0097	-0.0023	0.0337	3.1
0.015	0.0292	0.0157	0.0232	3.2
-0.0023	0.0375	0.027	0.018	2.9
-0.0233	0.057	0.0375	0.0105	3
-0.0413	0.021	0.042	0.0015	2.9
-0.0518	-0.0405	0.042	-0.0053	2.9
-0.0615	-0.0638	0.0367	-0.0091	2.9
-0.075	-0.0361	0.0255	-0.003	2.9
-0.0833	-0.0046	0.0082	-0.0015	2.6
-0.0893	-0.0158	-0.0158	-0.006	2.6
-0.1006	-0.0256	-0.0353	-0.0046	2.5
-0.111	0.0037	-0.0563	-0.0008	2.6
-0.1178	0.0345	-0.078	-0.0075	2.4
-0.1223	0.006	-0.0968	-0.0188	2.4
-0.129	-0.0046	-0.1178	-0.0278	2.4
-0.1335	0.0015	-0.135	-0.0293	2.5
-0.1358	-0.0008	-0.147	-0.024	2.2
-0.1373	0.0067	-0.1583	-0.0195	2.3
-0.1441	0.0015	-0.1718	-0.012	2.2
-0.1515	-0.0068	-0.1823	-0.0083	2.2
-0.159	-0.0323	-0.1913	-0.0046	2.1
-0.1628	-0.0293	-0.2011	-0.0091	2.2
-0.1658	-0.0038	-0.207	-0.0346	1.8
-0.1696	-0.0098	-0.207	-0.0608	1.9
-0.1711	-0.003	-0.2018	-0.0285	1.8
-0.1703	0.0045	-0.1868	0.0105	1.8
-0.1673	0.0022	-0.165	0.027	1.5
-0.1598	0.0075	-0.1373	0.0412	1.6
-0.1568	0.006	-0.1095	0.039	1.5
-0.15	0.0052	-0.0878	0.042	1.4
-0.1388	-0.0105	-0.0668	0.0382	1.5
-0.1275	-0.0278	-0.0495	0.0225	1.3
-0.1125	-0.0405	-0.0323	0.0052	1.3
-0.099	-0.0353	-0.015	-0.003	1.3
-0.0833	-0.003	-0.003	0.003	1.3
-0.066	0.006	0.0082	0.0195	1.2
-0.0525	0.021	0.0232	0.03	0.9
-0.0413	0.03	0.0367	0.015	1.2
-0.0285	0.024	0.0472	0.0082	0.8
-0.0158	0.0405	0.048	-0.0008	1
-0.006	0.0442	0.051	-0.0278	0.6
0.0105	0.0217	0.0705	-0.0405	0.9
0.0247	-0.0091	0.099	-0.0083	0.6
0.0345	-0.03	0.12	0.033	0.7
0.0442	-0.0525	0.1492	0.0352	0.7
0.0495	-0.0638	0.1852	0.0195	0.6
0.0502	-0.0465	0.177	-0.015	0.8
0.0502	-0.0181	0.15	-0.0083	0.5
0.054	0.0075	0.1162	0.0195	0.7
0.0622	0.0165	0.0757	0.027	0.4
0.0607	0.0232	0.051	0.0277	0.5
0.0532	0.0195	0.024	0.0157	0.4
0.0435	0.0075	0.0105	0.0022	0.5
0.0352	-0.003	0.0097	-0.0256	0.5
0.0322	-0.0083	-0.0038	-0.0383	0.4
0.033	-0.0008	-0.024	-0.0308	0.4
0.033	-0.0053	-0.0323	-0.0203	0.1
0.0307	-0.0038	-0.0375	-0.0068	0.5
0.0277	0.0045	-0.042	0.0037	0.3
0.0217	0.0195	-0.0353	0.0067	0.3
0.018	0.0315	-0.0346	0.0067	0.3
0.0202	0.0352	-0.0353	0.0082	0.2
0.0345	0.0435	-0.042	0.0082	0.1
0.0562	0.048	-0.0443	0.006	0
0.0855	0.0442	-0.0285	0.0045	0.3
0.1065	0.0202	-0.0195	0.0045	0
0.114	-0.0473	-0.0113	0.0015	0.2
0.1132	-0.1441	-0.0046	0.0015	0
0.0967	-0.1426	0.0075	0.0082	0.1
0.0817	-0.0353	0.0232	0.0127	0.1
0.0705	-0.0053	0.0195	0.0157	0.2
0.0615	0.0007	0.0142	0.0165	-0.2
0.0547	0.033	0.0105	0.0202	0
0.0435	0.0157	0.012	0.0195	-0.2
0.0255	0.0007	0.0247	0.0165	0.1
0.0052	-0.0165	0.048	0.0127	0
-0.0105	-0.027	0.0802	0.009	-0.2
-0.0165	-0.0165	0.0892	0.0067	-0.1
-0.0165	0.0037	0.0975	0.0067	-0.3
-0.0143	0.0292	0.1177	0.0082	-0.1
-0.003	0.0285	0.1245	0.0097	-0.2
0.0045	0.027	0.1395	0.0105	-0.2
0.003	0.0262	0.1417	0.0067	-0.3
-0.003	0.027	0.1275	0.0052	-0.4
-0.0083	0.033	0.099	0.0045	-0.2
-0.0098	0.0232	0.069	0.0015	-0.4
-0.0091	0.018	0.0637	0	-0.2
-0.006	0.0105	0.0517	0.0015	-0.4
-0.0083	-0.0046	0.0075	0.0007	-0.2
-0.0135	-0.033	-0.057	-0.0008	-0.5
-0.0188	-0.0368	-0.1178	0.0022	-0.3
-0.0218	-0.0046	-0.177	0.0015	-0.4
-0.0256	-0.0105	-0.2198	-0.003	-0.3
-0.0203	-0.0143	-0.246	-0.0046	-0.3
-0.0053	-0.0091	-0.2708	-0.006	-0.5
0.0112	-0.012	-0.2925	-0.0068	-0.3
0.0217	0.0067	-0.3158	-0.0091	-0.5
0.0217	0.0127	-0.3263	-0.0083	-0.5
0.0172	0.024	-0.333	-0.006	-0.3
0.0105	0.0405	-0.3481	-0.0143	-0.4
0.0112	0.042	-0.3668	-0.033	-0.2
0.0105	0.0345	-0.363	-0.0368	-0.4
0.0105	0.0202	-0.3278	-0.021	-0.3
0.0075	0.0105	-0.3015	-0.0091	-0.5
0.0015	-0.0015	-0.2693	0.006	-0.2
-0.0075	-0.015	-0.2265	0.021	-0.4
-0.0173	-0.0443	-0.2048	0.0375	0
-0.0263	-0.0398	-0.198	0.0495	-0.3
-0.0353	0.0105	-0.2041	0.0277	-0.3
-0.0368	0.0202	-0.2205	-0.0015	-0.2
-0.0346	0.018	-0.2535	-0.0091	-0.5
-0.0278	0.0285	-0.2468	-0.012	-0.1
-0.0278	0.0352	-0.2011	-0.0143	-0.3
-0.0405	0.0727	-0.1853	-0.0038	-0.1
-0.0563	0.0997	-0.1688	0.0045	-0.5
-0.066	0.0607	-0.168	0.0045	-0.2
-0.0623	-0.0578	-0.0533	0.0015	-0.3
-0.054	-0.1733	0.1335	0.0037	-0.1
-0.0428	-0.1575	-0.0308	0.009	-0.2
-0.0315	-0.0863	-0.1635	0.0075	-0.1
-0.021	-0.042	-0.0248	0.009	-0.1
-0.006	0.0022	0.0547	0.0075	0
0.0045	0.018	0.228	0.003	-0.2
0.0082	0.0307	0.336	-0.0008	0
0.009	0.033	0.4732	-0.0053	-0.1
0.009	0.027	0.5737	-0.0008	-0.2
0.0105	0.0195	0.5452	0.0097	0
0.0172	-0.0023	0.6937	0.0142	0
0.0255	-0.0046	0.7147	0.0015	0
0.0232	-0.0068	0.6307	-0.0098	0.2
0.0157	-0.012	0.7027	-0.0181	0.1
0.0202	-0.0181	0.681	-0.0278	0.4
0.03	-0.0105	0.5797	-0.0173	0.1
0.0382	0.0082	0.4987	-0.0143	0.4
0.045	0.012	0.3277	-0.0113	0
0.0495	0.0285	0.1687	0.0045	0.4
0.0517	0.0532	0.006	0.0097	0
0.048	0.0637	-0.0975	0.0097	0.4
0.0345	0.0637	-0.1523	0.006	0.2
0.021	0.039	-0.2108	0.003	0.3
0.009	0.0105	-0.2273	-0.0023	0.4
-0.006	0.0052	-0.267	-0.0165	0.4
-0.0188	0.003	-0.3308	-0.0195	0.4
-0.0293	-0.0053	-0.4013	-0.0098	0.4
-0.0405	-0.0105	-0.4178	-0.0195	0.4
-0.0361	-0.0023	-0.4358	-0.0158	0.4
-0.0233	0.003	-0.444	-0.0053	0.6
-0.0173	-0.0053	-0.4335	-0.0046	0.4
-0.006	-0.0046	-0.4148	-0.0008	0.7
-0.003	-0.0113	-0.3818	-0.0015	0.6
-0.0083	-0.015	-0.3773	-0.0008	0.6
-0.0173	-0.0158	-0.3593	0.0007	0.7
-0.0353	-0.0143	-0.3458	0.0022	0.6
-0.0548	-0.0098	-0.3255	0.0007	0.7
-0.078	-0.0135	-0.3015	-0.003	0.5
-0.1006	-0.0158	-0.2761	-0.0046	0.8
-0.126	-0.0181	-0.2415	-0.0053	0.9
-0.1403	-0.0165	-0.2168	-0.0038	0.8
-0.1328	-0.015	-0.1793	-0.0038	0.9
-0.099	-0.0128	-0.1411	-0.0053	0.7
-0.042	-0.0113	-0.0915	-0.0068	0.8
0.0142	-0.0105	-0.0495	-0.0053	0.9
0.0682	-0.0068	-0.0233	-0.0008	0.9
0.099	-0.0053	0.0157	0.0037	0.8
0.09	-0.0015	0.054	0.006	1
0.0457	-0.0008	0.0907	0.0067	1.1
0.0157	0.0022	0.1252	0.0067	1
-0.003	0.0045	0.1575	0.003	1.1
-0.039	-0.0015	0.186	-0.0015	1.1
-0.027	-0.0091	0.2122	-0.0038	1.3
-0.0128	-0.012	0.2385	-0.0038	0.9
-0.0091	-0.0046	0.2625	-0.0015	1.2
-0.012	0.0037	0.2805	0.0007	1
-0.0248	0.0052	0.2932	0.0022	1.3
-0.0285	-0.0083	0.3022	0.003	1.3
-0.0443	-0.0308	0.312	0.0037	1.1
-0.0518	-0.0368	0.3187	0.0037	1.3
-0.0578	-0.0346	0.3232	0.0007	1.3
-0.0218	-0.0165	0.3285	-0.003	1.6
0.0525	0.0142	0.3292	-0.0008	1.5
-0.0008	0.0315	0.3285	0.0052	1.3
-0.048	0.0427	0.3345	0.0082	1
0.0367	0.0382	0.348	0.0082	1.8
0.0472	0.0022	0.3682	0.006	1.2
0.066	-0.0698	0.387	0	1.1
0.0442	-0.114	0.4102	-0.0023	1.4
0.0195	-0.0593	0.4432	0.0007	1.5
0.0397	-0.0105	0.4462	-0.0015	1.6
0.0157	-0.0068	0.4132	-0.0038	1.7
0.024	0.0112	0.3712	-0.003	1.4
0.0052	0.0075	0.3187	-0.0008	1.5
0.0067	0.009	0.2572	0	1.5
-0.0068	0.0157	0.2002	-0.0015	1.7
-0.024	0.018	0.1312	-0.0023	1.6
-0.0383	0.0232	0.0517	-0.0038	1.8
-0.0555	0.0202	-0.0181	-0.003	1.5
-0.0495	0.027	-0.0788	-0.0015	1.8
-0.0578	0.0277	-0.1208	-0.0038	1.8
-0.0503	0.0255	-0.15	-0.0068	2.2
-0.042	0.015	-0.1785	-0.012	1.8
-0.0233	0.0052	-0.1958	-0.012	2
-0.0083	0.0082	-0.2033	-0.0105	1.8
0.0052	0.012	-0.2033	-0.0083	2
0.0195	0.021	-0.1913	-0.0046	1.8
0.03	0.024	-0.1703	-0.0023	1.8
0.0457	0.0255	-0.1478	-0.003	1.8
0.063	0.0277	-0.129	-0.0053	1.7
0.0832	0.0337	-0.1095	-0.0023	2
0.0915	0.0405	-0.0893	0.003	1.8
0.1042	0.0427	-0.0788	0.0082	1.9
0.1192	0.0405	-0.081	0.015	1.8
0.1447	0.0367	-0.0788	0.0165	1.9
0.1747	0.0345	-0.0765	0.0157	1.8
0.1987	0.0247	-0.0743	0.012	1.8
0.2107	0.018	-0.0773	0.0105	1.8
0.2145	0.012	-0.0915	0.006	1.8
0.2137	0	-0.1028	0.0007	2
0.2077	-0.0053	-0.1163	0.0015	1.8
0.2025	-0.0053	-0.1305	0.0045	1.9
0.1852	-0.0046	-0.1358	0.0037	1.8
0.1605	-0.006	-0.1373	0.0015	1.8
0.1267	-0.0083	-0.1365	-0.0015	1.9
0.0855	-0.012	-0.129	-0.0038	1.7
0.0412	-0.0135	-0.1035	-0.0068	1.9
0.0045	-0.0165	-0.0638	-0.0083	1.8
-0.0218	-0.0181	-0.0323	-0.0083	1.8
-0.0495	-0.015	-0.0068	-0.0075	1.8
-0.0743	-0.0173	0.0142	-0.0083	2
-0.0938	-0.0195	0.03	-0.0091	1.8
-0.1148	-0.0181	0.0345	-0.0083	1.8
-0.1358	-0.0105	0.0285	-0.0053	1.9
-0.1478	-0.003	0.0277	-0.0053	1.8
-0.1583	0.0022	0.024	-0.0068	2
-0.1658	0.009	0.0232	-0.0091	1.8
-0.1711	0.0135	0.0195	-0.0113	1.9
-0.1756	-0.0023	0.0187	-0.0143	1.8
-0.1741	-0.042	0.0217	-0.0143	1.8
-0.1673	-0.0863	0.0255	-0.0128	1.8
-0.1508	-0.0788	0.0292	-0.0105	1.8
-0.1365	-0.024	0.0247	-0.0068	2.1
-0.1253	-0.0091	0.0195	-0.0046	1.8
-0.114	0.0015	0.0195	0.0015	2
-0.1118	0.0217	0.024	0.003	1.7
-0.111	0.0112	0.027	0.0007	2
-0.1178	0.0127	0.0277	-0.0008	1.8
-0.1238	0.0045	0.0217	-0.006	2
-0.1163	-0.0053	0.0142	-0.0091	1.7
-0.1035	-0.0068	0.0105	-0.0091	1.8
-0.0975	-0.006	0.003	-0.0053	1.7
-0.0863	0.0015	-0.0038	0.003	1.8
-0.0818	0.0007	-0.0083	0.0142	1.7
-0.0773	0.0015	-0.0158	0.021	1.8
-0.063	-0.0038	-0.0188	0.0232	1.8
-0.0615	-0.0046	-0.021	0.0195	1.7
-0.0608	-0.0023	-0.0315	0.0075	1.7
-0.0518	-0.0008	-0.0465	0.0067	1.8
-0.033	0.0007	-0.0593	0.0105	1.7
-0.0143	-0.0053	-0.063	0.0052	1.8
-0.012	0.0022	-0.066	0.009	1.7
-0.003	0.0112	-0.066	0.0135	1.8
0.024	0.012	-0.0653	0.0112	1.6
0.0405	0.0112	-0.0645	0.0112	1.8
0.0472	0.0097	-0.06	0.0045	1.8
0.0577	0.0007	-0.0563	0.0007	1.9
0.0585	-0.0195	-0.048	-0.0038	1.7
0.054	-0.033	-0.039	-0.006	1.8
0.0465	-0.0083	-0.042	-0.0038	1.6
0.0427	0.0097	-0.0518	-0.0038	1.8
0.0457	0.003	-0.0585	-0.006	1.7
0.0465	0.0105	-0.0533	-0.0091	1.8
0.042	0.0067	-0.0458	-0.0083	1.9
0.0345	0.009	-0.0405	-0.0113	1.5
0.036	0.0105	-0.0375	-0.0248	1.9
0.045	-0.0015	-0.033	-0.0293	1.8
0.0517	-0.0046	-0.0278	-0.0158	2
0.06	-0.0075	-0.0248	-0.0068	1.8
0.069	-0.003	-0.021	0.0007	1.8
0.078	-0.0038	-0.0158	0.0105	1.9
0.0862	0.0007	-0.0128	0.0232	1.8
0.0937	0.0067	-0.012	0.033	2
0.099	0.0067	-0.0083	0.0202	1.8
0.1012	0.0052	-0.0015	0.0052	2
0.093	0.0007	0.0045	-0.0023	1.9
0.0802	-0.0038	0.0045	-0.0053	2.1
0.072	-0.0075	0.0052	-0.0075	2
0.0682	-0.0068	0.0052	-0.0053	2.1
0.0682	-0.0046	0.0045	-0.006	2.1
0.0645	-0.0046	0.0112	-0.0075	1.9
0.0615	-0.003	0.0172	-0.006	2.1
0.057	-0.003	0.0217	-0.0038	1.9
0.048	0.0007	0.033	-0.0046	2.2
0.0382	0.0007	0.0345	-0.0038	2
0.033	0.0015	0.0247	-0.0023	2
0.0315	0.0007	0.021	-0.0023	2.2
0.0315	-0.0015	0.0142	-0.0008	1.9
0.0352	0.0045	0.0165	0.0015	2.1
0.039	0.0082	0.027	0	1.8
0.0382	0.0075	0.0307	0.0015	2.2
0.036	0.009	0.036	0.0007	1.9
0.0315	0.0127	0.0322	0.0015	2.1
0.0277	0.0142	0.0292	0.0052	2
0.0232	0.0075	0.0352	0.0052	2.1
0.018	0.0022	0.0412	0.0015	2.3
0.0105	0.0007	0.039	-0.0015	2.1
0.0007	0.0007	0.033	0.0022	2.3
-0.0038	0.003	0.039	-0.0015	2
-0.0046	0.0007	0.0435	-0.0075	2.4
-0.0068	-0.0046	0.0412	-0.0105	2.2
-0.0091	-0.0046	0.033	-0.0128	2.4
-0.012	-0.0046	0.0277	-0.0091	2.4
-0.0128	-0.0053	0.0232	-0.0068	2.3
-0.0105	-0.0053	0.0165	-0.0023	2.2
-0.012	-0.006	0.0157	-0.0015	2.4
-0.0158	-0.0091	0.012	-0.0015	2.4
-0.0225	-0.0091	0.0097	-0.0008	2.4
-0.0315	-0.0075	0.0067	0.0015	2.4
-0.042	-0.0068	0.0022	0.006	2.6
-0.0638	-0.0053	0	0.0082	2.6
-0.09	-0.0046	0.0015	0.0082	2.5
-0.1006	-0.0053	0.0067	0.0052	2.5
-0.0953	-0.006	0.0067	0.0052	2.6
-0.0818	-0.006	0.0067	0.0052	2.5
-0.0638	-0.0053	0.0067	0.0045	2.7
-0.048	-0.003	0.009	0.003	2.6
-0.039	-0.003	0.0195	0.003	2.9
-0.0413	-0.003	0.0285	0.0037	2.6
-0.045	-0.0008	0.0225	0.003	3
-0.0398	0	0.0112	0.0022	2.9
-0.0256	-0.0008	0.0022	-0.0008	3.1
-0.0091	-0.0015	-0.0053	-0.0015	3
0.0007	-0.0008	-0.0053	-0.0008	3.1
0.0037	0.0007	-0.0008	0.003	3.2
0.0067	-0.0008	0.0007	0.0022	3.2
0.0142	-0.0008	-0.0008	0	3.3
0.018	-0.003	-0.0015	-0.0075	3.3
0.0112	-0.0015	-0.0008	-0.0128	3.6
0	0.0045	0.0045	-0.0105	3.3
-0.0068	0.009	0.012	-0.0083	3.6
-0.0128	0.0105	0.015	-0.0165	3.5
-0.0218	0.0015	0.0157	-0.0375	3.6
-0.0285	-0.0038	0.0165	-0.0518	3.6
-0.0361	0	0.015	-0.057	3.6
-0.0405	0.0007	0.0127	-0.0503	3.8
-0.0428	0.0037	0.0097	-0.0278	3.8
-0.0428	0.0082	0.009	0.0045	3.9
-0.0278	-0.0015	0.0127	0.0465	3.8
-0.0038	-0.0023	0.0165	0.0735	4.1
0.033	0.0157	0.018	0.0697	4
0.0697	0.027	0.0187	0.0472	4.1
0.1012	0.0195	0.0195	0.027	4.1
0.1282	0.0157	0.0165	0.027	4.3
0.1312	0.0202	0.0165	0.0172	4.4
0.1222	0.0157	0.0157	0.0082	4.4
0.1065	0.0097	0.015	0.009	4.4
0.0885	0.0067	0.0135	0.0037	4.5
0.081	-0.0008	0.0142	0.0082	4.8
0.0765	-0.0046	0.0157	0.0322	4.7
0.0742	-0.0046	0.0135	0.0577	4.7
0.0742	-0.0015	0.0105	0.0345	4.9
0.0592	-0.0053	0.0075	-0.0075	4.9
0.0345	-0.0046	0.0052	-0.0173	5.2
0.0225	-0.0015	0.003	-0.0315	4.9
0.0202	-0.0015	0.0007	-0.045	5.3
0.0142	0.009	-0.0075	-0.0225	5.3
-0.0083	0.0142	-0.0128	-0.0046	5.3
-0.0405	0.0082	-0.0173	0.0097	5.5
-0.0728	0.0105	-0.0225	0.042	5.3
-0.0915	0.015	-0.0233	0.051	5.8
-0.1006	0.0007	-0.0225	0.0427	5.8
-0.1118	-0.015	-0.0203	0.024	6
-0.126	-0.0091	-0.0203	0.0007	5.9
-0.1418	0.0037	-0.0203	0.0022	6.3
-0.1463	0.0217	-0.0195	-0.0091	6.2
-0.1538	0.0232	-0.0218	-0.0503	6.4
-0.1598	0.0052	-0.0218	-0.0555	6.4
-0.1665	-0.0083	-0.0188	-0.0308	6.7
-0.168	-0.0158	-0.0195	-0.0105	6.7
-0.15	-0.0128	-0.0158	-0.003	6.7
-0.1275	-0.012	-0.0091	-0.0038	7.1
-0.1118	-0.0105	-0.003	0.003	7.2
-0.1028	-0.0091	0.0067	0.009	7.2
-0.0938	-0.0113	0.0172	0.0217	7.5
-0.0863	-0.0053	0.03	0.0232	7.5
-0.0833	-0.006	0.0427	0.0045	7.8
-0.078	-0.012	0.0517	-0.0053	7.8
-0.0788	-0.012	0.06	-0.012	8.1
-0.0818	-0.0098	0.0697	-0.0173	8.1
-0.0788	-0.0091	0.072	-0.012	8.5
-0.0683	-0.0075	0.0712	-0.0091	8.6
-0.0458	-0.0046	0.0712	-0.0046	9
-0.0128	-0.0008	0.0727	-0.0023	8.9
0.024	-0.0023	0.075	-0.006	9.3
0.063	-0.0046	0.066	-0.0068	9.3
0.105	-0.0083	0.042	-0.0105	9.6
0.1425	-0.0075	0.0142	0.0007	9.7
0.165	-0.0053	-0.0158	0.0015	9.9
0.177	-0.0113	-0.048	0.0045	10.1
0.1845	-0.0091	-0.0773	0.009	10.4
0.1875	-0.0098	-0.1028	-0.0015	10.7
0.1815	-0.0128	-0.1095	-0.0158	10.7
0.1687	-0.012	-0.108	-0.0315	11.2
0.1635	-0.012	-0.1995	-0.027	11.2
0.1575	-0.0105	-0.3045	-0.0008	11.7
0.141	-0.0128	-0.2333	0.0322	11.8
0.1177	-0.012	-0.207	0.042	12.1
0.09	-0.0068	-0.2595	0.0382	12.2
0.0615	0.0022	-0.2243	0.0502	12.6
0.0457	0.0082	-0.1958	0.0495	13
0.0375	0.003	-0.0953	0.0262	13.1
0.0375	-0.0068	-0.0285	-0.0083	13.5
0.0382	-0.0091	-0.0218	-0.033	13.5
0.0315	-0.0083	-0.0015	-0.0293	13.9
0.0157	-0.0068	-0.0128	-0.0218	14.2
0.0187	-0.0046	0.0187	-0.0353	14.5
0.0187	-0.0068	0.0195	-0.0675	14.8
0.009	-0.0083	0.0075	-0.0548	14.9
0.0127	-0.0068	0.0007	0.0067	15.4
0.0082	-0.0098	-0.0293	0.0405	15.6
0.0015	-0.012	-0.0338	0.0607	16.1
-0.012	-0.0091	-0.0368	0.0607	16.2
-0.0203	-0.0015	-0.1103	0.0382	16.4
-0.0195	0.0022	-0.1845	0.0292	16.9
-0.0248	0.0067	-0.0833	0.0172	17.1
-0.0278	0.009	0.024	0.0195	17.7
-0.039	0.009	0.174	0.0067	17.7
-0.0488	0.0097	0.348	-0.0068	18.3
-0.0548	0.009	0.4665	-0.0091	18.4
-0.0578	0.0165	0.6292	-0.0143	18.7
-0.057	0.0262	0.648	-0.0053	18.9
-0.0495	0.0337	0.6232	-0.0113	19.2
-0.0383	0.0352	0.561	-0.0195	19.7
-0.0285	0.0315	0.492	-0.0225	19.8
-0.0165	0.0225	0.4125	-0.0256	20.2
0.0052	0.012	0.2745	-0.0225	20.3
0.0232	0.0045	0.1687	-0.0181	21
0.0307	-0.0038	0.0225	-0.0143	20.9
0.0532	-0.0091	-0.105	-0.0158	21.5
0.0802	-0.0143	-0.231	-0.021	21.5
0.108	-0.0203	-0.3165	-0.0308	22.1
0.1335	-0.0233	-0.3915	-0.0443	22.4
0.144	-0.0256	-0.471	-0.0405	22.7
0.1252	-0.027	-0.5318	-0.0285	22.8
0.0705	-0.0323	-0.6143	-0.0195	23.3
0.0082	-0.0346	-0.6465	-0.0083	23.6
-0.0458	-0.0383	-0.6645	-0.0398	23.8
-0.0623	-0.0443	-0.6555	-0.0638	24.2
-0.0308	-0.0405	-0.6196	-0.0165	24.4
0.0202	-0.0436	-0.5828	0.0285	24.6
0.075	-0.0443	-0.5378	0.0502	25
0.1162	-0.0338	-0.5033	0.069	25.2
0.132	-0.0165	-0.4553	0.072	25.6
0.1027	0.0037	-0.4043	0.0562	25.8
0.0427	0.0045	-0.3473	0.0232	26.1
-0.0203	0.0015	-0.2918	0.0105	26.3
-0.066	0.0052	-0.2363	0.0045	26.9
-0.0848	0.0067	-0.1711	-0.0015	27
-0.0856	0.0105	-0.1058	0.0037	27.3
-0.0721	0.0157	-0.0458	0.0037	27.6
-0.0593	0.0195	0.0022	0.0007	28.1
-0.0465	0.0217	0.0547	-0.0046	28.4
-0.039	0.0247	0.099	-0.0053	28.5
-0.0495	0.0285	0.1342	-0.003	28.9
-0.0728	0.0292	0.1702	-0.0053	29.1
-0.096	0.0262	0.1852	-0.0128	29.5
-0.0818	0.0225	0.1882	-0.0165	29.7
-0.0758	0.018	0.1875	-0.0143	30.1
-0.1703	0.0127	0.195	-0.0091	30.3
-0.1995	0.0105	0.201	-0.0008	30.5
-0.1178	0.0127	0.195	0.012	31
-0.114	0.018	0.1837	0.0142	31.2
-0.1155	0.0225	0.1672	0.0052	31.7
-0.1103	0.0307	0.1455	0.003	31.9
-0.1035	0.0307	0.12	-0.0143	32.2
-0.0818	0.0172	0.1065	-0.0233	32.4
-0.0908	0.0127	0.0892	-0.0188	33
-0.105	0.0067	0.0705	-0.0203	33.1
-0.1396	0.0037	0.0817	-0.0113	33.6
-0.1711	0.0075	0.1117	-0.0091	33.9
-0.2033	0.0105	0.1447	-0.0128	34.1
-0.228	0.0157	0.195	-0.015	34.5
-0.249	0.0195	0.2722	-0.0165	34.6
-0.2821	0.0255	0.393	-0.012	35.2
-0.303	0.0322	0.5452	-0.0083	35.4
-0.3165	0.0367	0.696	-0.0008	35.8
-0.3165	0.039	0.75	0.0052	36.3
-0.3098	0.039	0.6382	0.003	36.5
-0.2963	0.0352	0.444	-0.0068	36.9
-0.2836	0.0315	0.2385	-0.0188	37
-0.2648	0.027	0.051	-0.0285	37.6
-0.2408	0.0202	-0.09	-0.039	37.9
-0.2145	0.0165	-0.2011	-0.0503	38.4
-0.1711	0.0112	-0.2693	-0.0608	38.5
-0.1178	0.0067	-0.297	-0.0698	39.1
-0.0593	0.0022	-0.3128	-0.0706	39.2
-0.0128	-0.0008	-0.318	-0.0548	39.4
0.009	-0.0023	-0.3315	-0.0315	39.9
0.0322	-0.0015	-0.357	-0.0038	39.9
0.06	0.0037	-0.3818	0.0292	40.5
0.0967	0.0067	-0.4005	0.0622	40.6
0.1515	0.006	-0.3915	0.0855	41.1
0.198	0.0067	-0.3645	0.099	41.2
0.2497	0.0067	-0.33	0.1057	41.7
0.3067	0.0052	-0.2723	0.1027	41.7
0.3517	0.0052	-0.2011	0.09	42.1
0.396	0.0075	-0.1365	0.072	42.3
0.4065	0.0082	-0.0803	0.0495	42.4
0.3802	0.0052	-0.03	0.0232	42.7
0.3412	0	0.0127	-0.0068	43
0.309	-0.0038	0.057	-0.0278	43.1
0.2917	-0.0053	0.0937	-0.042	43.1
0.2782	-0.0105	0.0915	-0.0548	43.2
0.2602	-0.0158	0.063	-0.0608	43.6
0.2362	-0.0203	0.0202	-0.0645	43.7
0.2115	-0.0225	-0.0128	-0.0668	44.1
0.1927	-0.0248	0.054	-0.0653	44.1
0.1792	-0.0308	0.3097	-0.0675	44.5
0.1695	-0.0308	0.6015	-0.0691	44.5
0.171	-0.0315	0.7687	-0.0653	45
0.1672	-0.03	0.873	-0.057	44.9
0.162	-0.0256	0.9255	-0.042	45.3
0.1635	-0.0248	0.9487	-0.0368	45.3
0.1762	-0.027	0.9472	-0.0405	45.5
0.195	-0.0293	0.9255	-0.0473	45.8
0.2122	-0.0293	0.9067	-0.0465	45.8
0.231	-0.027	0.8625	-0.0346	45.9
0.2647	-0.0218	0.8182	-0.027	46.2
0.3037	-0.0218	0.7605	-0.0225	46.3
0.3382	-0.0218	0.6915	-0.0195	46.3
0.372	-0.0173	0.612	-0.0218	46.7
0.3937	-0.0143	0.5272	-0.0248	46.7
0.399	-0.0128	0.4387	-0.0233	47
0.3877	-0.0128	0.3345	-0.0203	47.1
0.3577	-0.012	0.237	-0.0188	47.2
0.3202	-0.0128	0.141	-0.0173	47.3
0.2805	-0.012	0.048	-0.015	47.4
0.24	-0.0105	-0.0495	-0.0083	47.6
0.195	-0.0113	-0.1426	0	47.7
0.138	-0.0068	-0.231	0.0105	47.9
0.0727	-0.0038	-0.3165	0.0232	47.9
0.0052	-0.0015	-0.3713	0.0315	48.1
-0.0563	0.0022	-0.4051	0.0352	48.1
-0.1103	0.0052	-0.4335	0.0397	48.3
-0.1673	0.0082	-0.4395	0.039	48.4
-0.2348	0.0082	-0.4268	0.0397	48.5
-0.297	0.0082	-0.3983	0.042	48.6
-0.3443	0.0082	-0.3608	0.0382	48.6
-0.381	0.0045	-0.3158	0.036	48.8
-0.399	0.003	-0.2648	0.0397	48.6
-0.396	0.0052	-0.2303	0.0427	49
-0.3818	0.0067	-0.21	0.033	48.9
-0.357	0.0022	-0.1823	0.0277	49
-0.3353	-0.0008	-0.1335	0.0352	49
-0.3068	0.0007	-0.0458	0.039	49.2
-0.27	0.0007	0.0097	0.0435	49.4
-0.2288	0.0067	-0.1575	0.057	49
-0.1883	0.0127	-0.4898	0.0705	49.2
-0.156	0.0165	-0.6548	0.0712	49.1
-0.1253	0.0127	-0.7388	0.0562	49.1
-0.0968	0.0082	-0.843	0.0442	49.3
-0.0878	0.0075	-0.8603	0.0427	49.2
-0.0908	0.0052	-0.8745	0.039	49.3
-0.0848	0.0045	-0.846	0.0405	49.2
-0.0818	0.0045	-0.801	0.0397	49.3
-0.081	0.0052	-0.7433	0.0375	49
-0.075	0.0045	-0.6608	0.0367	49.4
-0.0615	0.003	-0.5843	0.0352	49
-0.0361	0.0022	-0.4958	0.0375	49.2
-0.0165	0.0007	-0.4245	0.0367	49.1
-0.0158	0.0015	-0.3398	0.0352	49.3
-0.045	0.0007	-0.267	0.033	49.1
-0.1013	0.0015	-0.192	0.0337	49.1
-0.1575	-0.0008	-0.1103	0.0315	49
-0.1823	-0.0038	-0.0368	0.0232	49
-0.1815	-0.0046	0.0495	0.0157	49.1
-0.1741	-0.0075	0.1117	0.006	49
-0.1688	-0.0091	0.1702	-0.003	49
-0.1613	-0.0091	0.219	-0.0068	48.8
-0.1538	-0.0068	0.2572	-0.0098	48.9
-0.1485	-0.0075	0.294	-0.0181	48.9
-0.1418	-0.0091	0.324	-0.0218	48.7
-0.1426	-0.0038	0.3405	-0.0195	48.7
-0.1298	-0.0008	0.3457	-0.0181	48.6
-0.0908	-0.0038	0.3427	-0.0195	48.6
-0.045	-0.003	0.3255	-0.0181	48.4
-0.003	0.0007	0.3067	-0.0165	48.6
0.0337	0.0007	0.282	-0.0158	48.3
0.0645	0.003	0.2572	-0.0135	48.5
0.0892	0.0007	0.237	-0.0143	48.3
0.1005	-0.0008	0.21	-0.0158	48.2
0.0907	0.0007	0.1837	-0.0165	48.2
0.0765	-0.0008	0.156	-0.0158	48.1
0.0607	-0.0015	0.1305	-0.0195	48.2
0.054	-0.0046	0.0982	-0.0225	47.9
0.0615	-0.0083	0.0637	-0.0218	48.1
0.0727	-0.0105	0.039	-0.0195	47.7
0.075	-0.0091	0.0195	-0.0158	47.7
0.0652	-0.0075	-0.006	-0.0008	47.6
0.0615	-0.0091	-0.0323	0.0195	47.6
0.0615	-0.0053	-0.0563	0.0217	47.3
0.051	0.0015	-0.0788	0.009	47.3
0.0375	0.0037	-0.093	-0.0015	47.3
0.0225	0.0015	-0.1043	-0.0165	47.1
0.0067	0.0067	-0.1073	-0.0143	47.2
-0.0105	0.018	-0.105	-0.0083	47
-0.0315	0.0172	-0.0975	-0.0083	46.8
-0.0503	0.0105	-0.0833	-0.0105	46.8
-0.0638	0.009	-0.0653	0	46.7
-0.0615	0.0075	-0.0458	0.0097	46.7
-0.033	0.0052	-0.0308	0.0172	46.3
-0.0128	0.0082	-0.0143	0.036	46.3
-0.0143	0.0135	0.0037	0.0397	46.1
-0.0091	0.012	0.0195	0.0337	46.1
0.009	0.009	0.033	0.0202	46
0.027	0.0015	0.0457	-0.0038	45.7
0.0472	-0.003	0.0592	-0.0233	45.7
0.06	-0.0053	0.0712	-0.0278	45.5
0.0622	-0.0068	0.0795	-0.0143	45.5
0.0525	-0.0015	0.0855	-0.0053	45.1
0.045	-0.0023	0.0892	-0.0053	45.3
0.0532	-0.003	0.09	-0.0083	44.9
0.099	-0.0023	0.093	-0.0135	44.8
0.1485	-0.0008	0.096	-0.0165	44.5
0.096	-0.0015	0.0937	-0.0203	44.4
0.0262	-0.0008	0.0915	-0.021	44.3
0.0517	0.0007	0.0892	-0.0203	43.9
0.0615	0	0.0862	-0.0203	44
0.039	0.0007	0.0877	-0.0188	43.6
0.0322	0.0022	0.0937	-0.0203	43.6
0.0277	0.0007	0.0952	-0.0188	43.3
0.021	0.0022	0.0967	-0.0188	43.2
0.003	0.0045	0.0945	-0.0181	42.8
-0.0225	0.0052	0.0855	-0.0165	42.8
-0.0405	0.006	0.072	-0.0173	42.7
-0.0368	0.0067	0.057	-0.0165	42.6
-0.0248	0.0045	0.0345	-0.0165	42.3
-0.0068	0.0045	0.0127	-0.015	42.1
0.0097	0.0067	-0.0091	-0.0128	41.9
0.018	0.0052	-0.0315	-0.012	41.7
0.0097	0.0052	-0.0518	-0.0128	41.4
-0.0083	0.0067	-0.0706	-0.012	41.5
-0.021	0.0052	-0.0878	-0.0105	41.1
-0.0383	0.006	-0.1028	-0.0098	40.9
-0.0511	0.0067	-0.1058	-0.0091	40.6
-0.0555	0.0067	-0.108	-0.0105	40.5
-0.0578	0.0052	-0.1028	-0.0105	40.2
-0.0578	0.0022	-0.096	-0.0083	40.2
-0.0495	0.0015	-0.0893	-0.0038	39.8
-0.0405	0	-0.0818	0.0007	39.7
-0.0323	0	-0.0765	0.0022	39.3
-0.0181	-0.0015	-0.0668	0.0007	39.4
-0.0008	-0.003	-0.0518	-0.003	38.9
0.0142	-0.0053	-0.039	-0.0091	38.8
0.0202	-0.0046	-0.0233	-0.0128	38.5
0.0135	-0.0015	-0.0091	-0.0113	38.3
0.0105	0	0.0007	-0.0068	38.1
0.0157	0.0045	0.0082	-0.0046	37.6
0.0217	0.0067	0.0172	-0.003	37.8
0.0225	0.009	0.0277	-0.0046	37.2
0.0217	0.0067	0.0375	-0.0075	37.3
0.0232	0.0052	0.042	-0.0008	36.8
0.021	0.0052	0.0442	0.0022	36.8
0.0217	0.0015	0.0457	0.0067	36.4
0.021	0.0015	0.0465	0.012	36.3
0.024	0.003	0.048	0.0127	35.9
0.0292	0.0007	0.0495	0.015	35.8
0.03	-0.0015	0.0525	0.0157	35.4
0.033	-0.0038	0.0517	0.0157	35.1
0.042	-0.0038	0.0495	0.0157	34.9
0.0465	-0.003	0.0487	0.0165	34.7
0.0427	-0.0038	0.0472	0.018	34.5
0.0322	-0.0038	0.0465	0.0172	34.1
0.021	-0.0046	0.0412	0.0157	33.9
0.0135	-0.006	0.0375	0.0165	33.8
0.0202	-0.0053	0.0345	0.018	33.3
0.0397	-0.0053	0.0307	0.018	33.3
0.0547	-0.006	0.0292	0.0165	32.8
0.0607	-0.0068	0.0277	0.0135	32.6
0.063	-0.0068	0.0277	0.012	32.4
0.0645	-0.0075	0.0255	0.0045	32.1
0.0697	-0.0091	0.0232	-0.0098	31.8
0.075	-0.0135	0.0232	-0.012	31.5
0.0765	-0.0143	0.021	-0.003	31.3
0.0697	-0.0113	0.0202	0.0037	31
0.0607	-0.0083	0.0165	0.0127	30.8
0.0487	-0.0015	0.0127	0.018	30.5
0.0382	0.0082	0.0045	0.0307	30.2
0.0315	0.0225	0.0007	0.0472	29.8
0.0262	0.0195	-0.0008	0.0345	29.9
0.0202	-0.0008	-0.006	0.0112	29.2
0.0127	-0.0143	-0.0068	-0.0046	29
0.0082	-0.0173	-0.0091	-0.0263	28.8
0.0045	-0.0181	-0.012	-0.0405	28.4
0	-0.0203	-0.0128	-0.0308	28.3
-0.0046	-0.0173	-0.0158	-0.0143	27.9
-0.0105	-0.0046	-0.0165	-0.0053	27.8
-0.015	0.0097	-0.0165	0.0045	27.3
-0.0203	0.0142	-0.015	0.009	27.1
-0.024	0.012	-0.0165	0.015	26.9
-0.0278	0.0105	-0.0143	0.0142	26.7
-0.033	0.0022	-0.012	0.0007	26.2
-0.039	-0.0008	-0.0091	0.0052	26.1
-0.042	0.0007	-0.003	-0.003	25.7
-0.0443	-0.0008	0.0015	-0.0233	25.3
-0.0458	-0.0008	0.003	-0.0181	25.3
-0.045	-0.0046	0.003	-0.0188	24.7
-0.042	-0.0075	0.0022	-0.0315	24.7
-0.039	-0.0113	0.003	-0.0293	24.2
-0.0353	-0.012	0.0045	-0.0278	24
-0.0315	-0.0068	0.0022	-0.024	23.6
-0.0278	-0.006	0.0007	-0.0256	23.4
-0.0248	-0.0075	0.0015	-0.0293	23
-0.0195	-0.0008	0.0022	-0.012	22.7
-0.0181	0.0112	0.0037	0.0142	22.4
-0.0188	0.0255	0.006	0.0367	21.9
-0.0203	0.0277	0.0067	0.0442	21.7
-0.0256	-0.0046	0.0097	0.0255	21.4
-0.0278	-0.0353	0.0142	-0.0008	21.1
-0.03	-0.0181	0.0142	-0.0091	20.7
-0.0338	-0.0008	0.012	-0.0105	20.4
-0.0368	-0.0053	0.0067	-0.0083	20.2
-0.0398	-0.0135	0.0015	-0.003	19.7
-0.0405	-0.0173	-0.0008	0.0007	19.8
-0.0383	0.0007	0.0015	0.003	19.1
-0.0338	0.006	0.0015	0.0007	19.1
-0.03	0.0045	0.0007	0.0037	18.4
-0.0293	0.0052	0.0067	0.0052	18.4
-0.027	0.0097	0.0075	0.0052	17.8
-0.0233	0.0127	-0.0038	0.0082	17.7
-0.0203	0.0082	-0.0173	0.0112	17.2
-0.0188	0.0075	-0.0233	0.0127	17.1
-0.0181	0.0015	-0.024	0.0142	16.8
-0.0248	0.0037	-0.0195	0.015	16.5
-0.0278	0.0052	-0.0181	0.0157	15.9
-0.0278	0.0007	-0.0165	0.0105	15.8
-0.0278	0.0015	-0.015	0.0052	15.6
-0.0256	-0.0008	-0.0165	0.0067	15.2
-0.024	-0.0008	-0.0218	0.0037	15
-0.0195	0	-0.0256	0.003	14.7
-0.0158	-0.0015	-0.0233	0.006	14.4
-0.015	-0.0023	-0.0203	0.0112	14.2
-0.0128	-0.0023	-0.0203	0.0217	13.8
-0.0105	0	-0.0203	0.0247	13.7
-0.0038	0	-0.0173	0.0127	13.2
0.0015	-0.0023	-0.015	-0.0143	13
0.003	-0.0038	-0.012	-0.0443	12.6
0.003	-0.0008	-0.003	-0.048	12.6
0.003	0.0015	-0.0023	-0.0203	12.2
0.0052	0.0015	-0.0046	-0.0083	12.1
0.0075	0.0015	0.0007	-0.0105	11.6
0.0045	0.0015	-0.0008	0.0082	11.6
0.0007	0.0037	-0.0008	0.0457	11.3
-0.0023	0.009	0.0007	0.0937	11
-0.0046	0.0142	-0.0046	0.1177	10.8
-0.0046	0.0157	-0.0046	0.1252	10.7
-0.0038	0.0165	0.0015	0.0675	10.3
0.0007	0.021	0.006	-0.1208	10.1
0.0052	0.027	0.0022	-0.1845	9.9
0.0082	0.042	-0.0015	-0.0203	9.7
0.0097	0.051	-0.0015	-0.0053	9.2
0.0045	0.0292	0.003	-0.1905	9.3
-0.0008	0.0007	0.0105	-0.2438	8.7
0.0045	-0.042	0.0052	-0.0885	8.8
0.0052	-0.099	0.024	0.0015	8.4
0.0067	-0.1358	0.0352	0.0082	8.4
0.0075	-0.1441	0.021	0.0337	8.1
0.0045	-0.1013	0.012	0.024	7.9
0.0052	-0.0256	-0.0158	0.024	7.6
0.0045	0.0277	-0.0361	-0.0038	7.2
0.0045	0.0562	-0.045	-0.0023	7.2
0.0067	0.0712	-0.0653	0.0045	7
0.0082	0.0705	-0.0825	-0.0083	6.8
0.0105	0.0382	-0.0975	0.0052	6.4
0.015	0.0045	-0.1178	-0.003	6.3
0.0337	0.024	-0.1463	0.0022	6.1
0.066	0.0292	-0.18	0.009	5.8
0.0855	0.0165	-0.2138	0.0135	5.8
0.0907	0.0217	-0.2288	0.012	5.5
0.1132	0.0105	-0.2078	0.0112	5.4
0.153	0.0097	-0.1575	0.012	4.9
0.1867	0.0015	-0.1028	-0.0181	4.7
0.2077	-0.003	-0.0405	-0.0405	4.7
0.228	-0.0015	0.0345	-0.0165	4.4
0.2542	-0.0158	0.0832	-0.0008	4.4
0.273	-0.0098	0.105	0.0007	4.1
0.2782	0.0037	0.1237	0.0142	4
0.2745	0.0202	0.1402	0.0142	3.6
0.2685	0.036	0.1612	0.0262	3.7
0.2617	0.042	0.1762	0.0217	3.2
0.2467	0.006	0.171	-0.024	3.3
0.2107	-0.0608	0.144	-0.0593	3
0.1545	-0.0473	0.111	-0.0233	3.2
0.0667	0.0097	0.1012	-0.0068	2.6
-0.0533	-0.0105	0.0892	-0.0256	2.6
-0.1598	-0.03	0.057	-0.0083	2.4
-0.2085	-0.0263	0.0142	-0.0083	2.2
-0.216	-0.0375	-0.0443	0.012	2.1
-0.2085	-0.0263	-0.0555	0.0457	2
-0.2198	-0.0068	-0.021	0.087	1.8
-0.264	0.015	-0.0091	0.1027	1.8
-0.3045	0.03	0.0135	0.0645	1.5
-0.3105	0.033	0.0382	0.033	1.4
-0.2948	0.03	0.0382	0.0315	1.3
-0.2806	0.027	0.0405	0.0382	1.3
-0.273	0.0292	0.0855	0.0487	1.1
-0.27	0.0202	0.0352	0.0495	0.9
-0.261	0.0097	-0.1418	-0.0256	0.8
-0.2633	0.0082	-0.0975	-0.0968	0.9
-0.2858	0.012	-0.0165	-0.1238	0.4
-0.3105	0.0157	0.024	-0.1763	0.5
-0.318	0.0187	0.147	-0.1088	0.4
-0.2993	0.0165	0.1492	-0.0068	0.4
-0.2723	-0.0053	0.1845	-0.0105	0.3
-0.2393	-0.0256	0.1762	0.0247	0.4
-0.207	-0.0158	0.1635	0.0502	0.2
-0.1815	-0.0075	0.1845	0.042	0.4
-0.1598	-0.0195	0.1627	0.006	0
-0.1463	-0.057	0.1815	0.009	-0.1
-0.1441	-0.1088	0.1635	0.0187	0.2
-0.1463	-0.0893	0.1627	0.0067	0
-0.156	-0.0173	0.138	0.0277	0
-0.1711	0.006	0.099	0.0217	-0.3
-0.195	0.0082	0.0502	0.0315	-0.2
-0.2183	0.027	-0.0098	0.0277	-0.2
-0.2138	0.027	-0.033	0.0217	-0.4
-0.21	0.021	-0.0675	0.0052	-0.4
-0.291	0.0165	-0.0856	-0.0203	-0.7
-0.378	0.0127	-0.1095	0.0007	-0.4
-0.3518	0.0052	-0.1365	0.0202	-0.7
-0.3353	0.006	-0.1628	0.0202	-0.5
-0.306	0.0127	-0.1815	0.0195	-0.6
-0.1815	0.0172	-0.1913	0.0217	-0.8
-0.0098	0.0465	-0.207	0.033	-0.7
0.2032	0.06	-0.207	0.054	-1
0.4125	0.0442	-0.2033	0.0675	-0.8
0.585	0.0187	-0.1905	0.042	-0.9
0.7102	-0.0233	-0.18	-0.0135	-0.7
0.7987	-0.0615	-0.165	-0.0503	-1
0.8475	-0.0915	-0.1553	-0.0758	-0.9
0.8632	-0.0893	-0.1568	-0.024	-0.9
0.8662	-0.048	-0.15	0.0157	-0.9
0.8482	0.0015	-0.1155	-0.0113	-0.7
0.8152	0.039	-0.0638	0.0112	-0.9
0.7725	0.042	-0.0338	0.009	-0.7
0.7155	0.024	-0.0053	0.0217	-0.8
0.6412	0.018	0.0165	0.0135	-0.6
0.5655	0.039	0.0397	0.009	-0.5
0.486	0.0502	0.0577	0.0345	-0.8
0.39	0.0247	0.0667	0.0285	-0.5
0.2797	-0.0053	0.0885	0.0495	-0.5
0.1687	-0.0143	0.0975	0.0435	-0.4
0.063	-0.0128	0.0967	-0.012	-0.6
-0.0368	-0.0578	0.09	-0.084	-0.4
-0.1185	-0.06	0.12	-0.081	-0.5
-0.1875	-0.012	0.171	-0.027	-0.3
-0.2475	-0.0083	0.1995	-0.0181	-0.3
-0.2851	0.012	0.201	0.003	-0.1
-0.306	0.027	0.219	0.0127	-0.2
-0.3308	0.045	0.2632	0.0127	-0.1
-0.3458	0.0592	0.2805	0.0075	-0.1
-0.3353	0.0397	0.2557	0.0015	0.1
-0.3158	0.0337	0.1972	0	0.1
-0.291	0.0202	0.1402	-0.0428	0.1
-0.2618	-0.0053	0.0855	-0.0361	0.3
-0.2483	-0.027	0.042	-0.0008	0.2
-0.2543	-0.0225	0.0292	-0.003	0.4
-0.2625	-0.0293	0.0097	0.0015	0.2
-0.2543	-0.0788	-0.0105	-0.0113	0.4
-0.2318	-0.0765	-0.0256	-0.0105	0.4
-0.1845	-0.0195	-0.0458	0.0037	0.5
-0.135	0.0045	-0.0533	-0.0135	0.7
-0.1328	0.009	-0.0848	-0.0368	0.4
-0.1426	0.0097	-0.1185	-0.0338	0.9
-0.1298	-0.0053	-0.1125	0.0052	0.8
-0.1313	0.0045	-0.108	0.0405	0.9
-0.117	0.0367	-0.1396	0.0495	0.9
-0.0825	0.0517	-0.21	0.0127	1
-0.0488	0.0607	-0.2693	-0.0023	1
-0.0158	0.0652	-0.3083	0.039	1.2
0.0037	0.0315	-0.321	0.0435	1.3
0.027	-0.0053	-0.3038	0.0195	1.3
0.0405	-0.0068	-0.2925	-0.0038	1.4
0.0465	-0.0195	-0.2776	-0.0181	1.3
0.0555	-0.0383	-0.2483	-0.0143	1.6
0.075	-0.033	-0.219	-0.0248	1.6
0.1027	-0.0248	-0.1898	-0.0158	1.7
0.1237	0.0075	-0.1703	-0.0046	1.7
0.1515	0.0525	-0.1598	-0.006	1.7
0.1747	0.039	-0.1441	0.006	1.8
0.1785	0.018	-0.117	0.012	1.8
0.1582	0.0382	-0.093	0.0142	2
0.1162	0.0337	-0.0908	0.0067	1.8
0.1102	0.012	-0.0983	-0.0195	2
0.09	-0.048	-0.099	-0.0233	2.1
0.0645	-0.1238	-0.0833	0.036	2.2
0.0975	-0.0623	-0.0683	0.0892	2.2
0.0787	0.0262	-0.0691	0.0945	2.2
0.0787	0.0135	-0.0548	0.108	2.3
0.105	-0.042	-0.0375	0.057	2.2
0.0915	0.0052	-0.0368	-0.105	2.6
0.0607	0.1507	-0.0353	-0.1426	2.4
0.018	0.2055	-0.042	-0.0135	2.6
-0.0091	0.1755	-0.0668	-0.0023	2.5
-0.033	-0.0218	-0.0691	-0.0105	2.7
-0.0608	-0.2655	-0.0278	-0.027	2.7
-0.0878	-0.2288	0.0127	-0.0953	2.8
-0.1043	-0.1373	0.0652	-0.084	3
-0.12	-0.1238	0.1027	-0.0323	3.1
-0.1275	-0.0653	0.0787	-0.0375	3.1
-0.1365	-0.0225	0.048	-0.0585	3.2
-0.1463	0.003	0.0157	-0.0128	3.2
-0.1553	0.0442	0.0112	0.0007	3.2
-0.1575	0.0712	0.0315	0.0172	3.3
-0.1538	0.0645	0.0435	0.0465	3.3
-0.159	0.0532	0.033	0.0832	3.5
-0.1568	0.0292	0.0187	0.1072	3.5
-0.159	-0.0083	0.0232	0.099	3.3
-0.1568	-0.0443	0.0442	0.042	3.2
-0.1478	-0.0691	0.0937	-0.0278	3.2
-0.1298	-0.048	0.1462	-0.0436	3.4
-0.105	-0.0195	0.2107	-0.0795	3.2
-0.0871	-0.0068	0.2977	-0.0848	3.2
-0.0683	0.0195	0.3967	-0.0128	3.1
-0.0443	0.0367	0.5122	-0.0098	3.5
-0.0195	0.0427	0.6142	-0.0218	3.3
-0.0015	0.0547	0.6675	-0.0046	3.5
0.0127	0.0532	0.6525	-0.0068	3.5
0.0127	0.033	0.576	0.0127	3.3
0.0037	-0.0233	0.4447	0.0052	3.5
0.0015	-0.0668	0.2887	0.012	3.4
0.0052	-0.027	0.1207	0.006	3.6
0.0142	0.0015	-0.0405	0.003	3.3
0.0127	-0.0008	-0.1373	0.0052	3.6
-0.0038	0.009	-0.219	-0.0128	3.2
-0.0308	0	-0.3068	0.0067	3.5
-0.0225	0.0067	-0.3353	0.0187	3.3
0.0142	0.021	-0.3458	0.0202	3.5
0	0.0307	-0.3593	0.0232	3.2
-0.0443	0.033	-0.3406	0.0232	3.3
-0.0615	0.027	-0.327	0.03	3.5
-0.0555	0.0285	-0.3195	0.0292	3.5
-0.054	0.0247	-0.2798	0.027	3.6
-0.0728	0.0225	-0.2535	0.024	3.6
-0.105	0.0225	-0.2123	0.018	3.8
-0.1381	0.018	-0.1523	0.0067	4
-0.1433	0.0165	-0.1163	0.009	4.3
-0.1455	0.0135	-0.078	0.0045	4.6
-0.147	0.0105	-0.0105	-0.0075	4.8
-0.1553	0.0067	0.0607	-0.0083	5
-0.1575	0.0037	0.108	-0.015	5.3
-0.1335	0.0067	0.1597	-0.0143	5.8
-0.108	0.0345	0.2145	-0.0143	6.1
-0.0691	0.0772	0.2587	-0.0128	6.5
-0.0248	0.0952	0.3037	-0.0143	6.7
0.0345	0.072	0.3517	-0.015	7.2
0.0967	0.0375	0.4027	-0.0165	7.5
0.159	0.0075	0.4425	-0.0195	8.1
0.1942	-0.0203	0.4537	-0.0195	8.4
0.2452	-0.084	0.4672	-0.0233	8.7
0.318	-0.2026	0.4822	-0.027	9.3
0.348	-0.2783	0.474	-0.0256	9.5
0.354	-0.1748	0.4417	-0.0195	10.1
0.3367	-0.0465	0.399	-0.0195	10.4
0.318	-0.0398	0.369	-0.0143	11
0.2887	0.0202	0.336	-0.0165	11.2
0.2625	0.0607	0.2782	-0.0248	11.7
0.2355	0.078	0.1935	-0.0165	12.1
0.186	0.126	0.114	0.003	12.3
0.15	0.1342	0.0765	0.0097	12.7
0.1297	0.1417	0.0652	-0.0105	12.8
0.114	0.0525	0.0645	-0.0256	13
0.0922	-0.1088	0.0637	-0.0218	13.1
0.093	-0.1463	0.033	-0.0091	13.5
0.1177	-0.0315	-0.0143	-0.003	13.6
0.15	0.0232	-0.0578	0.0015	13.7
0.198	0.0427	-0.108	0.0045	13.7
0.243	0.0697	-0.1433	0.0052	13.6
0.264	0.0375	-0.1688	0.0097	13.8
0.2767	-0.0008	-0.2355	0.0052	13.6
0.2827	-0.093	-0.258	0.0067	13.9
0.273	-0.1125	-0.1793	0.0157	13.5
0.2497	-0.0383	-0.1185	0.0217	13.6
0.1935	-0.0091	-0.105	0.0225	13.4
0.1162	0.0105	-0.1545	0.0225	13.5
0.0285	0.0097	-0.2333	0.0045	13
-0.0518	-0.0046	-0.261	-0.0256	13.4
-0.126	-0.0203	-0.3255	-0.0038	13.3
-0.21	-0.0233	-0.4725	0.039	13.2
-0.2783	-0.0068	-0.5318	0.0412	13
-0.3345	0.0105	-0.531	0.0457	12.6
-0.3878	0.027	-0.5648	0.0157	12.1
-0.4193	0.0172	-0.5693	-0.0585	12
-0.435	0.0127	-0.6203	-0.0503	12.1
-0.4125	0.0517	-0.666	0.003	12
-0.3518	0.0705	-0.6945	0.006	11.8
-0.2963	0.027	-0.6975	0.0142	11.7
-0.246	-0.0135	-0.6398	0.024	11.5
-0.1823	-0.0091	-0.588	0.0187	11.2
-0.1065	-0.003	-0.5153	0.0315	11
-0.0323	-0.0046	-0.4463	0.0337	10.7
0.0292	-0.0008	-0.3578	0.036	10.1
0.0877	-0.0008	-0.261	0.0217	10.1
0.141	0.0007	-0.1913	0.0105	9.9
0.165	-0.0083	-0.1238	0.0097	9.9
0.171	-0.0256	-0.0615	0.0142	9.6
0.1642	-0.0256	-0.0083	0.0172	9.2
0.1545	-0.0128	0.0345	-0.0173	9.1
0.1432	-0.003	0.0787	-0.0308	8.8
0.1132	0.0097	0.1012	-0.0075	9
0.0795	0.0202	0.1072	-0.0075	9
0.024	0.0352	0.1522	0.0022	9.2
-0.033	0.0577	0.222	0.0202	9
-0.078	0.051	0.267	0.0052	9.2
-0.1245	0.0157	0.3007	0.0015	9
-0.1778	-0.0083	0.327	-0.0053	9.8
-0.258	-0.0315	0.339	-0.0038	10.1
-0.3406	-0.0495	0.3202	0.0105	10.7
-0.3998	-0.0488	0.2737	0.0105	10.1
-0.4088	-0.0443	0.2272	-0.0015	8.1
-0.369	-0.0256	0.1762	-0.024	8.1
-0.3315	-0.0053	0.1365	-0.0173	7.9
-0.312	0.003	0.1035	-0.0188	8.6
-0.2955	0.0052	0.0727	-0.0218	9.2
-0.2761	0.0045	0.057	0.0052	9.3
-0.2498	0.0097	0.0427	0.0165	9
-0.2026	0.0127	0.012	0.0195	8.8
-0.1305	0.0165	-0.027	0.0232	9
-0.0346	0.024	-0.0668	0.0142	9.3
0.09	0.018	-0.1133	0.0045	9.3
0.135	0.0045	-0.1703	-0.0038	8.8
0.1102	0.0052	-0.246	0.0022	9.4
0.144	0.012	-0.3143	0.0082	9.3
0.1395	0.0232	-0.3496	0.0157	9
0.0555	0.0352	-0.3391	0.0202	9.3
-0.084	0.0405	-0.2791	0.0187	9
-0.2078	0.0457	-0.1778	0.018	9
-0.2063	0.0382	-0.0735	0.003	8.9
-0.1373	-0.006	0.0127	-0.0083	9
-0.0465	-0.0968	0.0982	-0.0143	9
0.0285	-0.1021	0.1762	-0.0173	9
0.0937	-0.0015	0.2415	-0.0158	9.1
0.1702	0.0345	0.282	-0.0181	8.9
0.258	0.054	0.3082	-0.0181	9
0.3592	0.033	0.3247	-0.0203	8.8
0.4575	-0.0825	0.3195	-0.0203	8.7
0.5565	-0.1118	0.306	-0.0165	8.5
0.6412	-0.0315	0.2857	-0.0091	8.6
0.7005	0.0255	0.2535	-0.006	8.6
0.7342	0.0195	0.2107	-0.0053	8.4
0.7447	0.0097	0.1552	-0.0068	8.6
0.7215	-0.0015	0.072	-0.0098	8.4
0.6615	-0.0195	-0.0233	-0.0091	8.6
0.5625	-0.033	-0.099	-0.0083	8.3
0.4425	-0.0285	-0.0308	-0.0083	8.5
0.3315	0.0045	0.3082	-0.0091	8.4
0.2077	0.024	0.687	-0.0083	8.2
0.0652	0.0345	0.933	-0.003	8.3
-0.0825	0.0322	1.1887	0.0007	8.1
-0.2183	0.024	1.4085	0.0015	8.2
-0.3255	0.009	1.3845	0.0007	7.8
-0.4036	-0.015	1.263	-0.0023	8
-0.4725	-0.024	1.0762	0	7.6
-0.531	-0.0158	0.7972	-0.0015	7.7
-0.5865	-0.0038	0.5182	-0.0068	7.6
-0.6278	-0.0046	0.3502	-0.0083	7.6
-0.6495	0.003	0.18	-0.0091	7.6
-0.6811	-0.0053	0.093	-0.006	7.5
-0.7215	-0.0405	0.0255	0	7.6
-0.7598	-0.0533	-0.0173	0.0067	7.1
-0.7725	-0.0091	-0.0398	0.0142	7.1
-0.7343	0.0292	-0.1043	0.0165	7
-0.6503	0.0315	-0.1688	0.0172	6.9
-0.546	0.042	-0.2445	0.018	6.9
-0.435	0.0225	-0.2881	0.0142	6.7
-0.324	0.0022	-0.3428	0.0112	6.7
-0.2228	0.0142	-0.384	0.0097	6.6
-0.135	0.0142	-0.4178	0.0052	6.7
-0.0578	0.012	-0.4598	0.006	6.7
0.0157	0.0142	-0.4905	0.009	6.6
0.1027	0.0105	-0.525	0.0097	6.4
0.1875	0.0097	-0.5415	0.0097	6.6
0.2632	0.009	-0.5588	0.0082	6.4
0.3397	0.0067	-0.5468	0.003	6.3
0.4087	0.0105	-0.5108	-0.0008	6.3
0.4725	0.0067	-0.4643	-0.0053	6.1
0.5182	0.003	-0.414	-0.0075	6.1
0.5242	-0.0008	-0.3773	-0.0105	6.1
0.4972	-0.0195	-0.3421	-0.0158	6.1
0.4597	-0.0181	-0.312	-0.0165	6.1
0.408	0.0075	-0.2895	-0.0165	5.7
0.342	0.0067	-0.2685	-0.0083	5.9
0.276	-0.0015	-0.243	0.009	5.5
0.2145	-0.0158	-0.2258	0.0007	6
0.1575	-0.0383	-0.2033	-0.0173	5.6
0.1042	-0.048	-0.1733	-0.0278	5.8
0.0652	-0.0518	-0.1485	-0.039	5.5
0.0367	-0.0368	-0.1155	-0.0398	5.7
0.0195	-0.0038	-0.0893	-0.0405	5.5
0.0127	0.0217	-0.075	-0.0308	5.3
0.0082	0.027	-0.0623	-0.0203	5.4
0.009	0.0255	-0.0495	-0.0135	5.2
0.024	0.024	-0.0405	-0.0053	5.3
0.0607	0.0195	-0.0293	-0.0015	5.2
0.114	0.0097	-0.0218	0.0052	5.2
0.1717	-0.0173	-0.0218	0.0045	5.3
0.2137	-0.0368	-0.0165	0.0075	5
0.2332	-0.015	-0.0083	0.0127	5.3
0.2302	0.009	-0.0015	0.0172	5
0.2122	0.0232	0.0007	0.0232	5.3
0.1875	0.0405	-0.0046	0.027	4.9
0.1522	0.0292	-0.006	0.03	5.2
0.1162	0.012	-0.006	0.0322	4.8
0.0862	-0.006	0.0007	0.0345	5
0.0592	-0.0233	0.012	0.033	4.8
0.0337	-0.0218	0.0217	0.036	4.9
0.012	-0.0173	0.03	0.0397	4.9
-0.012	-0.0023	0.033	0.0382	4.7
-0.0458	0.0007	0.039	0.0315	4.8
-0.0773	0.0045	0.0412	0.0195	4.8
-0.1065	0.0315	0.0397	-0.0038	4.5
-0.1328	0.0435	0.0375	-0.021	4.7
-0.147	0.0405	0.03	-0.0181	4.5
-0.1448	0.0712	0.0232	-0.015	4.4
-0.1335	0.1042	0.0187	-0.033	4.2
-0.1185	0.0127	0.009	-0.0623	4.5
-0.0953	-0.123	-0.0046	-0.0825	4.1
-0.0698	-0.189	-0.015	-0.0908	4.3
-0.0503	-0.195	-0.0218	-0.0938	4.1
-0.0353	-0.0878	-0.0263	-0.0878	4.2
-0.0165	-0.0091	-0.027	-0.0833	4.1
0.0067	0.0007	-0.0233	-0.0863	3.9
0.0322	0.033	-0.0165	-0.0893	4.1
0.0607	0.0247	-0.0158	-0.0968	3.8
0.0795	0.0277	-0.0308	-0.09	3.8
0.078	0.033	-0.0555	-0.0623	3.8
0.0832	0.0255	-0.0383	-0.0338	3.8
0.093	0.0232	0.0007	-0.0128	4
0.0937	0.018	0.0225	0.0037	3.7
0.0915	0.0277	0.0465	0.0127	3.8
0.09	0.0217	0.06	0.0142	3.6
0.084	0.0262	0.0645	0.0202	3.8
0.063	0.0292	0.0652	0.0255	3.6
0.0315	0.0247	0.075	0.024	3.6
-0.0008	0.024	0.0915	0.0255	3.4
-0.0278	0.015	0.0847	0.0217	3.6
-0.0465	0.012	0.0652	0.0225	3.5
-0.0563	0.0075	0.054	0.0255	3.4
-0.0691	0.0067	0.0442	0.0217	3.3
-0.0788	0.0067	0.0382	0.0195	3.2
-0.0856	0.0075	0.0532	0.0157	3.2
-0.0923	0.012	0.066	0.0135	3.2
-0.0998	0.0127	0.078	0.012	3.2
-0.108	0.0142	0.0847	0.0127	3.3
-0.1155	0.012	0.0997	0.0135	3.1
-0.1275	0.0067	0.1222	0.018	3.1
-0.1358	-0.0008	0.1237	0.024	2.9
-0.1396	-0.0083	0.1222	0.024	3.1
-0.1388	-0.0135	0.1155	0.0232	2.7
-0.135	-0.0195	0.09	0.024	3
-0.126	-0.0218	0.0555	0.0255	2.8
-0.1103	-0.0233	0.03	0.0255	2.9
-0.1006	-0.0233	0.0157	0.0232	2.8
-0.0945	-0.0203	0.0022	0.0195	2.7
-0.0721	-0.0195	-0.0038	0.0187	2.8
-0.039	-0.0181	-0.0105	0.0165	2.6
-0.003	-0.0143	-0.0128	0.012	2.6
0.0217	-0.012	-0.0128	0.009	2.4
0.0345	-0.0091	-0.0128	0.009	2.5
0.042	-0.0068	-0.0105	0.009	2.6
0.042	-0.006	-0.0113	0.009	2.6
0.0322	-0.003	-0.0105	0.0127	2.5
0.0142	0.0007	-0.012	0.0135	2.3
-0.0105	0.0037	-0.0113	0.012	2.4
-0.0346	0.0067	-0.0098	0.0105	2.4
-0.048	0.006	-0.015	0.0105	2.4
-0.0533	-0.003	-0.0188	0.0067	2.2
-0.0458	-0.0091	-0.024	-0.0046	2.2
-0.0293	-0.015	-0.03	-0.0128	2.2
-0.0173	-0.0165	-0.039	0.006	2.2
-0.0105	-0.0098	-0.0398	0.0127	2.1
-0.012	-0.0046	-0.0323	0.012	2
-0.0233	0.0135	-0.024	0.015	2.1
-0.0361	0.0277	-0.0091	0.0225	2.1
-0.0383	0.0277	0.0067	0.045	2
-0.0428	0.0292	0.0232	0.0517	2.1
-0.0555	0.024	0.0337	0.0382	2.1
-0.0638	0.015	0.0367	0.0255	2.1
-0.0638	0.0097	0.0307	0.021	1.8
-0.0728	0.0097	0.03	0.0142	2.2
-0.099	0.0082	0.0405	0.003	1.8
-0.1163	0.009	0.0532	0.0015	1.9
-0.1215	0.0157	0.0592	0.0082	1.8
-0.1193	0.015	0.0405	0.0112	1.9
-0.1125	0.0172	0.0292	0.012	1.8
-0.1185	0.0277	0.018	0.0097	1.8
-0.132	0.0382	-0.0068	0.0015	1.8
-0.1411	0.06	-0.0181	0.0045	1.6
-0.1298	0.0802	-0.0218	0.0075	1.7
-0.1058	0.0532	-0.0128	0.0142	1.7
-0.0848	-0.0248	-0.0038	0.0127	1.6
-0.0706	-0.12	-0.0338	0.009	1.6
-0.0458	-0.1898	-0.084	0.0045	1.5
-0.0008	-0.2018	-0.1148	-0.0023	1.6
0.0382	-0.105	-0.1478	-0.0128	1.4
0.0645	-0.0225	-0.1763	-0.0233	1.6
0.0832	-0.024	-0.186	-0.015	1.2
0.0937	0.003	-0.18	-0.0098	1.5
0.0855	0.0022	-0.1673	-0.0105	1.3
0.075	0.0037	-0.1658	-0.0083	1.5
0.0705	0.0195	-0.1515	-0.0083	1.3
0.0615	0.0097	-0.1365	-0.0015	1.4
0.0435	0.0195	-0.1298	0.003	1.3
0.015	0.018	-0.1185	0.003	1.5
0.0015	0.021	-0.1006	-0.0008	1.3
-0.0023	0.0165	-0.078	-0.003	1.4
-0.0068	0.0127	-0.0706	-0.0083	1.4
-0.0195	0.0277	-0.0675	-0.0113	1.3
-0.0323	0.0375	-0.0675	-0.0128	1.3
-0.0293	0.0352	-0.057	-0.0135	1.3
-0.003	0.0315	-0.0285	-0.0068	1.3
0.024	0.039	-0.0165	0	1.2
0.027	0.0397	-0.0075	0.003	1.2
0.0045	0.0337	0.0037	0.0015	1.3
-0.0225	0.0105	-0.0053	0.0007	1.1
-0.0338	-0.0353	-0.0233	-0.003	1.2
-0.027	-0.0728	-0.0248	-0.0083	1
-0.0038	-0.0473	-0.0135	-0.0075	0.9
0.0255	-0.0015	-0.0256	-0.0068	1
0.0525	-0.0008	-0.0413	-0.0053	0.9
0.0742	0.0165	-0.0645	-0.0008	1.1
0.0862	0.0232	-0.0878	0	0.9
0.105	0.0082	0.024	-0.0038	1.1
0.1267	-0.0008	0.2497	-0.0046	1
0.1462	-0.0158	0.219	-0.0068	0.8
0.159	-0.0083	0.1027	-0.0083	0.9
0.165	0.0052	0.2647	-0.0083	0.8
0.1642	0.0202	0.3562	-0.012	0.9
0.159	0.0292	0.42	-0.012	0.8
0.1477	0.0195	0.45	-0.0083	0.9
0.1237	0.0097	0.4432	-0.006	0.8
0.0967	-0.0135	0.5632	-0.0105	0.8
0.0675	-0.0368	0.5422	-0.0091	0.8
0.0472	-0.0098	0.4755	-0.0015	0.7
0.033	0.0157	0.513	0.0045	0.9
0.0232	0.0097	0.5032	0.0067	0.6
0.027	0.0142	0.4282	0.0067	0.7
0.0382	0.0105	0.3225	0.0045	0.7
0.0457	0.0075	0.1537	0.0007	0.7
0.048	0.006	-0.0008	-0.0023	0.6
0.0457	0.0037	-0.15	0.0007	0.6
0.0412	0.0082	-0.2565	0.0082	0.9
0.0322	0.0045	-0.3233	0.012	0.5
0.0135	0.0045	-0.3923	0.0142	0.8
-0.0091	0.0015	-0.4185	0.0127	0.4
-0.0308	-0.0008	-0.4673	0.012	0.7
-0.048	-0.0015	-0.4988	0.0082	0.4
-0.0615	-0.0015	-0.5183	0.0052	0.7
-0.0653	0.0015	-0.531	0.0067	0.5
-0.0698	0.0007	-0.5183	0.006	0.6
-0.0706	0.0015	-0.5026	0.0015	0.6
-0.0668	0.0022	-0.4883	-0.0015	0.5
-0.0721	0.0037	-0.489	0	0.7
-0.0773	0.0045	-0.477	-0.0023	0.6
-0.0795	0.0045	-0.4598	-0.0015	0.6
-0.0818	0.0052	-0.4403	0.0015	0.8
-0.0856	0.0067	-0.429	0.0007	0.7
-0.0856	0.0052	-0.426	0.0007	0.7
-0.0788	0.0007	-0.4036	0.0015	0.5
-0.0675	-0.0008	-0.366	0.0007	0.7
-0.0563	-0.003	-0.3105	0.0022	0.5
-0.039	-0.0083	-0.2528	0.0007	0.6
-0.0165	-0.0098	-0.2011	-0.0008	0.6
0.009	-0.0083	-0.1538	0	0.6
0.0352	-0.0083	-0.1133	-0.0015	0.6
0.0555	-0.0075	-0.0713	-0.0046	0.6
0.0727	-0.012	-0.0315	-0.0105	0.7
0.081	-0.0188	0.006	-0.015	0.4
0.078	-0.0158	0.0412	-0.012	0.6
0.066	-0.012	0.0742	-0.012	0.7
0.0502	-0.0105	0.105	-0.0091	0.6
0.0367	0.003	0.138	-0.0015	0.8
0.0232	0.0082	0.1747	-0.0008	0.6
0.0165	-0.0091	0.2175	-0.006	0.7
0.009	-0.0248	0.2655	-0.0091	0.4
0.0045	-0.0413	0.2842	-0.012	0.7
0.012	-0.0518	0.2782	-0.012	0.5
0.0202	-0.0398	0.2767	-0.006	0.7
0.0255	-0.0203	0.267	-0.003	0.5
0.0292	-0.0135	0.2572	0	0.6
0.0292	-0.0158	0.2475	0.003	0.7
0.0337	-0.0098	0.2287	0.003	0.7
0.0442	-0.0098	0.2137	0.0067	0.7
0.0517	-0.0091	0.2025	0.0067	0.5
0.0525	-0.0023	0.2047	0.009	0.8
0.0502	-0.0008	0.2092	0.0127	0.5
0.0517	-0.0008	0.213	0.0052	0.6
0.0517	-0.0053	0.2325	-0.0008	0.7
0.0555	0.0007	0.2707	-0.012	0.7
0.0547	0.0067	0.3195	-0.033	0.7
0.0502	0.0082	0.3472	-0.039	0.6
0.042	0.0195	0.3367	-0.0173	0.8
0.0255	0.0285	0.3127	-0.0091	0.4
0.018	0.0247	0.2872	-0.0091	0.9
0.012	0.0157	0.2587	-0.0091	0.8
0.0015	0.0157	0.2272	-0.0083	0.9
-0.015	0.0262	0.2085	0.0015	0.7
-0.0308	0.0345	0.195	0.0015	0.7
-0.039	0.0337	0.1972	0.0052	0.7
-0.0443	0.0322	0.2032	0.0082	0.6
-0.033	0.024	0.177	0.0075	0.6
-0.0173	0.0157	0.1552	0.009	0.8
-0.0105	0.009	0.1185	0.0052	0.9
-0.0075	0.0067	0.051	0.003	0.7
-0.0046	0.0082	-0.0091	-0.0015	0.7
0.0037	0.0015	-0.0668	-0.0015	0.9
0.018	0.003	-0.1028	-0.0008	0.7
0.042	0.0142	-0.1223	-0.0008	0.8
0.0727	0.027	-0.1335	0.003	0.6
0.108	0.0202	-0.1283	0.003	0.8
0.1372	0.0097	-0.1185	0.0007	0.7
0.1642	0.0015	-0.0983	-0.0023	0.8
0.1822	-0.0023	-0.063	-0.0053	0.7
0.1785	0	-0.024	-0.006	0.8
0.1485	-0.0038	0.0015	-0.0075	0.9
0.1065	-0.0046	0.0142	-0.0113	0.8
0.0697	-0.006	0.0082	-0.0158	0.7
0.0232	-0.0068	-0.0091	-0.0158	0.7
-0.0248	-0.0046	-0.0248	-0.015	0.7
-0.0563	-0.003	-0.042	-0.0128	0.8
-0.0871	-0.0038	-0.0593	-0.0128	0.7
-0.12	-0.0023	-0.0915	-0.0113	0.9
-0.1396	0.0007	-0.1283	-0.0091	0.7
-0.15	0	-0.1643	-0.0053	1
-0.1538	0.003	-0.2011	-0.0008	0.8
-0.15	0.0022	-0.2273	0	1.1
-0.1418	-0.0068	-0.243	-0.0015	0.7
-0.1343	-0.0083	-0.2468	-0.0008	1.1
-0.1313	0.0015	-0.237	0.006	0.9
-0.129	0.0112	-0.2115	0.0097	0.9
-0.1305	0.0142	-0.1741	0.0105	0.9
-0.1411	0.0172	-0.129	0.012	0.8
-0.1463	0.0195	-0.0893	0.0127	0.9
-0.1485	0.018	-0.0593	0.0127	1
-0.1463	0.0127	-0.0346	0.012	0.9
-0.1343	0.0067	-0.0195	0.0112	0.9
-0.1178	0.0037	-0.0083	0.0105	0.9
-0.099	-0.0008	0.0075	0.009	1
-0.081	-0.0008	0.0187	0.0082	0.9
-0.0691	0.012	0.0277	0.009	1.2
-0.0615	0.033	0.0382	0.009	0.8
-0.0593	0.036	0.0465	0.0067	0.9
-0.0593	0.0232	0.0607	0.0067	0.8
-0.0608	0.012	0.0765	0.0075	1.1
-0.0645	-0.0008	0.0915	0.0067	0.8
-0.0645	-0.0218	0.1087	0.006	1
-0.0593	-0.0653	0.1237	0.0007	0.8
-0.0548	-0.1021	0.132	0.0007	0.9
-0.0495	-0.0653	0.1327	0.003	1
-0.0428	-0.0091	0.1282	0.003	0.9
-0.0368	-0.0053	0.1215	0.0015	0.9
-0.0263	-0.0083	0.1125	0.0037	0.9
-0.0135	-0.0113	0.1012	0.003	0.9
-0.0008	-0.0053	0.0885	0	0.7
0.0045	0.0052	0.0742	-0.003	0.9
-0.0015	-0.0008	0.0562	-0.0038	0.9
-0.0105	0.0075	0.0405	-0.0046	0.8
