File Name: depie.log
Channel 4: 'Recto Femoral', 12834 values, engineering units: mV, no filters.
Channel 5: 'Biceps Femoral', 12834 values, engineering units: mV, no filters.
Channel 6: 'Vasto Medial', 12834 values, engineering units: mV, no filters.
Channel 7: 'EMG Semitendinoso', 12834 values, engineering units: mV, no filters.
Channel 8: 'Flexo-Extension', 12834 values, engineering units: deg, no filters.

-0.0023	-0.0015	-0.003	0.003	88
0.0082	-0.0008	-0.0053	0.0045	87.9
0.009	0.0007	-0.0046	0.0052	88.1
0.009	0.0007	-0.0015	0.003	87.9
0.0097	-0.0008	-0.0023	0.0015	88
0.009	-0.0015	-0.0046	-0.0015	88
0.0067	-0.0038	-0.0008	-0.0046	87.9
0.0045	-0.0046	0.0015	-0.0053	88
0.0045	-0.003	0	-0.0075	87.9
0.0045	-0.0015	0.0015	-0.0068	88.1
0.0052	0	0.0015	-0.0053	87.9
0.0045	0.0045	0.0022	-0.0015	88
0.0015	0.009	0.0015	0.0007	87.8
0.0015	0.009	0	0.0007	88.2
-0.0015	0.0067	0	0.0007	87.9
-0.0015	0.006	-0.0008	0.0022	88
-0.0015	0.006	0.0007	0.0022	88.1
-0.003	0.0067	0.0015	0.0015	88
-0.003	0.0045	0.0015	0.0015	88
-0.0046	0.0015	0.0007	0.0022	88
-0.0046	0.0007	0	0.0015	88.1
-0.0053	-0.0015	0	0.0022	88
-0.0038	-0.0008	0.003	0.0015	88.2
-0.0015	-0.0023	0.0052	0.0007	87.8
-0.0008	-0.0023	0.0052	0.0007	88.1
-0.0008	-0.0015	0.006	0.0007	88
-0.0008	-0.0023	0.006	-0.0008	88.1
-0.0015	-0.0008	0.006	0.0007	88
-0.0015	-0.0015	0.0052	0.0015	88
-0.0015	-0.0008	0.0045	0.0022	88.2
-0.0015	-0.0015	0.0015	0.003	88.1
-0.0015	-0.0008	-0.0008	0	88.1
-0.0023	0.0007	0.0015	0	88
-0.0008	0	0.0037	-0.0008	88.2
0.0007	-0.0015	0.0015	-0.0008	88.2
-0.0008	-0.0023	0.003	-0.0015	88.1
0	-0.0008	0.003	-0.003	88.1
0	-0.0008	0.0015	-0.0046	88
0.0007	-0.0008	0.003	-0.0046	88.2
0	-0.0008	0.0015	-0.0053	88
0.0007	-0.0008	0.0022	-0.0046	88.2
-0.0008	-0.0015	0.003	-0.003	88
-0.0015	-0.0008	0.0015	-0.003	88.1
-0.0008	0	0.0045	-0.0008	88.1
-0.0008	-0.0008	0.0022	-0.0015	88.3
0.0007	-0.0008	0.003	0	88.1
-0.0015	-0.0008	0.003	0.0015	88.2
-0.0015	0	0.0007	-0.0008	88.2
-0.0015	-0.0008	0.003	0.0007	88.2
-0.0015	-0.0008	0.0022	0.0007	88.2
0	-0.0008	0.0007	0.0007	88.2
0.0007	0	0.0015	0.0015	88.2
-0.0008	-0.0008	0	0.0015	88.1
-0.0008	-0.0015	-0.0008	0.003	88.2
0	-0.0008	-0.0008	0.003	88.2
-0.0015	-0.0008	-0.003	0.0007	88.2
-0.0008	-0.0008	-0.0015	0	88.2
-0.0015	0	-0.0008	0.0007	88.1
-0.0046	0.0007	0.0007	0.0015	88.3
-0.0046	0.0015	-0.0015	0.0022	88.2
-0.0046	0.0015	-0.0023	0.0015	88.2
-0.0046	0.0015	-0.0038	0.0015	88.2
-0.0015	0.0015	-0.003	0.0007	88.3
0.0007	0.003	-0.003	0	88.1
0.0015	0.0015	-0.003	0	88.3
0.0015	-0.0015	-0.0046	0	88.2
0.0022	0	-0.0053	0.0007	88.3
0.0022	0.0007	-0.0046	-0.0008	88.3
0.0007	0.0022	-0.0046	-0.0008	88.2
0	0.0007	-0.0053	-0.0015	88.2
-0.0023	0.0007	-0.0046	-0.0023	88.2
-0.0015	0.0007	-0.003	-0.0015	88.2
-0.0023	0.0007	-0.006	-0.0015	88.2
-0.003	0	-0.0053	-0.0008	88.2
-0.0015	-0.0008	-0.0046	-0.0008	88.3
0	0.0007	-0.0038	-0.0015	88.3
0.0007	0.0015	-0.003	-0.0015	88.2
0.003	0.0007	-0.0046	-0.0015	88.3
0.0015	0	-0.0015	-0.0023	88.3
0.0015	0.0007	-0.0023	-0.0015	88.1
0.0007	0.0007	-0.003	-0.0015	88.4
-0.0015	0.0015	-0.0038	-0.0015	88.3
-0.003	0	-0.003	-0.0008	88.3
-0.0023	-0.0015	-0.0038	-0.0015	88.3
-0.0008	-0.0008	-0.0046	0.0007	88.2
0.0007	0	-0.0046	0.0015	88.2
0.0007	-0.0008	-0.0053	0.0022	88.2
0	-0.0023	-0.0038	0.0037	88.3
0.0015	-0.0038	-0.0015	0.0037	88.2
0.0075	-0.0015	-0.0015	0.0045	88.4
0.0112	-0.0015	-0.0015	0.0037	88.2
0.0067	-0.003	0.0007	0.0015	88.3
0	-0.0023	0.0015	0.0007	88.3
-0.003	-0.0023	0.0045	-0.003	88.2
-0.0053	-0.0015	0.0045	-0.0053	88.3
-0.0068	-0.0023	0.0037	-0.0075	88.3
-0.0046	-0.0015	0.0045	-0.0046	88.6
-0.0015	0.0007	0.0015	-0.0008	88.2
-0.003	0	0.0015	-0.0015	88.3
-0.0023	0	0.0007	-0.0008	88.3
-0.0008	0.0007	0.0045	0.0015	88.3
0.0022	0.0007	0.0052	0.0007	88.2
0.0022	-0.0008	0.003	-0.0008	88.3
0.0007	0	0.0007	-0.0015	88.3
0.0022	0	0.0015	-0.0015	88.2
0.0037	0	0.003	-0.0015	88.3
0.0037	-0.0008	0.0015	-0.0008	88.2
0.0037	-0.0008	0.0015	0	88.3
0.003	-0.0008	0.0015	0	88.3
0.0015	0	0.003	0	88.3
0.0007	-0.0008	0.003	-0.0008	88.2
0.0007	0	0.0015	0.0007	88.3
0.0015	0.0015	-0.0008	0.0007	88.3
0.003	0.0015	0	0.0022	88.2
0.003	0.0015	0.0007	0.003	88.2
0.003	0.0007	-0.0008	0.003	88.2
0.0022	-0.0008	-0.0008	0.0022	88.2
0.0022	0.0015	0.0007	0.003	88.3
0.0015	0.003	0.0015	0.0045	88.2
0.003	0.0052	-0.0008	0.0015	88.3
0.0015	0.0052	-0.003	0.0015	88.2
0	0.003	-0.0046	0.003	88.4
-0.0015	0.0037	-0.0046	0.003	88.3
-0.012	0.0022	-0.0038	0.0022	88.3
-0.0203	0.0015	-0.0015	0.0015	88.2
-0.015	0	-0.0023	0.003	88.3
-0.0068	0	-0.0015	0.0022	88.2
-0.003	-0.0008	0.0007	0.0007	88.3
0.0045	-0.0023	0.0015	-0.0008	88.1
0.0067	-0.0023	0.0022	-0.0023	88.3
0.0127	-0.0046	0.0007	-0.0053	88.2
0.0195	-0.0046	-0.0008	-0.0046	88.3
0.0187	-0.0015	-0.0015	-0.003	88.2
0.0165	0	-0.003	-0.003	88.3
0.0165	-0.0015	-0.0015	-0.003	88.2
0.0105	-0.0015	-0.003	-0.0038	88.2
0	-0.0015	-0.0038	-0.003	88.3
-0.003	-0.0023	-0.0038	-0.0008	88.3
-0.0038	-0.003	-0.0053	0.0007	88.3
-0.003	-0.0023	-0.006	0.0015	88.2
-0.0038	-0.0015	-0.0046	0.0015	88.1
-0.0046	-0.003	-0.0038	0.0015	88.3
-0.0053	-0.0015	-0.0023	-0.0008	88.3
-0.0053	0.0007	0	-0.0015	88.2
-0.003	0.003	0.0007	0.0007	88.1
-0.003	0.0037	0.0007	0.0007	88.3
-0.0046	0.003	0.0007	-0.0008	88.2
-0.006	0.003	0	0.0007	88.3
-0.0083	0.0015	-0.0008	0.0007	88.3
-0.0068	0.003	-0.0015	0.0015	88.2
0.0232	0.0007	-0.0023	0.003	88.2
0.0615	0.0007	-0.003	0.0007	88.1
0.021	0.0015	-0.0038	-0.0008	88.2
-0.0383	0.0007	-0.0046	0.0007	88.1
-0.0615	0.0007	-0.0015	-0.0008	88.2
-0.0645	-0.0008	0.0007	0.0007	88
-0.0398	0.0007	-0.0015	0.0015	88.2
-0.0105	0.0007	-0.003	0	88.2
0.0142	-0.0008	-0.0015	0.0015	88.2
0.0165	-0.0008	-0.0008	0.0015	88.1
0.0127	-0.0015	0.003	-0.0008	88.1
0.009	-0.0015	0.0075	0	88.3
0.0082	-0.0046	0.0082	0.0007	88.2
0.0127	-0.0046	0.0112	-0.0015	88.3
0.006	-0.0038	0.0105	-0.0015	88.2
0.0045	-0.003	0.0067	-0.003	88.1
0.0015	-0.0015	0.006	-0.003	88.2
0.0007	-0.003	0.003	-0.0015	88
-0.0008	-0.0015	0.0007	-0.003	88.2
-0.0008	-0.0015	-0.0008	0	88
-0.0008	0.0007	0.0007	0.0007	88.2
-0.0046	0.003	-0.0023	0.0022	88.1
-0.0015	0.003	-0.003	0.003	88.3
-0.003	0.0037	-0.0015	0.0007	88
-0.0008	0.003	-0.0046	0.003	88.2
-0.0008	0.0007	-0.0008	0	88.1
-0.0015	0	-0.0015	-0.0015	88.2
-0.0008	-0.0015	-0.0023	-0.0008	88.1
-0.0008	-0.0008	-0.0008	-0.0008	88.2
0.0037	0.0007	-0.0008	0.0007	88.1
0.0037	-0.0008	0.0007	0.0007	88.2
0.0022	0.0007	-0.0008	0.0007	88.2
-0.003	0.0015	0	0.0007	88
-0.0008	0	-0.0015	0.0007	88.1
0.0037	-0.0008	-0.003	0.0007	88.1
0.0052	-0.0015	-0.0023	0.0007	88.1
0.009	-0.0015	-0.0015	-0.0008	88.1
0.009	-0.0015	-0.003	0.0015	88.1
0.0105	-0.0038	-0.0015	0.0015	88.2
0.0105	-0.0023	-0.0023	0	88
0.0105	-0.003	-0.0053	-0.0008	88.2
0.0105	-0.0015	-0.003	-0.0015	88
0.006	-0.0008	-0.003	-0.003	88.3
0.0022	-0.0023	-0.0008	-0.0015	88
0.0007	-0.0008	0	-0.0008	88.2
0	0	-0.0015	0	88.1
-0.0023	-0.0008	-0.003	0.0015	88.2
-0.0023	-0.0008	-0.0046	0.003	88.1
-0.0015	-0.003	-0.0038	0.0022	88
-0.0046	-0.003	-0.0046	0.0007	88.2
-0.0053	-0.0015	-0.0053	0.0015	88.1
-0.0105	0.0007	-0.0068	0.0015	88.2
-0.0188	0.0007	-0.0038	0.0007	88.1
-0.0173	0.0007	-0.0008	-0.0015	88.1
-0.0083	0.0015	0	-0.0015	88.2
-0.0053	0.0022	0.0007	-0.0008	88.2
-0.0015	0.0022	0	-0.0015	88.1
0.0015	0.0015	0.0015	-0.003	88.2
-0.0083	0.003	0.0015	-0.003	88.3
-0.0218	0.0015	0	-0.003	88.1
-0.0173	0.0007	-0.0015	-0.0046	88.3
-0.0008	0.0007	-0.0008	-0.003	88.2
0.012	0.0015	0.0007	-0.003	88.2
0.0195	0.0007	0.0037	-0.003	88.2
0.0202	-0.0015	0.0045	-0.003	88.2
0.0255	-0.0015	0	-0.003	88.2
0.0292	-0.0015	-0.003	-0.0015	88.2
0.0292	-0.0008	-0.0053	-0.0008	88.2
0.0277	-0.0015	-0.0053	0.0015	88.2
0.0195	-0.0015	-0.0038	0.0045	88.2
0.0105	0.0007	0	0.0037	88.2
0	0.0015	0.0007	0.003	88.2
-0.0046	0.0007	0.0015	0.0022	88.3
-0.0053	0.0007	0.0045	0.0007	88.2
-0.0091	0	0.0082	0	88.3
-0.015	0.0007	0.0165	-0.0015	88.1
-0.021	0.0007	0.0165	0	88.3
-0.0181	0.0007	0.0112	-0.0008	88.1
-0.0143	0	0.0082	-0.0008	88.3
-0.0105	-0.0008	0.0045	-0.0008	88.2
-0.0068	-0.0008	0.0015	-0.0008	88.2
-0.0105	0	0.0007	0.0007	88.3
-0.0128	-0.0008	-0.0015	0.0007	88.2
-0.012	0.0007	-0.0046	-0.0008	88.3
-0.0098	0.0007	-0.0053	-0.0008	88.1
-0.0075	0	-0.0068	-0.0008	88.2
-0.0091	0.0015	-0.0053	0	88.2
-0.006	0.003	-0.003	0.0007	88.2
-0.0015	0.003	-0.0015	-0.0008	88.2
0.0007	0.0022	0.0015	-0.0008	88.2
0.0022	0.0015	0.0022	0.0015	88.3
0	0.0015	0.003	0.0007	88.1
-0.003	0.0015	0.0045	0.0015	88.3
-0.0038	0.0015	0.0037	0.0007	88.2
0.0007	0.003	0.0015	0	88.3
0.006	0.003	0.003	0.0007	88.2
0.012	0.0015	0.0037	0.003	88.2
0.018	0.0015	0.0045	0.0007	88.3
0.0195	0	0.003	0.0007	88
0.0247	0	0	0.0015	88.4
0.0577	0	0.0007	0.0015	88.2
0.0765	-0.0023	0.0015	0	88.4
0.012	-0.003	0.0015	0	88.2
-0.0503	-0.003	-0.0008	0.0007	88.3
-0.0735	-0.0023	-0.003	0	88.2
-0.0721	-0.0046	-0.0038	-0.0008	88.3
-0.0436	-0.0046	-0.0023	0.0007	88.3
-0.0158	-0.003	-0.003	0.0015	88.3
0.0067	-0.0015	-0.0053	0.0015	88.3
0.0157	0.0007	-0.0038	0.0007	88.4
0.018	0.0007	-0.0008	0.0007	88.3
0.0127	0.0007	-0.0015	0.0007	88.3
0.0097	0.0007	-0.0008	0.0007	88.2
0.0097	-0.0008	-0.0015	0.0007	88.3
0.0082	-0.0015	-0.0038	0.0007	88.3
0.0075	-0.0015	-0.003	-0.0008	88.3
0.0067	-0.0015	-0.0015	-0.0023	88.3
0.0075	-0.0023	-0.0008	-0.003	88.3
0.0045	-0.0015	-0.0015	-0.003	88.3
0.0052	-0.0015	-0.0053	-0.0008	88.3
0.006	-0.0015	-0.0053	0.0007	88.3
0.0082	0.0007	-0.006	0.0007	88.5
0.0045	0.0007	-0.0046	0.0015	88.4
0.0007	0.0007	-0.0015	0	88.2
0.0022	-0.0015	0	0.0007	88.3
-0.0015	-0.0008	0.0015	0	88.4
-0.0015	-0.0008	0.0015	0	88.3
-0.0038	-0.0008	0	0.0007	88.4
-0.0015	0.0015	-0.0008	0.0015	88.6
0.0045	0.0022	-0.003	0.003	88.3
0.0112	0.0022	-0.0053	0.0015	88.3
0.012	0.0022	-0.0046	0.0007	88.6
0.0105	0.0037	-0.0053	0.0015	88.4
0.0082	0.0052	-0.006	0.003	88.4
0.0045	0.0052	-0.0046	0.0007	88.3
0.0007	0.0037	-0.003	-0.0015	88.4
-0.0046	0.0015	-0.0008	-0.0023	88.3
-0.006	-0.0015	-0.003	-0.003	88.4
-0.0091	-0.003	0.0007	-0.003	88.3
-0.012	-0.0015	0.0022	-0.0038	88.5
-0.0091	-0.0015	0	-0.0046	88.3
-0.006	-0.0015	-0.0008	-0.0015	88.6
-0.003	0	-0.0008	-0.0023	88.5
0.0015	-0.0008	0	-0.0046	88.4
0.006	-0.0015	-0.0015	-0.0015	88.6
0.0082	0.0007	0	-0.0008	88.4
0.0082	0.0007	0.0022	0	88.6
0.0067	0.0015	0.0022	0.0007	88.4
0.0045	0.0007	0.0037	0.0007	88.5
0.0007	-0.0008	0.0015	0.0007	88.3
-0.0008	-0.0015	0.0007	0.0007	88.5
-0.003	-0.0023	0	0.0007	88.5
-0.0053	-0.0015	0.0022	0.0022	88.5
-0.0053	-0.0008	0.0022	0.0015	88.5
-0.0053	0.0007	0	0.0022	88.3
-0.0038	-0.0008	0.003	0.0007	88.5
-0.0023	-0.0015	0.003	0.0007	88.5
-0.0008	0	0	0.0022	88.5
-0.0015	0.0007	-0.0015	0.0007	88.5
-0.0023	-0.0008	0.0007	0	88.6
-0.003	-0.0015	-0.0008	-0.0008	88.6
-0.0083	-0.0015	-0.003	-0.0008	88.4
-0.0135	-0.0023	-0.0038	-0.0015	88.6
-0.015	-0.0046	-0.006	-0.0015	88.3
-0.012	-0.003	-0.0046	-0.003	88.6
-0.0091	-0.0015	-0.003	-0.003	88.3
-0.0023	-0.0015	-0.0015	-0.003	88.6
0.0037	-0.003	-0.0008	-0.0038	88.3
0.006	-0.003	-0.0008	-0.003	88.6
0.0015	-0.0008	-0.0008	-0.0008	88.6
-0.0008	0.0007	-0.0015	0.0007	88.4
0.003	0.0022	-0.0008	0.0015	88.4
0.0015	0.003	-0.0023	0.0015	88.4
0.003	0.0022	-0.0008	0.0022	88.3
0.0045	0.0045	-0.0008	0.0022	88.6
0.0052	0.0045	-0.0008	0.003	88.5
0.006	0.0037	-0.0008	0.0052	88.6
0.0052	0.0015	-0.003	0.0052	88.5
0.0075	-0.0015	-0.0015	0.0052	88.6
0.0135	-0.0023	-0.003	0.0052	88.3
0.0105	-0.0023	-0.0015	0.0045	88.4
0.0007	-0.0015	-0.0023	0.0007	88.4
-0.0015	-0.0015	-0.0046	-0.0015	88.5
-0.0046	-0.003	-0.0023	-0.0046	88.4
-0.0105	-0.003	-0.0015	-0.0053	88.5
-0.012	0.0007	-0.0008	-0.0038	88.5
-0.0098	0.003	-0.003	-0.0023	88.5
-0.0068	0.0045	-0.0015	-0.003	88.5
0	0.0052	-0.0038	-0.003	88.5
0.009	0.006	-0.0015	-0.0015	88.4
0.0157	0.0052	0.0015	-0.0023	88.3
0.0157	0.0015	0.0015	-0.0046	88.6
0.0142	0	0.0045	-0.0068	88.5
0.0112	-0.0008	0.003	-0.0075	88.3
0.0112	-0.0023	0.0045	-0.0068	88.4
0.0075	-0.0023	0.0082	-0.003	88.2
0.0037	0	0.009	0.0015	88.5
0.003	0.0007	0.0082	-0.0113	88.3
-0.0015	0.0015	0.0067	-0.0285	88.4
-0.0068	-0.0008	0.0075	-0.042	88.2
-0.0143	-0.0068	0.0052	-0.0503	88.6
-0.0181	-0.0105	0.0037	-0.0361	88.2
-0.0218	-0.0113	0.0052	-0.0293	88.3
-0.0181	-0.0091	0.0067	-0.0135	88.3
-0.012	-0.0083	0.0045	0.0262	88.2
-0.0038	-0.0113	0.0037	0.0465	88.2
0.003	-0.0158	0.0052	0.0757	88.2
0.0067	-0.0128	0.003	0.099	88.2
0.0067	0.0052	0.003	0.084	88.2
0.003	0.0217	0.0022	0.054	88.2
0.0015	0.0255	0.0007	0.0255	88.2
0	0.0172	0.0007	-0.0053	88
-0.0008	0.015	-0.0008	-0.0218	88.2
-0.003	0.0157	-0.0023	-0.0105	88
-0.0015	0.0105	-0.0046	-0.0075	88.2
-0.0023	0.006	-0.003	-0.0113	88
-0.003	0.0022	-0.0046	-0.015	88.1
-0.0023	0.0007	-0.0053	-0.0128	88
-0.0038	-0.0015	-0.0046	-0.0105	88.1
-0.0046	-0.0038	-0.0046	-0.0105	87.9
-0.0015	-0.003	-0.0038	-0.0075	88
0.0007	-0.0015	-0.003	-0.0098	88
0.0007	-0.0023	-0.003	-0.0068	87.9
0	-0.0023	-0.0008	-0.006	87.8
-0.0023	-0.0023	-0.0008	-0.0053	87.8
-0.0015	-0.003	0	-0.0046	87.9
-0.0015	-0.003	-0.0008	-0.0053	87.8
-0.0008	-0.0046	-0.0015	-0.006	87.9
0.0007	-0.0068	-0.0008	-0.0075	87.7
0.0007	-0.0068	-0.0046	-0.0068	87.9
0.0007	-0.0046	-0.0053	-0.0046	87.7
0.0007	-0.0053	-0.006	-0.003	87.7
0.0007	-0.0053	-0.0053	-0.003	87.7
0.0007	-0.0023	-0.003	-0.003	87.7
0.0052	-0.0008	-0.003	-0.0046	87.8
0.0097	-0.0008	-0.003	-0.0053	87.7
0.003	-0.0023	-0.0038	-0.0046	87.7
0	-0.0008	-0.0053	-0.0038	87.7
0.0142	0.0022	-0.0053	-0.0023	87.7
0.021	0.003	-0.0023	-0.0023	87.6
0.0135	0.0015	0.0007	0	87.5
0.0075	0.0007	0.0007	0	87.6
0.003	0.0015	0.0015	0.0015	87.5
-0.0068	0.0015	0	0.0015	87.6
-0.0091	0.0007	0.0007	0.0015	87.4
-0.0105	0	0.0015	0.0007	87.5
-0.012	-0.0008	0.0015	0.0015	87.5
-0.012	0.0007	0.0015	0.0015	87.5
-0.0105	-0.0015	-0.0023	0.0007	87.4
-0.0098	-0.003	-0.0046	0.0022	87.4
-0.0091	-0.003	-0.0053	0.0022	87.5
-0.0083	-0.003	-0.0068	0.0022	87.2
-0.0091	-0.0008	-0.0075	0.003	87.5
-0.006	-0.0008	-0.0046	0.0015	87.3
-0.0046	-0.0008	-0.0023	0	87.3
-0.003	-0.0008	0	0.0007	87.3
-0.003	0.0015	0.0015	0.0015	87.2
-0.003	0.0015	0.0007	0.0015	87.3
-0.0008	0.0007	0.0007	0.0007	87.3
0.0022	0.003	0.003	0	87.4
0.0015	0.003	0.0052	-0.0008	87
0	0.0022	0.006	-0.003	87.2
0.0007	0.003	0.0052	-0.003	87.1
-0.0008	0.0037	0.0045	-0.0008	87.3
-0.0038	0.0037	0.0015	0	87.2
-0.0053	0.003	0	0	87.2
-0.0046	0.003	-0.0015	0.0015	87.2
-0.0046	0.0022	-0.003	0.0022	87.1
-0.0053	0.0015	-0.003	0.0022	87.2
-0.0053	0.0007	-0.003	0.003	87.2
-0.0015	0.0007	-0.003	0.003	87.3
0.0007	0.0007	-0.0023	0.0015	87.2
-0.0015	-0.0008	-0.0046	0.003	87.1
0.0007	-0.0008	-0.0053	0.0015	87.4
0	-0.0008	-0.0068	0.0007	87.2
0.0022	-0.0015	-0.0083	0	87.3
0.0067	-0.0008	-0.0068	-0.0008	87.1
0.0045	-0.0008	-0.0075	0.0015	87.3
-0.0008	0.0007	-0.0053	0.0015	87.2
-0.003	-0.0008	-0.0046	0.0007	87.5
-0.0038	-0.0008	-0.0046	0.0007	87.3
-0.0038	0	-0.0015	0.0007	87.5
-0.003	0.0007	-0.003	0.0007	87.3
-0.0008	0	-0.0008	-0.0015	87.5
0.0007	-0.0008	0.0015	-0.0008	87.5
0.0015	0.0007	-0.0008	-0.0008	87.6
0.003	-0.0008	-0.0008	-0.0015	87.5
0.0045	-0.0015	-0.0015	-0.0015	87.6
0.003	0.0007	0.0007	-0.0008	87.5
0.0045	0.0007	0.0015	-0.0008	87.6
0.0067	-0.0015	0.0015	-0.0008	87.6
0.009	-0.0008	0.0015	-0.0015	87.7
0.0105	-0.0008	0.0007	-0.0008	87.7
0.0105	-0.0008	0.0007	-0.0008	87.7
0.009	-0.0008	0	0	87.7
0.0052	-0.0008	-0.0008	0.0015	87.9
0.0045	0.0007	-0.0023	0.0022	87.8
0.0045	0.0015	-0.0015	0.0022	87.9
0.0052	0.0007	0.0007	0.0015	87.8
0.0045	-0.0008	0.0052	0.0015	88
0.0007	-0.0015	0.006	0.0015	87.7
-0.0008	0	0.003	0.0015	88
0.0007	0	0.003	0.0015	88
0.0007	-0.0008	0.003	-0.0015	87.8
0.0022	0.0007	0.003	-0.0008	88
0.0007	0.0007	0.0015	-0.0015	88
0	0.0007	-0.0008	-0.003	88
0.0007	0.0007	0.0007	-0.0023	88
0	-0.0008	0.0015	-0.003	88.2
0.0022	0	0.0015	-0.0008	88
0.0037	0	0.0007	-0.0008	87.9
0.0015	-0.0015	-0.0008	0.0007	88.1
-0.0008	-0.0008	-0.0015	0.0007	88.1
-0.0038	-0.0008	-0.0046	0	88.2
-0.003	-0.0023	-0.0038	-0.0008	87.8
-0.003	-0.0038	-0.0038	-0.0008	88.1
-0.0008	-0.003	-0.0053	-0.0015	87.9
0.0022	-0.003	-0.0053	-0.003	88.1
0.003	-0.0015	-0.0046	-0.0008	88
0.0045	-0.0015	-0.0053	0	88.2
0.006	-0.0023	-0.0046	0	88
0.0052	0	-0.003	0.0015	88
0.0007	0.0015	-0.003	0.0007	88.2
-0.0046	0.0015	-0.0023	-0.0008	87.9
-0.0046	0.0015	-0.0008	-0.0015	88.1
-0.0015	0.0015	-0.0008	-0.0008	88.1
0.0007	0.0007	-0.0008	-0.0008	88.2
0.0007	0.0007	0	-0.0008	88.1
0.0015	0.0007	0.0022	-0.0015	88
0.0007	-0.0008	0.0037	-0.0008	88
-0.0023	-0.0015	0.006	-0.0015	88
-0.0023	-0.0015	0.0075	-0.0023	88
-0.0015	-0.0015	0.0067	-0.0008	88
-0.0023	-0.0015	0.0067	-0.0015	88
-0.003	-0.0008	0.009	0	88.1
-0.0008	0.0007	0.009	0.0007	88
0.0022	0.0015	0.009	0.0007	88.1
0.006	0.0007	0.0082	0.0007	87.9
0.0067	0.0007	0.0067	0	87.9
0.003	0.0015	0.0082	-0.0008	87.8
0.003	0.0015	0.0067	-0.0015	88.2
0.0007	0	0.0082	-0.0008	87.9
-0.0015	-0.0015	0.0067	-0.0008	88.1
-0.003	0.0007	0.0052	-0.0008	87.9
-0.0068	0.0007	0.006	0.0007	88
-0.0091	-0.0015	0.0067	0.0007	87.9
-0.0068	-0.0015	0.0067	0.0007	88
-0.003	-0.0023	0.0052	-0.0008	87.8
-0.0008	-0.0023	0.0045	0.0007	87.9
0.0015	-0.0015	0.006	0.0007	87.9
0.0045	0	0.006	0	87.9
0.0037	0.0015	0.006	-0.0008	87.9
0.0045	0.0015	0.0045	-0.0008	88
0.003	0.0015	0.0045	0.0007	88
0.003	0.0015	0.003	-0.0008	87.9
0.0015	0.0007	0.0015	0.0007	88
-0.0008	-0.0015	0.0037	0.0015	87.9
-0.0008	-0.0008	0.0022	0.003	87.8
-0.0008	-0.0008	0.0015	0.0015	87.9
-0.0023	0	0.003	0.0007	87.7
-0.0023	0	0.0015	0.0015	87.9
0.0007	-0.0015	-0.0015	0.0007	87.7
0.0007	0	-0.0015	0.0007	87.7
0.0007	0	-0.0015	0.0007	87.8
0.0007	-0.0015	-0.0046	0	87.9
0.0015	-0.0008	-0.0053	-0.0008	87.9
0.003	-0.0008	-0.0053	-0.0015	87.7
0.003	0.0007	-0.003	-0.0015	87.8
0.0037	0.0007	-0.003	0.0007	87.9
0.003	0	-0.003	0	87.8
0.0015	0.0007	-0.0038	-0.0008	87.7
0.0022	0.0007	-0.0053	-0.0008	87.7
0.003	0.0007	-0.0023	0	87.7
0.0045	0.0007	-0.003	-0.0015	87.7
0.0052	0.0015	-0.0046	-0.0015	87.7
0.0075	0	-0.0038	-0.0015	87.7
0.0052	0	-0.003	-0.0015	87.7
0.003	0	-0.003	-0.0008	87.7
0.003	-0.0008	-0.0038	0	88
0.0007	0	-0.0046	0.0015	87.8
-0.0015	0.0007	-0.0053	0.0022	87.8
-0.003	0.0007	-0.0068	0.003	87.7
-0.003	0.0007	-0.0075	0.003	87.6
-0.0038	0.0007	-0.0083	0.0022	87.7
-0.003	0	-0.0083	0.0015	87.7
-0.0046	0.0015	-0.0068	0.0007	87.7
-0.003	0.0007	-0.0053	0	87.6
-0.0015	-0.0008	-0.0083	-0.0008	87.7
-0.0015	0	-0.0083	-0.0008	87.7
-0.0008	0	-0.0083	-0.0015	87.7
0.0007	-0.0008	-0.0083	-0.0015	87.7
-0.0023	-0.0008	-0.0075	-0.0015	87.7
-0.0015	-0.0008	-0.0068	-0.0015	87.7
-0.0008	-0.0015	-0.0038	-0.0015	87.7
-0.0008	-0.0015	-0.0046	-0.0008	87.7
0	-0.0008	-0.0068	-0.0008	87.7
-0.0015	0.0007	-0.0068	-0.0023	87.7
-0.0015	0.0007	-0.006	-0.003	87.8
-0.0023	0.0007	-0.0053	-0.0015	87.7
-0.0038	0.0015	-0.006	0.0015	87.7
-0.0015	-0.0008	-0.006	0.0015	87.7
-0.0023	0	-0.0053	0.003	87.8
-0.0023	-0.0008	-0.0068	0.003	87.6
-0.0015	0	-0.006	0.0015	87.7
-0.0023	-0.0008	-0.003	0.0015	87.7
-0.0046	-0.0008	-0.0015	0.0015	87.8
-0.003	-0.0008	-0.0015	0.0007	87.5
-0.0015	0	-0.0008	0.0007	87.8
-0.0008	0.0007	0	0.0015	87.6
0.0007	-0.0008	0.0015	0.0007	87.8
0.0007	-0.0008	0.0022	0	87.6
-0.0008	-0.0015	0.0007	-0.0008	87.7
0.0007	-0.0008	0.0037	-0.0015	87.6
0.0015	-0.0015	0.0045	-0.0008	87.7
0.0015	-0.0015	0.003	-0.0015	87.6
0.0015	0	0.003	-0.0015	87.6
0.0015	0.0007	0.0037	-0.0008	87.7
0.0007	0.0015	0.0037	-0.0015	87.6
-0.0008	0.0015	0.0045	-0.0015	87.7
-0.0015	-0.0008	0.0052	-0.0008	87.5
-0.003	-0.003	0.0045	-0.0008	87.5
-0.0008	-0.0015	0.0052	-0.0015	87.5
0.0007	-0.0015	0.0045	0.0007	87.6
-0.0008	-0.0008	0.0075	0.0007	87.5
-0.0008	0.0007	0.0105	-0.0008	87.6
-0.0015	0.0007	0.0105	0.0007	87.5
-0.0008	0.0015	0.0105	0	87.5
-0.0008	0	0.0082	0	87.4
0.0007	-0.0015	0.009	-0.0008	87.3
0.0015	-0.003	0.0097	0.0007	87.6
0.0007	-0.003	0.0082	0.0007	87.5
0	-0.003	0.009	-0.0008	87.5
-0.0008	-0.0015	0.009	-0.0015	87.5
0	-0.0008	0.0045	-0.0015	87.4
0.0007	-0.0008	0.0052	-0.0015	87.4
0	-0.0008	0.0037	-0.0008	87.4
0	-0.0008	0.0022	0.0007	87.3
0.0007	0.0007	0.003	0.0022	87.2
-0.0008	0.0022	0.003	0.0015	87.1
-0.0015	0.003	0.003	0.0007	87.4
-0.0015	0.0022	0.0015	0.0007	87.2
0.0007	0.0007	0.0015	0	87.4
0.0015	0.0007	0.0015	0.0015	87.2
0.0007	0.0007	0.0007	0.0015	87.3
0.0015	0	0.0015	0.0022	87.2
0	0.0007	0.0007	0.0022	87.3
-0.0008	0.0007	-0.0008	0.0015	87.2
0	0.0015	0.0022	0.0015	87.2
-0.0008	0.0007	-0.0008	0.0007	87.2
0.0007	-0.0015	-0.003	0.0007	87.1
0.003	0.0007	-0.003	0.0007	87.2
0.003	0.0007	-0.003	-0.0015	87.1
0.003	0.0007	-0.0015	-0.0008	87.1
0.0015	0	-0.0023	0	87.1
0.003	0.0007	-0.0046	0	87
0.0067	0.0007	-0.0053	0.0015	86.8
0.0052	0	-0.0075	0	86.9
0.006	0.0007	-0.0091	-0.0015	87
0.0052	-0.0015	-0.0075	0.0015	86.9
0.0015	-0.0015	-0.0068	0.0007	86.9
0.0037	0	-0.006	0.0007	86.9
0.003	0	-0.0053	0.0007	86.8
0.0007	0.0007	-0.0083	0.0015	86.8
-0.0023	0.0007	-0.0083	0.0007	86.8
-0.003	-0.0008	-0.0098	0.0022	86.8
-0.0046	-0.0008	-0.012	0	86.7
-0.0068	0	-0.0105	0	86.8
-0.006	-0.0008	-0.0083	0.0015	86.6
-0.0046	0.0007	-0.0083	0.0022	86.8
-0.0038	0.0007	-0.0091	0.0022	86.7
-0.0046	-0.0008	-0.0083	0.0007	86.7
-0.006	-0.0008	-0.0091	0	86.6
-0.006	-0.0008	-0.0068	0	86.6
-0.0015	-0.0015	-0.0053	-0.0008	86.6
-0.0015	-0.0008	-0.0023	-0.0008	86.7
-0.0015	0.0007	-0.0008	-0.0008	86.8
-0.0015	0.0007	-0.0008	-0.0015	86.6
-0.003	-0.0008	-0.0008	-0.0023	86.5
-0.0023	-0.0008	0.0015	-0.0015	86.5
-0.0038	-0.0008	0.003	-0.0008	86.6
-0.006	0	0.0015	-0.0008	86.5
-0.0053	0.0007	0.0015	-0.0015	86.6
-0.0068	-0.0008	0.0015	-0.0015	86.5
-0.0075	-0.0008	0.0007	-0.0008	86.4
-0.0075	-0.0008	0.0015	0	86.5
-0.0068	-0.0015	0.0007	0.0015	86.4
-0.0068	-0.0015	-0.0023	0.0015	86.4
-0.0068	-0.0015	-0.0023	0.0007	86.3
-0.0053	-0.0015	-0.0015	0.0007	86.6
-0.0038	-0.0023	-0.0015	0	86.3
-0.0015	-0.0008	-0.0015	-0.0008	86.4
-0.0023	0.0007	-0.003	-0.0008	86.3
-0.0038	0.003	-0.0015	-0.0008	86.3
-0.0038	0.0037	-0.0015	-0.0023	86.3
-0.0053	0.003	-0.0008	-0.0015	86.3
-0.0053	0.0052	0.0007	0	86.3
-0.0015	0.0067	0.0015	-0.0008	86.2
0.0015	0.0052	0.0015	0.0007	86.2
0.003	0.0045	0.0015	0.0015	86.3
0.0015	0.0015	0.0037	0.0007	86.2
-0.0023	0.0015	0.0045	-0.0008	86.3
-0.0046	0.0007	0.003	-0.0015	86.2
-0.0075	0.0015	0.0007	-0.003	86.3
-0.012	0.0007	0.0007	-0.003	86.2
-0.0165	-0.0015	-0.0008	-0.0023	86.3
-0.0203	-0.0015	-0.0023	-0.0023	86
-0.0165	-0.0015	-0.0015	-0.0015	86.1
-0.0098	-0.0008	-0.0023	-0.0008	86
-0.0046	-0.0015	-0.0008	-0.0015	86.2
0.0007	-0.0023	0	-0.003	86
0.0142	-0.0015	0.0007	-0.0008	86
0.0105	-0.0015	0.0007	-0.0015	86
-0.0225	0	0.0015	-0.0015	86
-0.027	0	0.0022	-0.0008	86.3
0.0202	-0.0015	0.0037	-0.0015	85.9
0.1545	-0.0015	0.0037	-0.0015	86
0.3105	-0.0008	0.0015	-0.0008	85.9
0.2332	-0.0008	0.0015	-0.0008	85.9
0.0705	0	0.003	-0.0008	86
0.018	0	0.0037	-0.0008	85.8
-0.0488	-0.0008	0.0007	-0.0015	86
-0.0675	0.0007	0.003	0	85.9
-0.0706	0.0007	0.003	0.0007	85.9
-0.063	0	0.003	0.0015	85.7
-0.0555	0	0.0045	0.0007	85.9
-0.0668	0.0007	0.0015	-0.0008	85.9
-0.0525	0.0007	0.003	0.0015	85.9
-0.0548	0.0007	0.0022	0	85.9
-0.0443	0.0015	0.0007	-0.0008	85.8
-0.0428	0.0007	0	-0.0008	85.9
-0.0375	0.0007	0.0007	0.0007	85.7
-0.033	0.0015	0.0015	0.0007	85.9
-0.0315	0.0015	-0.0008	-0.0008	85.7
-0.0225	0.0007	-0.0008	0	85.9
-0.0203	-0.0008	0.0007	0	85.6
-0.015	-0.0008	0.0015	0	85.7
-0.012	-0.0008	-0.0015	-0.0008	85.7
-0.0053	-0.003	-0.0015	0	85.7
-0.0023	-0.0015	-0.0008	-0.0015	85.7
0.0007	0	-0.0015	-0.0008	85.8
0.0022	0	-0.0015	0.0015	85.7
0.0052	-0.0015	-0.0015	0.0007	85.7
0.0067	-0.003	-0.0008	0.0007	85.6
0.0052	-0.0023	-0.0008	-0.0008	85.7
0.0082	-0.0015	-0.0008	-0.0015	85.8
0.0105	0	-0.0015	-0.0015	85.7
0.012	0.0015	-0.003	-0.0023	85.7
0.009	0.0007	-0.0038	-0.0015	85.7
0.0097	0.003	-0.0053	0	85.7
0.0105	0.0022	-0.0053	0	85.9
0.0082	0.0022	-0.0068	-0.0015	85.5
0.0105	0.0015	-0.0083	-0.0008	85.8
0.009	0.0007	-0.0075	0	85.7
0.0082	0.003	-0.0083	0.0007	85.6
0.009	0.0007	-0.0083	0.0007	85.6
0.009	-0.0008	-0.0083	0.0007	85.6
0.0067	-0.0008	-0.0046	0	85.7
0.0082	0.0015	-0.0023	-0.0008	85.7
0.0097	0.0015	-0.003	0	85.7
0.0097	-0.0008	-0.003	-0.0008	85.7
0.009	0	-0.0015	0.0007	85.6
0.0052	0	0.0015	-0.0008	85.7
0.0052	0	0.0007	-0.0015	85.6
0.0052	0	0.0015	-0.0015	85.6
0.0045	-0.0008	0.003	-0.0015	85.6
0.0037	-0.0008	0.0052	-0.0008	85.8
0.0045	-0.0008	0.0045	0	85.7
0.0037	-0.0023	0.0022	-0.0008	86
0.003	-0.0023	0.003	-0.0008	85.6
0.0052	-0.0008	0.003	0	85.8
0.0022	0.0007	0.0022	-0.0008	85.6
0.0015	-0.0008	0.0015	0.0007	85.6
0	-0.0008	0.0015	0.0007	85.8
0.0022	-0.0008	0.0015	0.0007	85.7
0.003	0	0.003	0.0007	85.7
0.0015	-0.0008	0.003	0.0007	85.9
0.0022	0	0.0015	0.0015	85.7
0.0007	0.0007	0.003	0.0007	85.6
-0.0008	0.0007	0.0045	0.0007	85.8
-0.0015	0	0.0052	0.0007	85.8
-0.0008	-0.0015	0.0067	0.0015	85.7
-0.0015	-0.0015	0.006	0	85.8
-0.0015	-0.0023	0.0082	-0.0008	85.8
-0.003	-0.0023	0.006	0.0007	85.9
-0.0015	-0.0015	0.0015	0.0007	85.7
-0.0015	-0.0015	0	-0.0008	85.9
-0.0015	0	0	-0.0008	85.7
0.0007	0.0007	0.0022	0.0007	85.9
-0.0008	0.0007	0.0045	0.0007	85.8
-0.003	0.0015	0.0045	0.0015	85.7
-0.003	0.0007	0.0052	0.0015	85.8
-0.0023	0	0.003	0.003	85.8
-0.0038	-0.0008	0.0007	0.0015	85.9
-0.0046	0.0007	-0.0008	0.0007	85.7
-0.0038	-0.0008	-0.0023	0.0022	86
-0.0046	-0.0015	-0.0023	0.0007	85.7
-0.0053	-0.0015	-0.0023	0.0007	85.9
-0.003	-0.0015	-0.0023	0.0007	85.8
-0.003	-0.0008	-0.0015	0.0007	85.9
-0.0038	-0.0008	0	0.0007	85.8
-0.0038	-0.0015	0.0015	0.0015	85.9
-0.0038	-0.0023	-0.0008	0.0007	85.9
-0.003	-0.0008	0.0007	-0.0008	85.9
-0.0038	-0.0015	0.0022	0.0007	85.9
-0.003	-0.0008	0.003	-0.0008	85.8
-0.0023	0.0007	0.003	0.0007	85.8
-0.0023	0.0022	0.0015	0.0007	85.8
-0.0015	0.0015	0.0007	0	85.9
0	0	0	0.0007	85.9
0.0015	0.0015	0.0015	-0.0008	85.8
0.0022	0.0015	0.0007	-0.0008	85.9
-0.0008	0.0007	0.0007	0	85.9
-0.0008	0.0015	0.003	0	85.9
-0.0015	0.0015	0.0007	0	85.9
-0.0008	0.0007	-0.0008	-0.0008	85.9
0.0015	0.0022	-0.0015	-0.0008	85.8
0.0015	0.0015	-0.0038	-0.0015	85.9
0.003	0.0007	-0.003	-0.0008	85.9
0.003	0.0007	-0.0023	-0.0008	85.9
0.0037	-0.0008	-0.0053	-0.0008	85.9
0.003	-0.0008	-0.003	0	85.7
0.003	-0.0008	-0.0015	0	85.9
0.0037	0.0007	-0.0038	0.0007	85.9
0.0052	0.003	-0.003	0.0007	85.9
0.0052	0.0022	-0.0015	0.0015	86
0.0045	0.0007	0.0007	0.0015	85.8
0.0037	0	0.0007	0.0015	85.9
0.0037	0.0007	0.0015	0.0015	85.8
0.003	-0.0008	0	0.0007	85.9
0.0015	0.0007	-0.0015	0.0015	85.8
0.0015	0.0015	-0.0008	0	86
0.0015	0.0015	-0.0015	-0.0015	85.8
0.003	0.0007	-0.0015	-0.0008	86
0.0037	0.0007	-0.0038	0.0015	85.9
0.003	-0.0008	-0.003	0	85.9
0.0045	-0.0008	-0.0015	0	85.9
0.003	-0.0008	-0.0038	0.0007	85.9
0.0015	-0.0008	-0.0023	0.0007	85.9
0.0007	-0.0008	-0.0015	-0.0008	85.8
-0.0008	-0.0008	-0.003	-0.0015	86
-0.0008	-0.0008	0.0007	-0.0008	85.9
-0.0008	0.0007	0.0015	-0.0008	85.9
-0.0023	0.0007	-0.0008	-0.0015	85.8
-0.003	0.0007	0.0007	-0.0015	85.7
-0.0038	0	0	-0.0015	85.9
-0.0023	-0.0008	0.0007	-0.0015	85.7
-0.0008	-0.0015	0.0007	-0.0008	85.8
-0.0015	-0.0015	-0.0008	0.0007	85.7
-0.0023	-0.0015	-0.0008	0.0015	85.9
-0.0023	-0.0023	0.0007	0.0007	85.7
-0.0015	-0.0023	0.0015	0.0015	85.8
-0.0008	-0.0023	-0.0008	0.0007	85.7
-0.003	-0.0038	-0.0015	0.0007	85.8
-0.0015	-0.003	-0.0023	0.0015	85.8
0	-0.0015	-0.0038	0.0007	85.7
-0.0015	-0.0008	-0.003	0.0007	85.7
-0.0023	0	-0.0008	-0.0008	85.7
-0.0023	0	0.0007	-0.0015	85.9
-0.0008	0.0015	-0.0008	0.0007	85.7
-0.0015	0.0015	-0.003	-0.0008	85.9
-0.0008	0.0015	-0.0046	-0.0008	85.8
-0.0008	0.0007	-0.003	-0.0008	85.9
-0.0015	0	-0.0038	-0.0008	85.7
-0.0015	0	-0.003	-0.0008	85.7
-0.0015	-0.0015	-0.0015	-0.0015	85.8
-0.0015	0	-0.0038	0.0007	85.7
-0.0008	0	-0.0038	0	85.8
-0.0015	-0.0015	-0.0038	0	85.6
-0.0015	-0.0015	-0.0046	0.0015	85.8
-0.0008	0	-0.006	-0.0008	85.7
-0.0008	0	-0.0046	0	85.7
-0.0015	-0.0008	-0.0015	-0.0008	85.7
-0.0015	0.0007	-0.0046	-0.0008	85.7
-0.0015	0.0007	-0.003	-0.0008	85.7
0	0.0015	-0.0015	-0.0015	85.7
-0.0008	0.0007	-0.0008	-0.0008	85.7
-0.0008	-0.0015	-0.0008	-0.0008	85.6
-0.0008	-0.0015	-0.003	-0.0008	85.6
-0.0015	-0.0023	-0.003	-0.0015	85.7
-0.0008	-0.0023	-0.0015	-0.0015	85.5
-0.0023	-0.0008	-0.0008	-0.0015	85.7
-0.003	-0.0008	-0.0008	-0.0023	85.5
-0.003	-0.0008	-0.0015	-0.0015	85.8
-0.0015	-0.0015	-0.0015	-0.0015	85.5
-0.0008	-0.0008	-0.0023	-0.0008	85.7
0.0007	0	-0.0015	-0.0008	85.5
0.0022	-0.0015	-0.0008	-0.0008	85.8
0.0007	-0.003	0.0007	0.0007	85.7
0.0007	-0.0038	0.0015	0	85.6
0.0015	-0.0023	0.0022	0	85.7
0.0007	0	0.003	-0.0008	85.7
0.0015	-0.0015	0.0015	-0.0015	85.6
0.0022	-0.0015	0.003	-0.0023	85.6
0.003	-0.0015	0.0015	-0.0015	85.6
0.0007	0	0.0015	-0.0008	85.8
0.0007	0.0022	0.0037	0	85.5
0.0015	0.003	0.0015	-0.0008	85.8
0.0015	0.0015	0	-0.0008	85.5
0.0022	0.0015	0.0015	-0.0008	85.9
0.003	0.0015	0	-0.0015	85.5
0.0015	0.0015	-0.003	-0.0008	85.7
0.0015	0.0022	-0.0015	-0.0015	85.6
0	0.0007	0.0007	0	85.7
0.0007	-0.0008	0.0015	0.0007	85.6
0	0.0007	0.0015	0.0015	85.5
-0.0008	-0.0008	0.0015	0.0015	85.7
0	0.0015	0.0007	0.0007	85.6
-0.0008	0.0015	0.0007	0.0007	85.7
0.0007	0	0.0022	-0.0008	85.6
0.0007	0.0007	0.0015	0.0015	85.7
0	0	0	0.0022	85.7
0	0	0.0007	0.0015	85.7
0.0007	-0.0008	0.0007	0.003	85.6
0.0015	-0.0008	-0.0008	0.0037	85.5
0.0015	0.0022	0.0007	0.0037	85.7
0.0022	0.0022	0.0007	0.003	85.5
0.0045	0.0015	0.0007	0.003	85.7
0.0045	0.0015	0.0015	0.0015	85.7
0.0045	-0.0015	0.0015	0.0007	85.6
0.003	-0.0015	0.003	0.0015	85.7
0.003	-0.0015	0.0015	0.0007	85.7
0.0015	-0.0015	0.0015	0.0007	85.7
0.003	0.0007	0.0015	-0.0008	85.6
0.0022	0.0007	0.0015	-0.0008	85.6
0.0015	0.0007	0.003	-0.0008	85.5
0.0015	0.0015	0.0022	-0.0015	85.5
0.0015	0.0015	0.0015	-0.0015	85.5
0.0015	0.0015	0.003	-0.0008	85.7
0.0015	0.0037	0.0045	0	85.6
0.0015	0.0037	0.003	0	85.6
0.0007	0.003	0.0015	0	85.7
-0.0008	0.0022	-0.0008	-0.0008	85.5
-0.0015	0.0015	-0.0008	-0.0008	85.7
-0.0023	0.0022	-0.0008	0.0007	85.6
-0.0015	0.0007	-0.0015	0	85.7
-0.003	0.0007	-0.003	-0.0008	85.5
-0.0023	0.0007	-0.0046	0	85.6
-0.0015	0	-0.0023	0.0007	85.6
0	0	0	-0.0008	85.5
-0.0008	-0.0015	0	0	85.7
-0.0015	-0.0015	0.0015	0.0007	85.6
-0.0008	-0.0015	0.0007	0.0007	85.8
-0.0008	-0.0015	0	0	85.5
0.0015	-0.0015	-0.0008	-0.0008	85.7
0.0007	-0.0008	-0.0008	-0.0008	85.6
0.0015	-0.0008	-0.0015	-0.0008	85.7
0.0007	0	-0.0008	-0.0008	85.6
-0.0008	-0.0015	-0.0008	-0.0008	85.7
0.0007	-0.0008	-0.003	-0.0008	85.6
0.0007	0.0007	-0.003	0.0007	85.6
0.0007	0.0007	0	0.0007	85.7
0.0015	0.0007	0.0007	0.0022	85.7
0.0007	-0.0008	0.0007	0.0015	85.6
-0.0008	-0.0008	-0.0008	0.0007	85.6
-0.0015	-0.0015	-0.0015	0.0007	85.5
-0.0008	-0.0023	-0.0008	0.0007	85.6
-0.0015	-0.003	-0.0015	0	85.5
-0.003	-0.003	-0.0015	0.0007	85.8
-0.0015	-0.0023	-0.0008	0.0015	85.5
-0.0008	-0.003	-0.0015	0.0007	85.8
-0.0008	-0.0008	-0.0015	0.0015	85.6
-0.0008	0.0007	-0.0015	0.0015	85.7
-0.0015	0.0007	0.0007	0.0022	85.6
-0.0015	0.0007	0.0007	0.0015	85.8
-0.0023	0.0015	0.0015	0.0022	85.8
-0.003	0.0022	0.0015	0.0007	85.7
-0.0008	0.0007	0.0007	0.0007	85.5
-0.0008	0.0007	0.003	0.0007	85.6
-0.0023	0	0.0015	-0.0008	85.7
-0.0008	-0.0008	-0.0015	-0.0008	85.5
0.0007	0	-0.0008	-0.0015	85.7
0.0007	-0.0008	-0.0008	-0.0015	85.7
0.0007	-0.0008	0.0022	-0.0015	85.7
-0.0008	-0.0008	0.0022	-0.0008	85.6
-0.0008	-0.0008	0.0007	-0.0015	85.5
0	-0.0008	0	0	85.7
-0.0023	0	-0.0008	-0.0008	85.5
-0.003	0	0.0007	-0.0008	85.6
-0.003	-0.0015	-0.0008	-0.0008	85.5
-0.003	-0.0008	-0.0008	-0.0008	85.7
-0.0015	0	0	-0.0008	85.7
-0.0008	0	0	-0.0008	85.5
0.0007	-0.0015	0.003	-0.0015	85.6
0.0007	-0.0015	0.0045	-0.0015	85.7
0.0007	-0.0008	0.0022	-0.0008	85.5
0.0015	-0.0015	0	-0.0008	85.6
0.0007	0	-0.0015	-0.0015	85.7
0.0007	0.0015	-0.0015	0.0007	85.7
0	0.0007	0	0.0015	85.6
-0.0015	-0.0008	0.0007	0.0015	85.7
-0.0023	0.0007	0.0037	0.003	85.7
-0.003	0.0007	0.0052	0.0007	85.7
-0.003	0.0007	0.0022	0.0015	85.5
-0.0015	-0.0008	0.0007	0.0015	85.8
-0.0008	-0.0015	-0.0008	0.0007	85.6
-0.0008	0	-0.0015	0.0007	85.7
0	0.0015	-0.003	-0.0008	85.7
0.0007	0.0015	-0.0023	0	85.6
0.0015	-0.0008	-0.0008	-0.0008	85.5
0	-0.0008	-0.0015	-0.0008	85.5
0.0007	-0.0008	-0.0008	0.0007	85.8
0.0015	0.0007	0.0007	0	85.5
0.0015	0	0.0022	-0.0008	85.6
-0.0008	-0.0023	0.0007	0	85.6
0.0015	-0.003	0.0007	-0.0008	85.5
0.0015	-0.003	0.0022	-0.0015	85.5
0.0007	-0.0023	0.0015	-0.0008	85.6
0.0007	-0.0015	0.0007	-0.003	85.5
0.0015	-0.0015	-0.0008	-0.003	85.6
0.0015	-0.0023	-0.0008	-0.0015	85.6
0.0007	-0.0023	0	-0.0015	85.5
0	-0.0015	-0.003	-0.0008	85.7
0.0007	-0.003	-0.0038	-0.0008	85.4
-0.0008	-0.003	-0.0038	-0.0008	85.5
0.0007	-0.0008	-0.003	-0.0015	85.6
0.0015	0.0007	-0.003	-0.0023	85.7
0.0007	0.0015	-0.0046	-0.0015	85.7
-0.0008	0.0015	-0.003	-0.0015	85.5
0	0	-0.0008	-0.0008	85.7
-0.0008	-0.0008	-0.0015	0	85.5
0.0007	0.0007	-0.0015	-0.0008	85.6
0.0015	0.0007	-0.0038	-0.0008	85.5
-0.0008	0.0007	-0.0023	-0.0015	85.6
-0.0008	0.0007	-0.0008	-0.0008	85.5
-0.0008	0.0007	-0.0008	0	85.5
0	0.0022	-0.0008	0.0007	85.5
0	0.0015	-0.0008	0	85.5
0	0.0007	0.0007	-0.0008	85.7
-0.0015	0.0007	0	0.0015	85.6
-0.0008	0.0007	-0.0008	0.0007	85.6
0	0.0007	0	0	85.5
0.0007	0	0.0015	0	85.5
0.0007	0	0.0015	0.0007	85.6
0.0007	0.0007	0.0007	0.0007	85.5
0	0.0007	0	0.0007	85.6
0	0.0007	0	0.0007	85.5
0.0022	0	0.0007	0	85.7
0.003	0.0007	-0.0008	-0.0015	85.5
0.003	0	-0.0008	0.0007	85.6
0.003	-0.0023	-0.0008	0.0007	85.5
0.0037	0	0.0015	-0.0008	85.5
0.003	0.0007	-0.0008	0	85.5
0.0015	0.0015	-0.0015	0.0015	85.5
0.0015	0.0007	-0.0015	0.0015	85.6
0.003	-0.0008	0	0.0015	85.4
0.0037	-0.0008	0.0015	0.0022	85.4
0.0015	-0.0008	0.0015	0.0015	85.5
0.0015	-0.0008	0.0022	0.0015	85.5
0.0015	0.0007	0.0015	0.0015	85.5
0.0007	0.0007	0.0007	0	85.4
0	0	-0.003	0.0007	85.7
0.0007	0.0015	-0.003	0.0007	85.5
0.0022	0.0015	-0.0046	-0.0008	85.5
0.0007	0.0015	-0.003	0	85.4
0.0007	0.0015	-0.0015	-0.0008	85.6
0.0007	0.0007	-0.0023	-0.0008	85.5
0.0007	0.0007	-0.0015	0.0007	85.5
-0.0008	0.0022	-0.0023	0.0007	85.5
-0.0023	0.0015	-0.003	0.0007	85.5
-0.0046	0.0015	-0.003	0.0007	85.6
-0.0046	0.0015	-0.003	-0.0008	85.4
-0.0046	0.0007	-0.0008	-0.0015	85.5
-0.003	0.0007	-0.0008	-0.0008	85.5
-0.0015	-0.0008	0.0022	-0.0008	85.5
-0.0015	-0.0008	0.0015	-0.0015	85.4
-0.0008	-0.0008	0	-0.003	85.4
0	0.0007	0.0007	-0.0015	85.5
-0.0008	0.0007	-0.0015	-0.0008	85.5
-0.0008	-0.0023	-0.0015	0.0007	85.5
0.0007	-0.0008	-0.0008	-0.0008	85.2
0.0007	-0.0008	0.0007	-0.0015	85.6
0	-0.0008	0.0015	-0.0015	85.3
0.0007	0	0.0007	-0.0015	85.5
0.0015	-0.0008	0.0015	-0.0008	85.4
-0.0008	0.0007	0.0015	0	85.6
-0.0015	0	0.0007	-0.0015	85.5
-0.0008	-0.0008	0.0015	-0.0015	85.5
0	0.0007	0	-0.0008	85.3
0.0007	0.0007	-0.0015	-0.0008	85.5
-0.003	-0.0008	-0.0015	-0.0008	85.3
-0.0015	-0.0008	-0.0008	0	85.4
-0.0015	0	0.0022	-0.0008	85.4
-0.0015	-0.0008	0.003	0	85.5
-0.0008	0.0015	0.0015	0.0007	85.5
-0.0008	0.0015	0.003	-0.0023	85.5
-0.0023	0.003	0.0037	-0.0008	85.4
-0.0038	0.0015	0.0015	-0.0008	85.5
-0.003	0.0007	0.0007	-0.0015	85.5
-0.0015	0.0007	0.0007	-0.0008	85.5
-0.0008	-0.0015	-0.0008	-0.0008	85.4
-0.003	-0.0008	-0.0008	0.0007	85.5
-0.003	-0.0008	-0.0015	0.0007	85.4
-0.003	-0.0008	-0.0015	-0.0015	85.5
-0.0015	-0.0008	-0.003	-0.0015	85.5
-0.0015	-0.0015	-0.0023	0	85.4
-0.0008	0.0007	-0.0015	-0.0008	85.5
0.0015	0.0007	-0.0015	-0.0008	85.5
0.003	-0.0008	-0.0008	-0.0008	85.4
0.003	-0.0008	0	-0.0015	85.5
0.0015	-0.0008	0.0007	-0.0008	85.5
0.0015	-0.0008	0.0007	-0.0015	85.5
0.0037	0.0007	0	0	85.5
0.0045	-0.0008	0.0015	0	85.5
0.0037	-0.0008	0.0015	0	85.2
0.006	-0.0015	-0.0008	0.0007	85.6
0.0045	-0.0008	0.0007	0.0007	85.4
0.003	-0.0008	0.003	0.0007	85.5
0.003	-0.0008	0.003	-0.0008	85.4
0.0015	-0.0008	0.0015	-0.0008	85.5
0.0015	-0.0008	0.0007	-0.0008	85.4
0.0015	0.0007	0	-0.0008	85.5
0.0015	0.0007	-0.0015	-0.0008	85.4
0	0.0015	-0.0008	-0.0008	85.6
-0.0008	0.0015	-0.0008	0	85.5
-0.0008	0	-0.0015	0.0007	85.4
-0.0015	0.0015	-0.0008	0.0015	85.4
-0.0008	0.003	-0.0015	0	85.5
0.0007	0.0007	-0.0015	0.0007	85.4
0.0007	0	-0.0008	0.0007	85.5
0.0015	0.0007	-0.0023	0.0007	85.4
0.0022	0	-0.0023	0	85.5
0.0015	0	-0.0008	-0.0008	85.3
0.0007	0.0007	-0.0008	0.0007	85.5
0	-0.0008	0.0022	0.0015	85.3
-0.0015	-0.0015	0.0015	0.0015	85.6
0.0007	0	0.0007	0.0007	85.4
-0.0008	0.0007	0.0015	0.0007	85.4
-0.0023	0.0007	0.0007	0.0015	85.4
0.0007	0.0015	0.0007	0.0007	85.5
0.0015	0.0022	0	0.0007	85.5
0.0015	0.0007	0.0015	0.0007	85.4
0.0015	0.0007	0.0007	0.0007	85.3
0.0007	-0.0008	-0.0038	0.0007	85.4
0.0007	-0.0008	-0.0046	0.0015	85.4
0.0015	0	-0.003	0.0022	85.4
0.0015	0.0007	-0.0015	0.003	85.3
0.0007	0	-0.0015	0.0015	85.4
0.0007	-0.0008	-0.0008	0.0007	85.4
-0.0008	-0.0008	0.0007	0.0007	85.5
-0.0008	0.0015	-0.0015	0	85.5
-0.0008	0.0007	-0.0008	0	85.5
0	0.0007	0.0007	0	85.5
0	-0.0008	-0.0008	0	85.4
-0.0015	-0.0015	-0.0008	0.0007	85.5
-0.0008	-0.0015	0.0015	0.0022	85.4
0.0007	-0.0015	0.0007	0.0015	85.5
0.0022	-0.0015	0.0015	0.0007	85.4
0.003	-0.003	0	0.0015	85.5
0.0015	-0.003	0	0.0015	85.5
-0.0008	-0.0015	0	0.0022	85.4
-0.0015	0	-0.0015	0.0015	85.5
0.0007	0.0007	-0.0015	0.0007	85.3
0.0225	-0.0008	-0.0015	0.0007	85.6
0.0787	0	-0.0008	-0.0008	85.4
0.0997	-0.0008	0.0015	0.0015	85.5
0.0502	-0.0008	0.0022	0.0022	85.4
0.0172	-0.0008	0.0007	0.0015	85.5
-0.012	-0.0008	-0.0008	0.0007	85.4
-0.0361	0.0007	-0.0015	0.0015	85.5
-0.0346	0.0007	0.0007	0.0015	85.3
-0.0413	0.0007	0.0015	0	85.5
-0.042	0.0007	0.0007	-0.0008	85.5
-0.0405	0.0015	0.0015	0	85.3
-0.039	0	0.0007	0.0007	85.3
-0.0315	-0.0008	-0.0008	-0.0015	85.4
-0.0293	-0.0008	0.0007	-0.0015	85.4
-0.0278	-0.0015	0	-0.0008	85.3
-0.0233	-0.0008	0.0007	-0.0008	85.3
-0.0203	-0.0015	-0.0008	-0.0008	85.5
-0.0195	0	0.0007	0	85.4
-0.0143	-0.0008	0.0007	-0.0008	85.4
-0.0128	0	0	-0.0015	85.3
-0.0083	0.0015	0.0015	0	85.5
-0.0053	0.0007	0.0015	-0.0008	85.3
-0.0038	0.0007	0.003	-0.0023	85.4
0	0.0007	0.0037	-0.0023	85.4
0.0015	0.0022	0.003	-0.0023	85.5
0.003	0.0015	0.0007	-0.0023	85.4
0.0052	0	0.0007	-0.0015	85.2
0.0037	0.0007	0.0022	0.0007	85.3
0.006	0.0015	0	-0.0008	85.3
0.0067	0.0007	-0.0008	-0.0015	85.2
0.006	0.0007	0	-0.0015	85.3
0.0075	-0.0008	-0.0015	-0.0008	85.2
0.0082	-0.0008	-0.0015	0	85.4
0.0067	0.0007	-0.003	0.0015	85.4
0.0075	0.0007	-0.0038	0.0007	85.5
0.006	0.0007	-0.0046	0.0015	85.3
0.0045	0	-0.0046	0.0007	85.3
0.0052	0.0007	-0.0038	0.0007	85.2
0.0045	0.0007	-0.0038	0.0007	85.2
0.006	0	-0.003	0.0007	85.4
0.0067	-0.0015	-0.0023	-0.0008	85.2
0.006	-0.0023	-0.0015	-0.0015	85.3
0.0067	-0.0015	-0.0008	-0.0015	85.2
0.0067	-0.0008	-0.0015	-0.0008	85.4
0.0075	-0.0008	-0.0023	-0.0015	85.2
0.0052	-0.0008	-0.003	-0.0015	85.4
0.0052	-0.0015	-0.0046	0	85.2
0.0052	0	-0.003	-0.0015	85.2
0.0067	0	-0.0015	-0.0008	85.3
0.0075	0	0.0007	-0.0008	85.1
0.006	-0.0008	0.0022	-0.0015	85.4
0.0037	-0.0015	0	-0.0008	85.2
0.003	-0.0008	-0.0008	-0.0008	85.3
0.0037	-0.0015	0.0007	-0.0015	85.2
0.003	-0.0015	0	-0.0015	85.2
0.0007	-0.0008	0.0007	0	85.3
0.0007	-0.0008	-0.0015	-0.0008	85.2
0.0015	-0.0008	-0.0008	-0.0008	85.3
0.003	-0.0015	0	0.0015	85
0.0037	0	-0.0008	0.0007	85.4
0.0045	-0.0008	-0.003	0.0015	85.1
0.0022	-0.0015	-0.006	0.0022	85.2
0.0007	-0.0008	-0.0046	-0.0008	85.2
-0.0015	-0.0008	-0.0046	0	85.2
-0.0015	-0.0008	-0.0046	-0.0008	85.2
-0.0015	0	-0.0046	-0.0008	85.1
-0.0008	-0.0008	-0.0038	0.0007	85.3
-0.0008	0	0	0.0022	85.1
-0.0015	-0.0023	0.0015	0.0015	85.3
0.0015	-0.003	0.0015	0	85.2
0.003	-0.0015	0.0015	-0.0008	85.2
0.0022	-0.0023	0.003	-0.0008	85.1
0.0015	-0.0015	0.003	0	85.3
0.003	-0.0008	0.0015	-0.0008	85.4
0.0015	-0.0008	0.0015	-0.0008	85.1
0.0007	0	0.003	0.0007	85.3
0	-0.0008	0.0037	0.0007	85.1
0.0007	-0.0008	0.0015	0	85.2
-0.0008	0.0015	0.0007	-0.0015	85
-0.0008	0.003	-0.0008	-0.0008	85.2
-0.0008	0.0037	-0.003	-0.0008	85.1
-0.0023	0.0037	-0.0023	0.0007	85.2
-0.0015	0.0022	-0.0008	0.0015	85
-0.0015	0.0007	0.0007	0.0022	85.2
0	0.0015	0.0007	0	85.2
0.0015	0.0022	0.003	-0.0008	85.1
0	0.0007	0.0015	0.0007	85.1
-0.0008	0.0007	0.0022	-0.0008	85.1
-0.0008	0.0022	0.0007	0.0007	85
-0.0008	0.0015	0.0007	-0.0015	85.2
-0.0023	0.0007	0.003	-0.0015	85
-0.0015	0.0015	0.0015	-0.0008	85.3
-0.0008	0.003	0.0007	0	85.2
-0.0015	0.003	0	0	85.2
-0.0008	0.003	-0.0008	0	85.1
-0.0008	0.003	-0.0008	0.0007	85.3
-0.0008	0.0015	-0.0015	-0.0008	85.2
0	0.0007	0.0007	0.0015	85.1
0	-0.0008	0.0015	0.0007	85
0	-0.0008	0.0007	0.0007	85
0.0007	-0.0015	-0.0008	0.0015	85.2
0.0007	-0.0023	0.0007	0.0022	85.1
0.0015	-0.0008	0.003	0.0022	85
0.0015	-0.0015	0.003	0.0015	85.1
0.0007	-0.003	0.0007	0.0015	85.2
-0.0008	-0.0015	-0.0008	0.0007	85.2
0	-0.0015	0.0007	0.0007	85
0.0007	-0.0015	0.0007	0.0015	85.2
0	-0.0015	0.0007	0.0007	85
0	-0.0015	0.0007	-0.0015	85.2
0	-0.0008	0.0007	-0.003	84.9
-0.0008	-0.0008	0	-0.0023	85.1
-0.0008	-0.0015	-0.0008	-0.0015	85
-0.0015	-0.0015	0	-0.0015	85.1
-0.003	-0.0015	0.0007	-0.0015	85.2
-0.0008	-0.0015	0	-0.0008	85.1
-0.0023	-0.0015	-0.0008	-0.0008	85.1
-0.003	0.0007	0.0007	-0.0008	85
0	0.0007	0.0015	0.0007	85.1
-0.0008	0	0.0015	0.0015	85.2
-0.0008	-0.0008	0	0.0007	85.1
-0.0023	-0.0008	0.0007	-0.0015	85.2
-0.0015	0	0.0007	-0.0008	84.9
-0.0015	-0.0008	-0.0008	0	85
-0.0015	-0.0008	-0.0015	0	85
-0.0008	0.0007	-0.0015	0.0007	85.1
0.0007	0.0007	-0.003	0.0007	84.9
0.0007	0.0007	-0.003	-0.0008	85.1
0	0.0015	-0.0023	-0.0008	85
0.0007	0.0015	-0.0046	0.0007	85.1
-0.0008	0.0015	-0.003	0.0015	85
0	0.0007	-0.0008	0.0007	85.1
0.0015	-0.0015	0.0007	-0.0008	85.2
0.003	-0.0008	-0.0008	-0.0023	85.2
0.003	0	0.0007	-0.0008	85
0.0015	-0.0008	0.0007	0	85
0.0015	0	-0.0023	0	85.1
0	0.0007	-0.003	0.0007	85
0.0007	0	-0.0015	-0.0008	85.1
0.0007	0.0007	-0.0015	0.0007	85
0.0007	-0.0008	-0.0008	-0.0008	85
0.0007	-0.0008	0.0007	-0.0008	85
0.0007	-0.0015	-0.0008	0	85
0.0022	0	-0.0015	0	85
0.0015	0.0007	-0.0015	0.0007	85
0.0015	-0.0008	-0.0023	0	85.1
0.0015	0.0007	-0.0015	-0.0008	85
0.0015	0.0007	-0.0008	-0.0015	85
0.0022	-0.0015	-0.0015	-0.0008	85.1
0.006	-0.0015	-0.003	-0.0008	85
0.012	-0.0015	-0.0008	0	84.9
0.0127	-0.003	-0.0015	-0.0008	85.1
0.012	-0.0015	-0.0008	-0.0008	85.1
0.0082	-0.0008	0.0015	-0.0008	85
0	-0.0015	0.0007	-0.0015	85
-0.006	-0.0008	-0.003	-0.0023	85
-0.0128	0	-0.0023	-0.003	85.1
-0.0158	0	-0.0008	-0.003	85.1
-0.0128	-0.0015	-0.0023	-0.0015	85
-0.0091	-0.0008	-0.003	-0.0015	85.2
-0.0053	0	-0.0023	0.0007	84.9
-0.003	0.0007	-0.0023	0.0015	85.1
-0.003	0.0015	-0.003	0.0015	85
-0.0046	0.0015	-0.003	0.0015	85
-0.0038	0.0022	-0.0015	0.0015	85.1
-0.003	0.0007	-0.0015	0.0015	85
-0.0023	0.0007	0.0015	0.0007	85
0.0007	0.0007	0.0037	0.0007	84.9
0.0015	-0.0015	0.0045	0.0007	84.9
0.0007	-0.0008	0.0052	0	85
0.003	0.0007	0.0022	0.0007	85
0.0052	0.0007	0.0015	0.0007	85
0.0105	0.0007	0.0007	0	85
0.0127	-0.0008	0.0007	0	85
0.0075	-0.0008	0.0015	0.0007	85
0.003	-0.0008	0.0015	0	85.1
-0.0038	-0.0015	-0.0008	0.0007	84.9
-0.0113	-0.0008	-0.0015	0.0007	85
-0.0158	-0.0015	-0.0015	0.0007	84.8
-0.0165	-0.0015	-0.003	0.0007	85
-0.0143	0.0007	-0.0008	0.0007	84.8
-0.015	0.0007	0.0007	-0.0008	85
-0.0225	0	0.0007	-0.0008	85
-0.0256	0	0.0007	0	85
-0.0053	0.0015	-0.0008	-0.0008	84.9
0.024	0.0007	0.0022	-0.0008	84.9
0.0345	-0.0008	0.0037	-0.0008	84.9
0.0315	0.0015	0.003	-0.0008	84.9
0.0255	0	0.0022	-0.0015	85
0.0127	0	0.003	-0.0015	84.9
0.0052	0.0022	0.0022	-0.0008	84.9
-0.003	0.0022	-0.0008	-0.0008	84.9
-0.0105	0.0007	0.0007	-0.0023	84.8
-0.0091	0.0007	0.0007	-0.0015	84.9
-0.0083	0.0015	-0.0015	-0.0015	84.8
-0.0053	0.0007	-0.0008	0.0015	84.9
-0.0023	0.0015	0	0.0015	84.9
-0.0046	-0.0008	-0.0008	0	85
0	-0.0015	-0.0015	0.0015	85
0.0015	-0.0023	-0.0015	0.0022	84.9
0.0022	-0.0038	-0.003	0.0015	84.9
0.0022	-0.003	-0.0015	0.0007	84.8
0.0015	-0.0015	-0.0015	0.0007	85
0.003	-0.0015	-0.0023	0.0015	84.9
0.0015	-0.0015	-0.0015	0.0015	84.9
0.0015	0	-0.0023	0.0015	85
0.0007	0	0	0.0015	84.9
0.0007	0	-0.0008	0.0007	85
0.0007	0.0015	-0.0008	0	84.8
0	0.0015	0.0015	-0.0008	85
0	0.0022	0.0007	0.0007	84.8
-0.0008	0.0015	-0.0008	-0.0008	84.9
0	0	-0.0008	-0.0015	84.8
0	0.0007	-0.0008	-0.0008	84.9
0.0007	0.0007	-0.0008	0	84.8
-0.0008	0	-0.0015	-0.0015	84.9
0.0007	-0.0008	-0.0023	-0.0008	85
0.0007	-0.0008	-0.0015	-0.0008	84.7
0	-0.0008	-0.0015	-0.003	84.9
0.0007	-0.0023	0	-0.0023	84.8
0.0007	-0.003	0.0007	-0.0015	84.9
0.0007	-0.0015	-0.0008	0	84.8
-0.0008	-0.0023	-0.0015	0.0007	84.7
0.0007	-0.0015	-0.0015	0	84.8
-0.0008	-0.0008	-0.0008	0	84.7
-0.0023	-0.0008	-0.003	0.0007	84.9
-0.0008	0.003	-0.0008	0.0015	84.7
-0.0008	0.0007	0.0007	0.0015	84.9
0.0007	0	-0.0008	0	84.7
0.0015	0.0022	0.0007	0.0015	84.9
-0.0008	0.0015	-0.0023	0.0007	84.9
-0.003	0.0015	-0.0008	0.0015	84.8
-0.0015	0.0007	0.0007	0.003	84.8
0.0007	0.0007	-0.0008	0	84.6
0.0022	0.0015	0.0015	0.0007	84.9
0.0015	-0.0008	-0.0015	0.0007	84.6
-0.0008	0	-0.0015	0.0007	84.9
-0.0008	0.0015	-0.0008	0	84.7
0	0.0022	-0.0008	0.0007	84.9
0.0007	0.0015	-0.0015	0	84.7
-0.0008	0.0022	-0.0015	0	84.8
0.0015	0.003	-0.003	0	84.7
0.0015	0.003	-0.0046	-0.0008	84.8
-0.0008	0.0037	-0.0038	0.0007	84.7
-0.0015	0.003	-0.0046	0	84.7
-0.0023	0.0015	-0.003	-0.0008	84.7
-0.0015	0.0007	-0.0008	0.0007	84.8
-0.0015	0	0	-0.0008	84.8
-0.0015	-0.0015	-0.0008	0.0007	84.7
-0.0008	-0.0023	0.0007	-0.0008	84.7
0.0007	-0.003	0.0007	0	84.7
0	-0.0038	0	0.0007	84.6
0.0007	-0.003	-0.0008	0.0007	84.7
0.0007	-0.003	-0.0008	0.0007	84.8
-0.0008	-0.003	0.0015	0	84.8
0	-0.0008	0	0.0015	84.6
0	-0.0008	0.0007	0	84.7
0.0007	0.0007	0.0015	0.0007	84.7
0.0007	0.0015	0.003	0.003	84.6
-0.0008	0.0007	0.0037	0.0007	84.7
0.0015	0.0015	0.0022	0	84.6
0.003	0.0007	0.0015	0	84.9
0.0037	0	-0.0008	0	84.7
0.003	-0.0008	0.0015	-0.0015	84.7
0.0007	-0.0015	0.0022	-0.003	84.6
0.003	-0.0023	-0.0008	-0.0023	84.6
0.0037	0	0.003	-0.003	84.8
0.003	0.0007	0.0007	-0.003	84.6
0.003	-0.0008	-0.0008	-0.0015	84.7
0.0015	0	0.0007	-0.0008	84.6
0.0015	0.0007	0.0015	0.0007	84.8
0.0015	-0.003	0.0015	0	84.6
0.0015	-0.003	0.0015	0.0007	84.7
0.0007	-0.0023	0.0007	0	84.6
0	-0.0023	0.0015	0.0007	84.6
0	-0.0015	0.0007	0.0007	84.7
-0.0008	-0.0008	0.0007	-0.0008	84.6
0	-0.0015	-0.0008	-0.0008	84.7
-0.0008	-0.0015	-0.0015	-0.0015	84.6
0.0007	-0.0015	-0.0008	-0.0008	84.6
0.0007	0	-0.0015	-0.0015	84.6
0	-0.0008	0.0007	-0.0008	84.6
0.0007	-0.0023	0	-0.0008	84.7
0	-0.0015	-0.0015	0.0007	84.5
0	-0.0015	0	0.003	84.8
-0.0023	-0.0023	-0.0008	0.0022	84.6
-0.0015	-0.0008	-0.003	0.003	84.7
0	0.0007	-0.0008	0.0022	84.6
0.0007	0.0007	0.0015	0.0015	84.7
0.0015	0.0015	0.0007	0.0007	84.6
0.0007	0.0007	-0.0008	-0.0008	84.7
0.0007	0.0007	-0.0015	0	84.7
-0.0008	0.0022	-0.0015	0.0015	84.6
0	0.0015	-0.0015	0.0022	84.6
0.0007	0.0015	-0.0008	0.0007	84.7
0	0.0015	0.0007	-0.0008	84.5
0.0015	0.0015	-0.0008	-0.0008	84.6
0.0015	0.0022	-0.0008	0	84.6
0.0007	0.0015	0.0007	0	84.6
0.0007	0.0007	0	0.0007	84.6
-0.0023	0.0007	0.0007	0	84.6
-0.0008	0.0007	0	-0.0008	84.6
0	0.0007	-0.0015	-0.0008	84.6
-0.0008	-0.0008	-0.0008	0	84.6
-0.0015	-0.0015	0.0015	0.0007	84.6
-0.0008	-0.0008	-0.0008	-0.0008	84.6
0.0007	-0.0008	-0.0038	-0.0008	84.7
0	0.0007	-0.003	-0.0008	84.6
0.0015	0.0015	-0.0023	0.0007	84.6
0.0022	0.0007	-0.0023	0	84.7
0.0037	0.0007	-0.0015	-0.0008	84.6
0.0075	0.0015	-0.0038	-0.0008	84.6
0.0045	0.0015	-0.003	-0.0008	84.6
0	0.0007	-0.003	-0.0008	84.6
0.0007	0	-0.0046	0.0007	84.8
0.0015	-0.0008	-0.0015	0.0007	84.5
0.0015	-0.0015	-0.003	0.0007	84.6
0.0015	-0.0015	-0.003	0	84.6
-0.0015	-0.0015	-0.0008	-0.0023	84.7
-0.003	0	-0.003	-0.0015	84.6
-0.0068	0.0007	-0.003	-0.0008	84.6
-0.0091	0.0007	-0.0008	-0.0008	84.6
-0.0105	0.0007	-0.0008	0	84.6
-0.0128	0.0015	-0.0008	0	84.6
-0.0083	0.0015	0.0007	-0.0008	84.6
0.0015	0	0.003	-0.0008	84.5
0.012	-0.0008	0.0022	-0.0008	84.7
0.0375	-0.0015	0.0015	-0.0008	84.6
0.084	-0.0008	0.003	-0.0015	84.6
0.0787	-0.0015	0.0015	-0.0015	84.6
0.027	-0.0015	0.0015	-0.0015	84.7
-0.0046	-0.0008	0.0015	-0.0015	84.6
-0.0465	0.0007	-0.0008	-0.0008	84.5
-0.063	0.0007	-0.0008	0	84.5
-0.0653	-0.0008	0	0	84.6
-0.078	-0.0023	0.0015	0.0015	84.6
-0.0555	-0.0008	0.0037	0.0007	84.8
-0.0315	-0.0015	0.003	0.0015	84.6
-0.0053	-0.0015	0.0045	0.003	84.6
0.0082	0.0007	0.0045	0.0007	84.4
0.0037	-0.0008	0.0022	0.0015	84.8
0.0052	0	0.0015	0.0015	84.5
0.0007	0.0007	0.0022	0.0022	84.6
-0.0015	0.0007	0.0007	0	84.5
-0.0038	0.0007	-0.0008	0.0007	84.6
-0.0038	0	-0.0015	0.0007	84.6
0	0.0007	-0.003	0	84.5
0.0022	0	-0.0023	0.0015	84.6
0.0052	-0.0008	-0.003	-0.0008	84.5
0.0045	0.0015	-0.003	-0.0008	84.6
0.0045	0.0007	-0.0023	-0.0008	84.7
0.006	0.0007	-0.0008	-0.0015	84.5
0.0052	0.0015	0.0007	-0.0015	84.6
0.0045	0	-0.0008	-0.0008	84.6
0.0052	0	-0.0008	-0.0015	84.6
0.0052	0.0007	0	-0.0008	84.6
0.006	0	-0.0015	-0.0008	84.6
0.0052	-0.0008	-0.0008	-0.0015	84.5
0.0052	0.0007	0.0007	-0.0008	84.6
0.0052	0.0007	-0.0008	-0.0015	84.6
0.0052	0.0007	0.0022	-0.0008	84.4
0.0052	0	0.0015	-0.0015	84.6
0.0037	0.0007	0.0007	-0.0008	84.5
0.0052	0.0007	0.0015	-0.0008	84.6
0.0045	0	0	0	84.4
0.0045	0.0007	0.0015	0.0007	84.6
0.003	0.0007	0.0022	0.0007	84.4
0.0022	0.0007	0.0015	0.0007	84.5
0.0045	0.0007	0.0007	-0.0008	84.6
0.003	-0.0008	0	0	84.4
0.0022	-0.0008	0.0015	-0.0015	84.6
0.0007	-0.0008	0.0007	-0.0008	84.5
0.0015	0.0007	0.0022	0.0007	84.6
0.0045	0.0007	-0.0015	0.0007	84.5
0.0045	0.0007	-0.0015	-0.0008	84.6
0.003	0.0007	-0.0008	-0.0015	84.6
0.0045	-0.0015	-0.0015	-0.0008	84.6
0.0015	-0.0015	-0.003	-0.0008	84.5
0.0015	-0.0008	-0.0038	0.0007	84.6
0.0015	-0.003	-0.0015	0.0015	84.6
0.0022	-0.0023	-0.003	0.0022	84.5
0.003	-0.0015	-0.003	0.0007	84.6
0.003	-0.0008	-0.0015	0.0015	84.5
0.003	-0.0015	-0.0015	0.0022	84.6
0.0037	-0.0008	-0.0015	0.0007	84.6
0.003	-0.0008	-0.0023	0.0015	84.5
0.0022	-0.0023	-0.0015	0.0007	84.6
0	-0.0015	-0.003	-0.0008	84.4
-0.0015	0.0007	-0.0023	0	84.6
-0.0015	0.0007	-0.0008	0.0015	84.6
-0.0015	0.0007	0	0	84.5
-0.0008	0	0.0007	-0.0015	84.5
-0.0015	-0.0008	-0.0015	-0.0015	84.6
-0.003	0	-0.0008	0	84.6
-0.0015	-0.0008	0.0007	0	84.3
0	0.0007	-0.0008	0	84.6
-0.003	-0.0008	0.0007	0.0007	84.3
-0.0023	-0.0008	0.0007	0.0015	84.7
-0.0008	0.0015	-0.0015	0.0015	84.5
0.0015	0.0007	-0.003	0.0015	84.6
0.003	0.0007	-0.0053	0	84.4
0.003	0.0015	-0.003	0	84.7
0.0022	0	-0.003	0.0015	84.6
0.0015	-0.0008	-0.0023	0.0007	84.6
0.0007	0.0007	0	0.0007	84.6
0.0015	0.0015	-0.0008	0.0007	84.4
0.0015	0.0007	-0.0015	0.0007	84.5
0	0.0015	-0.0015	0.0007	84.6
-0.0008	0.0015	0.0007	0	84.6
0	0.0007	0	0	84.6
0	0.0007	-0.0008	-0.0008	84.6
-0.0015	-0.003	-0.0015	-0.0008	84.6
-0.003	-0.003	0	0	84.5
-0.0008	-0.0008	0.0015	-0.0008	84.6
0.0007	-0.003	-0.0008	0.0007	84.5
0	-0.003	0	0	84.6
0.0007	-0.0008	-0.0008	0	84.3
-0.0015	0.0007	-0.0015	-0.0008	84.6
-0.0008	0.0007	-0.0008	-0.0015	84.6
0.0007	-0.0015	-0.003	-0.0008	84.6
0.0007	-0.0008	0	-0.0015	84.6
0.0007	0	0.0015	-0.0008	84.5
0.0007	0.0007	0.0007	0.0007	84.5
0.0015	0.0007	0.0007	0	84.4
0.0007	-0.0015	0	0.0007	84.6
0	-0.0008	0.0007	0.0007	84.6
-0.0015	0	-0.0008	0.0007	84.6
-0.0015	0.0015	-0.0023	0	84.6
-0.0023	0.0007	-0.0023	-0.0008	84.3
-0.0008	0.0007	-0.0015	0	84.5
-0.0015	0.0015	0	-0.0008	84.3
-0.003	0	-0.0015	-0.0008	84.6
-0.003	-0.0008	-0.0008	-0.0015	84.3
-0.003	0	0.0007	-0.0015	84.6
-0.0015	-0.0008	-0.0015	0	84.4
-0.0023	-0.0008	0.0007	-0.0008	84.6
-0.003	-0.0008	0.003	0.0007	84.5
-0.0023	0	0.0007	0.0007	84.5
-0.0008	-0.0015	0.0015	-0.0008	84.5
0.0007	-0.0023	0.0015	-0.0008	84.6
0.0007	-0.0023	0.0015	-0.0008	84.6
0.0007	-0.0015	0.0015	-0.0008	84.5
0.0022	0.0007	0.0022	-0.0008	84.5
0.003	0.0015	0.0022	-0.0008	84.5
0.0015	0	0.0022	-0.0008	84.5
0.0007	0.0007	0.003	0	84.5
-0.0008	0.0007	0.003	0	84.5
-0.0015	0.0007	0.003	0.0007	84.6
-0.0008	0.0007	0.0045	-0.0015	84.5
0	0.0007	0.0052	-0.0015	84.6
0	0	0.003	0	84.3
-0.0015	-0.0008	0.0015	0	84.6
-0.0023	0	0.0007	0	84.4
-0.0015	-0.0008	0.0015	-0.0008	84.6
-0.0008	0	0.0015	0.0007	84.5
0	0.0007	0.0037	0.0007	84.4
0.0015	-0.0008	0.003	-0.0008	84.4
0.003	-0.0015	0.0015	-0.0008	84.5
0.0007	-0.0008	0.0015	0.0007	84.6
-0.0008	-0.0008	0.0007	-0.0008	84.3
-0.0008	0.0007	0	-0.0008	84.6
0	0.0007	-0.0008	0	84.3
0.0015	0.0022	0	0.0015	84.5
0.0007	0.0015	-0.0023	0.0007	84.5
0.0015	0.0007	-0.0008	0	84.5
0.0007	0.0007	0.0007	-0.0015	84.4
0.0007	-0.0008	-0.0008	-0.0023	84.3
0.0007	0.0007	-0.0008	-0.0008	84.4
-0.0015	-0.0008	0.0007	-0.0008	84.5
-0.0015	0.0007	0.0007	0.0007	84.6
0	0.0022	0	-0.0008	84.4
0	0.0015	-0.0008	-0.0008	84.4
0	0.0015	-0.0008	-0.0008	84.5
0.0007	0.0015	-0.0008	-0.0008	84.4
0.0007	0.0022	-0.0008	0.0007	84.5
0.0007	0.0022	-0.0023	-0.0008	84.4
0.0007	0.0015	-0.0038	0.0007	84.5
-0.0008	0.0007	-0.003	0.0015	84.4
-0.0008	0	-0.0046	0.0007	84.4
-0.0008	-0.0008	-0.0046	0	84.4
-0.0008	-0.0015	-0.0023	-0.0008	84.4
-0.0015	-0.0008	-0.003	0.0007	84.5
0	-0.0008	-0.0046	0.0007	84.3
0.0007	-0.0008	-0.003	0.0007	84.5
0.0007	-0.0015	0	-0.0008	84.4
0	-0.0008	-0.0008	-0.0008	84.6
-0.0008	0.0022	0	0	84.5
-0.0008	0.0007	0.0015	-0.0008	84.3
0	0.0007	0.0007	-0.0008	84.3
0.0015	-0.0008	0.0015	-0.0008	84.4
0.0015	-0.0008	-0.0015	-0.0008	84.6
0.0007	0.0007	-0.0023	0.0007	84.3
0	-0.0015	-0.0008	0.0015	84.5
0.0007	-0.003	-0.0008	0.0007	84.4
0.003	-0.003	0.0015	0.0015	84.4
0.0045	-0.0023	0.003	0.0022	84.2
0.0052	-0.0008	-0.0008	0.0015	84.4
0.003	0	-0.0008	0.0007	84.4
0.0015	0	0.0007	0.0015	84.3
0.0007	0.0015	0.0015	0.0045	84.3
0	0	0	0.003	84.3
0.0007	-0.0015	0	0.0022	84.3
0.0007	0.0007	-0.0015	0.0015	84.4
0.0015	0.0007	-0.0008	0.0007	84.4
0.0007	0.0007	-0.0008	-0.0008	84.4
0.0007	0.0007	-0.0008	-0.0008	84.4
-0.0008	0.0015	-0.0008	0.0007	84.5
0	0.0015	0	0.0007	84.2
-0.0008	0.0007	0.0007	0.0015	84.6
-0.0023	0.0015	-0.0008	0.0007	84.3
-0.0015	0.0007	-0.0008	0.0007	84.5
-0.0015	0.0015	-0.0008	0	84.3
-0.0008	0.0007	-0.0038	-0.0008	84.6
-0.0008	0.0015	-0.0053	-0.0008	84.3
0.0007	0.0007	-0.0038	-0.0015	84.4
0.0015	-0.0008	-0.003	-0.0008	84.4
0.0037	-0.0008	-0.0015	0.0007	84.3
0.0037	-0.0023	-0.0015	-0.0008	84.4
0.0007	-0.0015	0.0015	0.0007	84.3
0	-0.0015	0.0015	-0.0008	84.5
-0.0015	-0.003	0.0007	-0.003	84.4
-0.0015	-0.0038	0.0015	-0.0015	84.4
-0.003	-0.003	0.0007	-0.0015	84.3
-0.003	-0.0015	-0.0008	-0.0008	84.3
-0.003	-0.0015	-0.0008	-0.0008	84.4
-0.003	-0.0023	0	-0.0015	84.3
-0.0015	-0.0023	-0.0008	-0.0008	84.4
-0.0015	-0.0015	-0.0023	-0.0008	84.3
-0.0008	-0.0008	-0.0023	-0.0008	84.4
0.0045	-0.0008	-0.0015	0	84.3
0.009	0.0007	-0.0015	-0.0008	84.4
-0.0008	0.0015	-0.0023	-0.0008	84.2
-0.0225	0.0022	-0.003	-0.0008	84.2
-0.0248	0.0007	-0.0023	0.0007	84.5
-0.0165	0.0015	-0.0008	0.0007	84.3
-0.0091	0	0.0015	-0.0008	84.3
-0.0023	0.0007	0.0015	0.0015	84.4
0.0037	0.0007	-0.0008	0.0007	84.3
0.0127	-0.0023	-0.0008	-0.0008	84.5
0.0157	-0.0023	0.0007	-0.0008	84.3
0.0157	-0.0015	0.0007	-0.0023	84.3
0.0172	-0.0008	0.0007	-0.0015	84.3
0.0195	-0.0008	0.0007	0	84.5
0.0165	0.0007	0.0037	-0.0015	84.1
0.0075	0.0022	0.0037	-0.0015	84.4
0.0022	0.0015	0.0045	-0.0008	84.2
-0.0015	0.0015	0.003	0.0007	84.4
-0.0046	0.0015	0.0007	0.0007	84.2
-0.0068	0.0037	0.0007	-0.0008	84.3
-0.0053	0.0045	-0.0008	-0.0008	84.3
-0.006	0.0015	0	0	84.3
-0.0091	0.0015	-0.0008	0.0007	84.3
-0.0091	0.0022	-0.0015	-0.0008	84.3
-0.0075	0	-0.003	-0.0008	84.4
-0.0105	0.0007	-0.0015	-0.003	84.2
0.003	0.0015	-0.0008	-0.003	84.4
0.051	0.0022	-0.0023	-0.0015	84.3
0.0622	0.003	-0.0015	-0.0015	84.5
-0.0008	0.0022	-0.0023	-0.0008	84.3
-0.0458	0.0015	-0.003	0.0007	84.2
-0.0675	0.0007	-0.0015	0.0007	84.4
-0.0675	0	-0.0008	0.0015	84.3
-0.0428	-0.0023	-0.003	0.0015	84.4
-0.0165	-0.003	-0.0053	0.0007	84.3
0.0082	-0.0023	-0.0046	0	84.4
0.015	-0.003	-0.003	0	84.3
0.0225	-0.003	0.0022	-0.0008	84.3
0.0255	-0.003	0.0015	-0.0015	84.3
0.0232	-0.0015	0.0007	-0.0008	84.4
0.0195	-0.0008	0.0015	0	84.4
0.012	-0.0008	0.0022	-0.0008	84.2
0.0067	-0.0015	0.0037	0.0007	84.3
0.0022	-0.0008	0.0007	0.0015	84.3
0.0037	-0.0015	0.0015	0.0007	84.4
0.0015	-0.003	0.0015	0	84.3
0.0015	-0.0015	-0.0008	0.0007	84.3
0.003	-0.0008	-0.0008	0.0007	84.3
0.0015	-0.0008	0.003	-0.0008	84.2
-0.0008	-0.0015	0.0052	-0.0008	84.5
0.0007	-0.0008	0.0045	-0.0008	84.4
0.0045	0	0.003	0.0007	84.3
0.003	-0.0008	0.0015	0.0015	84.3
0.0015	-0.0015	-0.0008	0.0015	84.3
-0.0008	-0.0008	-0.0008	0	84.2
-0.0015	-0.0015	0.0007	-0.0008	84.3
-0.0015	-0.0008	0.0015	-0.0008	84.3
-0.0023	0.0007	0.0007	-0.0008	84.3
-0.0038	0.0007	0.0015	-0.0008	84.3
-0.003	0.0007	0	0	84.3
-0.003	-0.0008	-0.0046	0.0007	84.4
-0.0195	0	-0.003	0.0007	84.3
-0.0436	0	-0.0015	-0.0008	84.2
-0.0413	0.0007	-0.0038	0	84.3
-0.024	0	-0.0038	0.0007	84.3
-0.0203	-0.0008	-0.0053	0	84.4
-0.0083	-0.0008	-0.0038	-0.0008	84.2
0.0142	-0.0008	-0.003	0.0007	84.5
0.0322	0.0015	-0.0008	0	84.1
0.0397	0.0007	0.003	0.0007	84.3
0.0472	0.0007	0.0007	-0.0008	84.3
0.0517	0.0007	-0.0023	0.0015	84.2
0.0442	0.0015	0.0007	0.0022	84.3
0.0352	0.003	0.0037	0.0007	84.3
0.0277	0	0	0.0015	84.5
0.0217	0.0007	-0.0038	0.0007	84.3
0.0142	0.0022	-0.003	-0.0008	84.4
0.0037	0.0007	0.0015	0.0007	84.2
-0.003	-0.0015	0.0015	0.0015	84.2
-0.006	-0.0015	-0.0008	-0.0015	84.4
-0.0075	-0.0015	-0.003	-0.0015	84.3
-0.0068	0	-0.0053	-0.0008	84.3
0.006	-0.0008	-0.003	-0.0008	84.2
0.0322	-0.0008	-0.0008	-0.0015	84.4
0.0405	0	-0.0038	-0.0008	84.2
0.0345	-0.0008	-0.0038	-0.0008	84.4
0.0232	-0.0015	-0.0015	-0.0008	84.3
0.0007	0	-0.0053	-0.0023	84.2
-0.0218	0.0007	-0.0075	-0.0008	84.3
-0.0443	0	-0.0053	-0.0015	84.3
-0.0615	-0.0008	0.0007	-0.0023	84.4
-0.075	0.0007	0.0045	-0.0015	84.3
-0.078	0.0007	0.0037	-0.0008	84.5
-0.0638	0.0007	0.0022	0.0015	84.3
-0.0473	0.0015	0.0022	0.0007	84.4
-0.039	0.0022	0.0037	0.0007	84.3
-0.0278	0.0015	0.0045	0	84.6
-0.012	0.0007	0.0022	-0.003	84.3
-0.0015	-0.0008	0.0007	-0.0015	84.5
0.0052	-0.0015	0.0015	-0.003	84.6
0.0067	-0.0008	0.0022	-0.003	84.4
0.0105	-0.0008	0.0037	-0.0015	84.4
0.015	-0.0015	0.0045	-0.0008	84.5
0.015	-0.0015	0.003	-0.0008	84.3
0.0172	-0.0015	0.0007	0.0007	84.3
0.0142	0	-0.0008	0.0007	84.3
0.0142	0.0007	0.003	0.0007	84.3
0.015	0	0.0045	0.0007	84.2
0.0142	-0.0008	0.0022	-0.0008	84.4
0.0142	-0.0015	0.0015	0.0007	84.4
0.0135	-0.0015	-0.0008	0	84.5
0.0105	0	-0.0015	-0.0008	84.3
0.0097	0.0007	0.0007	0.0015	84.5
0.0097	-0.0008	0.0007	0.0015	84.4
0.0075	-0.0015	0.0015	0.003	84.4
0.0067	-0.0015	0.0015	0.0015	84.6
0.003	-0.0023	0.0007	-0.0008	84.3
0.0022	-0.0015	0	0	84.6
0.003	-0.0008	-0.0015	-0.0023	84.6
0.0052	0	-0.003	-0.0023	84.5
0.0052	0.0007	-0.0008	-0.003	84.6
0.0037	0.0007	-0.0008	-0.003	84.4
0.0045	0.0022	0	-0.0015	84.6
0.0015	0.003	-0.0015	-0.0023	84.4
0.0007	0.003	-0.0008	-0.0008	84.6
0	0.003	0	0.0007	84.4
-0.0015	0.0015	0.0015	0.0015	84.6
-0.0023	0.0022	0.0052	0.003	84.5
-0.0023	0.0015	0.0052	0.0022	84.6
-0.0015	0.0007	0.003	0.0015	84.6
-0.0008	0	-0.0008	0.0015	84.5
-0.0008	0.0007	-0.0008	0.0007	84.6
-0.0023	0.0007	-0.003	-0.0008	84.4
-0.0015	-0.0008	-0.0038	-0.0015	84.5
0.0127	0.0007	-0.0008	-0.0008	84.6
0.0592	0.0007	-0.003	0.0007	84.6
0.0682	0.0007	-0.003	0	84.5
-0.0008	-0.0008	-0.0053	0.0007	84.5
-0.0518	-0.0023	-0.0083	0.0015	84.6
-0.0698	-0.0008	-0.0091	0.0007	84.5
-0.0653	0	-0.0098	0.0015	84.6
-0.0405	0.0007	-0.0113	0.0007	84.5
-0.0158	0.0007	-0.0143	0	84.6
0.0007	-0.0008	-0.015	0.0007	84.4
0.0022	-0.0008	-0.0135	0.0007	84.7
0.0082	-0.0015	-0.0105	0.0022	84.5
0.0127	-0.0015	-0.0098	0.0015	84.8
0.0202	0	-0.0105	0.0007	84.6
0.0187	0.0007	-0.0091	-0.0008	84.6
0.0127	0	-0.0098	-0.0008	84.5
0.0082	0.0007	-0.0068	0.0007	84.7
0.0052	-0.0008	-0.0075	0	84.6
0.0067	0	-0.0068	0.0015	84.6
0.0045	0.0007	-0.003	0.0007	84.8
0.0045	0	-0.0015	-0.0015	84.6
0.0007	0.0015	-0.0015	-0.0008	84.7
0.0015	0.0015	0.0007	0	84.6
0.0022	0.0007	0.003	0.0007	84.8
0.0022	0	0.0037	0	84.8
0.003	0	0.0052	0.0007	84.9
0.0015	0.0007	0.0075	0.0022	84.7
0.0022	0.0007	0.009	0.0015	84.7
0	0	0.009	0.0007	84.9
-0.0015	0.0007	0.0082	-0.0008	84.7
-0.0015	0.0007	0.0082	0.0007	84.9
-0.0015	-0.0008	0.0097	-0.0008	84.7
-0.0023	0.0007	0.0082	-0.0015	84.8
-0.006	-0.0015	0.0067	0.0015	84.8
-0.0083	-0.0008	0.0052	0.0007	84.8
-0.0091	0.0007	0.0052	0.0015	84.7
-0.0053	-0.0008	0.0082	0.0015	84.9
-0.0008	-0.0008	0.0075	0.0007	84.9
0.0045	-0.0008	0.0052	0.0007	84.9
0.0067	-0.0015	0.0052	-0.0008	84.9
0.0052	-0.0008	0.0045	0	84.9
0.0045	-0.0015	0.003	0	84.7
0.0015	-0.0015	0.003	-0.0015	85
-0.0008	-0.003	0.0022	-0.0015	84.8
-0.003	-0.0015	0.0015	-0.0015	85
-0.0046	0.0007	-0.0008	0	84.9
-0.0046	0	-0.0038	-0.0008	85
-0.0038	0.0015	-0.003	0.0007	84.8
-0.0038	0.0022	-0.0046	0.0007	84.9
-0.0023	0.0007	-0.0038	0	84.9
0	0	-0.0046	-0.0008	85
0.0015	-0.0008	-0.0038	-0.0008	85.1
0.003	-0.0015	-0.0015	-0.0008	84.8
0.003	-0.0015	-0.0038	-0.0008	85
-0.0008	-0.0015	-0.0046	0.0007	84.8
-0.0015	-0.0015	-0.003	-0.0008	85
0.0007	-0.0015	-0.003	-0.0015	84.9
-0.0008	0.0007	-0.0023	-0.0015	84.8
0.0007	0	-0.0015	-0.0008	84.9
0.0007	0.0015	-0.0008	0.0007	85
-0.0008	0.0022	0.0007	0	85
-0.0008	0.003	0.0007	0.0007	84.9
-0.003	0.0022	0.0015	0.0007	85
-0.003	0.0007	0.0022	-0.0008	84.9
-0.0046	0.0007	-0.0008	0	84.9
-0.0091	0.0007	0.0015	0.0007	85
-0.0113	0.0007	0.003	-0.0008	84.9
-0.0083	0	0.003	-0.0015	85
-0.0105	-0.0015	0.0015	-0.0015	84.9
-0.0165	-0.0015	0.0015	-0.003	85
-0.0128	-0.0008	0.0022	-0.003	84.7
0	-0.0008	0.003	-0.0023	85.1
0.012	0	0.0045	-0.0015	84.9
0.0225	0.0007	0.0045	0	85
0.0262	0.003	0.0045	0.0015	84.9
0.024	0.0037	0.0067	0.003	85
0.0225	0.0037	0.0045	0.0015	85
0.0217	0.0045	0.003	0.0015	85
0.0187	0.0037	0.0037	0.003	85
0.0157	0.003	0.0037	0.0015	84.9
0.003	0.0022	0.0045	0.0007	84.9
-0.0218	-0.0008	0.0022	-0.0015	85
-0.033	-0.0008	0.0015	-0.003	84.9
-0.027	-0.0015	0.0022	-0.0015	85
-0.0143	-0.0015	-0.0015	0.0007	85
-0.0046	0	-0.0023	0.0015	85
0.0082	-0.0008	-0.0046	0.0015	85
0.0142	-0.0015	-0.0046	0.0015	84.9
0.0172	-0.0023	-0.003	0.003	84.9
0.0202	-0.003	-0.0038	0.0007	85
0.0217	-0.0008	-0.0038	0.0007	84.9
0.0202	-0.0008	-0.0023	0.0007	84.9
0.0067	-0.0008	0.0007	0	84.9
-0.003	0	0.0015	-0.0008	85
-0.0105	0	-0.0008	-0.0008	85
-0.0158	-0.0015	0.0015	-0.0015	84.9
-0.0165	-0.0015	0.0045	-0.0023	85
-0.0181	-0.0008	0.0045	-0.0008	85.1
-0.0165	-0.0008	0.0015	0	85
-0.0181	-0.0008	0	0	85.1
-0.0143	-0.0008	-0.0015	0.0007	85
-0.0075	0.0007	-0.0015	0.0007	85
-0.0023	0.0015	-0.0015	-0.0015	85
0.0015	0.0007	-0.0046	0	85.1
0.0015	0.0007	-0.003	0.0007	84.9
0.003	0.0007	-0.0038	-0.0008	85
0.0052	0.0015	-0.0046	0.0007	85
0.006	0.0015	-0.003	-0.0008	85
0.0217	0.0022	-0.0046	0.0007	85
0.0487	0.0015	-0.0046	0.0015	84.9
0.048	0.0007	-0.0023	0.0015	85
0.024	-0.0008	0.0015	0.0015	85
-0.0008	-0.0015	0.0052	0.0007	85.1
-0.0233	0	0.0015	0	84.9
-0.0308	-0.0015	-0.0023	0	85
-0.039	-0.0015	-0.0015	0.0007	85
-0.042	-0.0008	-0.0053	0.0007	85
-0.045	0	-0.003	-0.0015	85
-0.042	0	0.0007	-0.0015	84.9
-0.027	0	0.0007	-0.0015	85.2
-0.0218	0.0007	0.003	-0.0015	84.9
-0.0181	0	0.0007	0	85.1
-0.0075	-0.0015	-0.0008	0.0007	85
0.0037	-0.0008	-0.0015	-0.0008	85.2
0.012	-0.0008	-0.003	-0.0015	84.9
0.012	-0.0023	-0.0038	-0.0008	85.1
0.0112	-0.0015	-0.0038	0	85
0.009	-0.0015	-0.003	0	85
0.012	-0.0015	-0.0046	0.0007	85.1
0.0465	-0.0008	-0.0053	0.0007	85
0.0802	0	-0.0053	0.0007	85
0.0525	0.003	-0.0053	0.0007	85
0.0225	0.0015	-0.0046	-0.0008	85
-0.003	0.0007	-0.0053	-0.0008	85
-0.0293	0.0007	-0.0075	-0.0015	84.9
-0.0256	0	-0.0098	0	85
-0.0346	0.0007	-0.0083	-0.0008	84.9
-0.0315	-0.0015	-0.0053	0	84.9
-0.03	0	-0.006	0.0007	85
-0.0218	0.0015	-0.003	-0.0008	85
-0.0068	0.0015	-0.0008	0.0015	85
0.0015	0.0007	-0.0023	0.0015	85.1
0.0082	-0.0015	0.0007	0.0007	85
0.006	-0.0015	-0.0023	-0.0015	85
0.0165	-0.0015	-0.0068	-0.0008	84.9
0.0157	-0.0008	-0.0091	-0.0008	85
0.0127	-0.0023	-0.0105	0.0007	85
0.0157	-0.0015	-0.0075	0	85
0.0217	0	-0.006	-0.0015	85.1
0.0232	-0.0008	-0.0053	0.0007	84.9
0.018	0	-0.003	0.0007	85
0.018	0.0007	-0.0008	0	85.1
0.012	0.0015	0.003	-0.0008	85.1
-0.0023	0	0.0015	-0.0015	85.2
-0.024	0	0.0045	-0.0008	85
-0.0443	0.0007	0.0045	0	85.1
-0.0578	0	0.0045	-0.0015	84.9
-0.0555	-0.0008	0.0052	-0.0038	85.2
-0.0368	-0.0008	0.0037	-0.0038	85.1
0.0015	0.0007	0.0052	-0.0008	85.2
0.0375	0.0007	0.003	0.0007	84.9
0.042	0.0015	0.003	0.0015	85.2
0.0442	-0.0008	0.0052	0.003	85.1
0.048	-0.0023	0.0045	0.0022	85
0.0472	-0.0008	0.0075	0.003	85.1
0.0495	-0.0008	0.0105	0.003	84.9
0.0457	-0.0008	0.0105	0.0007	85.2
0.0525	-0.0008	0.012	-0.0008	85.1
0.0607	-0.0015	0.012	-0.0008	85
0.0345	-0.003	0.0135	-0.0008	85
0.0045	-0.003	0.0135	-0.0008	85.1
-0.0038	-0.0015	0.0105	-0.0008	85.1
-0.0308	-0.0023	0.0082	0.0015	85
-0.0555	-0.0023	0.0052	0	85.2
-0.06	-0.0015	0.0037	-0.0015	85
-0.063	-0.0015	0.003	-0.0023	85.2
-0.0743	-0.0008	0.003	-0.0008	85.1
-0.0848	0	0.0022	-0.0008	85.1
-0.0563	0.0015	0.0007	0.0007	85.1
-0.021	0.0015	0.0007	0.0007	85
-0.0083	0.003	0.0022	-0.0008	85.2
0.0052	0.003	-0.0023	-0.0015	85
0.0127	0.0007	-0.0046	-0.0015	85.3
0.003	0.0007	-0.0053	-0.0015	85
-0.0053	0	-0.0053	-0.0008	85.2
-0.0143	-0.0008	0	0.0007	85
-0.0181	0.0007	0.0052	0	85.1
-0.0128	0.0007	0.006	-0.0008	85.2
0.0127	0.0007	0.0022	0	85.1
0.036	0.0015	0.0015	0.0007	85.2
0.0367	0.0015	0.0015	0.0007	85.2
0.0397	0.0015	0	0.0007	85.2
0.021	0.0015	-0.0008	0.0015	85.2
0.003	0.0007	-0.0053	-0.0008	85.2
-0.012	-0.0008	-0.0053	0	85.2
-0.0256	0	-0.003	-0.0008	85.1
-0.0233	0.0007	-0.0083	-0.0015	85.2
-0.0181	0	-0.0128	-0.0008	85.1
-0.012	-0.0015	-0.0158	-0.0015	85.3
-0.0068	-0.003	-0.0165	-0.0008	85.1
0.0007	-0.0015	-0.0165	-0.0015	85.3
0.012	-0.0023	-0.0181	-0.0023	85.2
0.0127	-0.0015	-0.0188	-0.0015	85.2
0.0037	-0.0008	-0.0181	-0.0008	85.3
0.0007	-0.0015	-0.0181	0	85.3
0.0007	0	-0.0158	0.0007	85.4
0.0007	0	-0.0158	0.0007	85.1
0.0037	0.0007	-0.015	0	85.3
0.0037	-0.0008	-0.012	0	85.3
0.0082	-0.0008	-0.0083	-0.0008	85.2
0.0112	0	-0.0075	0.0015	85.3
0.0157	-0.0008	-0.0105	-0.0015	85.2
0.0442	0.0007	-0.0083	-0.003	85.4
0.0592	0.0007	-0.006	-0.003	85.3
0.0052	0.0007	-0.0053	-0.003	85.5
-0.0428	-0.0008	-0.003	-0.0015	85.3
-0.0518	-0.0008	-0.003	-0.003	85.5
-0.054	-0.0008	-0.0015	0	85.4
-0.0323	-0.0008	-0.0008	0.0007	85.5
-0.0068	0	0.0015	0.0007	85.5
0.0187	0.0007	0.0052	0.0015	85.5
0.033	0.0015	0.0067	0.0007	85.5
0.0435	0.0007	0.009	0.0007	85.5
0.0502	0.0022	0.0097	0.0015	85.5
0.0435	0.0015	0.0112	0.0007	85.5
0.024	0	0.015	0.0007	85.5
0.0165	0.0007	0.0105	0	85.5
0.0165	0.0007	0.0082	-0.0008	85.5
0.0015	0.0007	0.0082	-0.0008	85.6
-0.0233	0.0022	0.0082	-0.0008	85.5
-0.0458	0.0022	0.0052	0	85.7
-0.0293	0.0007	0.0037	-0.0008	85.5
-0.0158	0.0022	0.003	0	85.7
-0.0181	0.003	-0.0008	0	85.6
-0.0203	0.0007	0	-0.0015	85.6
-0.024	0.0007	-0.0015	-0.0008	85.5
-0.0053	-0.0015	-0.0015	-0.0008	85.7
0.0082	-0.0015	-0.0008	-0.0015	85.5
0.0255	0	-0.0015	-0.0015	85.5
0.0405	0	0.003	-0.0008	85.7
0.042	-0.0008	0.0067	-0.0008	85.7
0.0435	-0.0015	0.006	-0.0008	85.5
0.033	-0.0015	0.0075	-0.0008	85.7
0.0052	-0.0015	0.0067	0.0007	85.5
-0.012	0	0.006	0.0015	85.5
-0.0008	-0.0015	0.006	0.0015	85.5
0.0172	-0.0008	0.0052	0.0015	85.5
0.0397	0.0007	0.0052	0.0015	85.5
0.0412	-0.0008	0.0037	0.0007	85.7
0.033	-0.0015	-0.0008	-0.0008	85.5
0.0232	-0.0008	-0.0053	0.0007	85.5
0.0022	0.0007	-0.0091	0.0007	85.4
-0.015	-0.0008	-0.0083	-0.0008	85.5
-0.0338	-0.0008	-0.0046	0.0007	85.5
-0.0443	-0.0008	-0.0015	0	85.3
-0.0458	-0.0008	0.003	0.0007	85.5
-0.024	0.0022	0.0015	0.0015	85.5
0.0157	0.0015	0	0.0022	85.5
0.0375	0.0007	0.0045	0.0007	85.5
0.024	0.0015	0.0052	0.0015	85.4
0.0037	-0.0015	0.0045	0.0015	85.5
-0.0353	-0.0008	0.0015	0.0015	85.3
-0.0765	-0.0015	-0.0008	0.0007	85.4
-0.09	-0.0015	0.0015	-0.0015	85.3
-0.0893	0	0.003	-0.0015	85.5
-0.0683	-0.0015	0.0022	0	85.1
-0.042	-0.0023	0.0052	-0.0015	85.2
-0.0195	-0.0015	0.0105	0	85
0.003	-0.0008	0.0105	0.0007	85.2
0.0277	-0.0008	0.009	0.0007	85.1
0.042	-0.0023	0.0037	0	85
0.048	-0.003	0.0007	0.0007	85
0.048	-0.0008	-0.0008	0.0015	85
0.0232	0	-0.0008	0.0007	84.9
0.0015	-0.0008	0.003	0.0015	84.8
-0.0053	-0.0008	0.0022	0.0007	84.7
-0.0068	-0.0008	0.003	0.0015	84.6
-0.0091	0.0007	0.0037	0.0015	84.7
-0.006	-0.0008	0.0037	0.0015	84.6
0.0142	-0.0008	0.0007	0.0022	84.6
0.042	0.0007	-0.003	0.0007	84.6
0.0495	0.0007	-0.0015	0.0007	84.4
0.039	0.0015	-0.0023	0.0007	84.5
0.0217	0.0015	-0.0015	0.0015	84.1
0.0105	0.0022	0	0.0007	84.3
0.0082	0.0007	0.003	0.0007	84.1
-0.0023	0	0.0045	0	84.2
-0.0091	-0.0008	0.0052	-0.0015	83.8
-0.0195	-0.0008	0.0067	-0.0008	83.8
-0.0308	-0.0015	0.009	-0.0008	83.8
-0.0225	-0.0008	0.0045	0.0007	83.8
-0.003	0.0007	-0.003	0	83.7
0.0067	0	-0.0068	-0.0008	83.5
-0.003	-0.0015	-0.0068	0	83.7
-0.012	-0.0015	-0.006	0	83.4
-0.0225	0.0015	-0.0053	0.0007	83.4
-0.0308	0.0022	-0.003	0	83.3
-0.0278	0.0007	0.0037	-0.0008	83.2
0.0037	0.0015	0.0037	-0.0015	83.2
0.039	-0.0008	0.003	-0.0015	83
0.003	-0.0008	0.003	0.0007	83
-0.0405	0.0015	0	-0.0008	82.8
-0.0593	0.0007	-0.0015	-0.0008	82.9
-0.06	0.0007	-0.0053	-0.0008	82.5
-0.033	0	-0.0083	-0.0008	82.5
-0.024	-0.0008	-0.0098	-0.003	82.4
-0.0158	-0.0008	-0.0105	-0.003	82.3
0.0022	0	-0.0068	-0.0008	82.4
0.021	0.0022	-0.0046	-0.0008	82.3
0.0382	0.0037	-0.0053	0.0022	82.3
0.0555	0.003	-0.0068	0.0007	82.1
0.0675	0.003	-0.0091	-0.0008	82
0.0607	0.0037	-0.0091	0.0015	81.8
0.0397	0.003	-0.0083	0.0015	81.7
0.0202	0.003	-0.0105	0.0015	81.6
0.0105	0.003	-0.0091	0.0015	81.4
0.0022	0.0015	-0.0128	-0.0008	81.4
0.0022	0.0007	-0.012	-0.0008	81.3
0.0075	0.0015	-0.0105	-0.0008	81.2
0.0067	0.0007	-0.0091	-0.0015	81.1
0.0007	-0.0008	-0.0053	-0.0008	81.1
-0.0053	-0.0008	-0.0046	0	80.9
-0.0083	0.0007	-0.0008	0.0007	80.9
-0.0068	0.0007	0.0022	0.0007	80.6
-0.003	0.0007	0.0045	0.0007	80.6
0.0007	-0.0008	0.0067	0.0015	80.6
0.003	0.0007	0.006	0.0015	80.3
0.006	-0.0008	0.0037	0.003	80.3
0.0052	-0.0008	0.0015	0.0037	80.2
0.0037	0	0.0015	0.003	80.1
0.0112	-0.0008	0.0007	0.0007	80
0.0292	-0.0008	-0.0015	0.0015	79.7
0.039	-0.0008	-0.0046	0.0015	79.8
0.027	-0.0015	-0.0046	0.0015	79.5
0.018	-0.0015	-0.0053	0.0015	79.6
0.0112	-0.0023	-0.0053	0	79.2
-0.0008	-0.0023	-0.0046	0.0007	79.2
-0.0158	-0.0015	-0.003	-0.0008	79.1
-0.0375	-0.0023	-0.0038	-0.0008	78.9
-0.048	-0.003	0.0007	-0.0015	79
-0.045	-0.0015	0.003	-0.0008	78.7
-0.0195	-0.0008	0.0037	0.0007	78.7
-0.0068	0.0007	0.003	-0.0008	78.6
-0.0143	0	0.0015	-0.0015	78.5
-0.003	-0.0023	0.0015	-0.0008	78.2
-0.0091	-0.003	-0.0015	-0.0008	78
-0.0173	-0.003	-0.0068	-0.0015	77.9
-0.0173	-0.0023	-0.0091	0.0007	77.7
-0.0091	-0.0023	-0.0105	-0.0015	77.7
0.003	-0.0023	-0.012	-0.0008	77.7
0.0007	-0.0023	-0.012	-0.0008	77.5
0.0045	-0.0008	-0.0143	0.0007	77.2
-0.0053	0.0007	-0.015	0.0015	77.2
-0.0165	0	-0.0143	0.0015	76.9
-0.024	0.0015	-0.015	0.0015	76.9
-0.0308	0.0037	-0.012	0.0007	76.7
-0.0323	0.0015	-0.0105	0.0015	76.6
-0.0503	-0.0008	-0.0091	0.0015	76.5
-0.0495	0	-0.0091	0.0022	76.3
-0.0195	0.0015	-0.0083	0.003	76.5
0.012	0.003	-0.0068	0.0022	76.2
0.0352	0.0022	-0.0091	0.0015	75.8
0.054	0.0015	-0.0091	-0.0008	75.8
0.054	0.0007	-0.0091	-0.0015	75.6
0.0502	0.0007	-0.006	-0.0008	75.6
0.0525	0.0007	-0.0053	-0.0008	75.3
0.0472	-0.0008	-0.0038	-0.0023	75.3
0.0277	-0.0008	0.0007	-0.0015	74.9
0.0052	-0.003	0.003	0.0007	75.1
-0.0046	-0.0023	0.0007	-0.0008	74.8
-0.0135	-0.0023	-0.0053	-0.0008	74.6
-0.0195	-0.0008	-0.0068	-0.0008	74.6
-0.0285	0.003	-0.0053	0.0007	74.3
-0.0278	0.003	-0.0046	0	74.2
-0.0181	0.003	-0.003	0.0007	73.9
-0.0158	0.0022	0.0022	0	74
-0.0083	0.003	0.006	-0.0008	73.7
-0.0091	0.0015	0.0067	-0.0008	73.6
-0.0091	-0.0008	0.009	-0.0015	73.4
-0.0046	-0.0008	0.012	-0.0015	73.4
0.0007	-0.0023	0.0127	-0.0015	73.1
0.009	-0.0023	0.0142	-0.0008	72.9
0.0135	-0.0015	0.018	-0.0008	72.8
0.0067	-0.0015	0.0187	-0.003	72.6
-0.0046	-0.003	0.0165	-0.003	72.6
-0.0008	-0.0015	0.0195	-0.003	72.4
0.0037	-0.0008	0.0217	-0.0008	72.3
0.0007	-0.0015	0.024	0.0007	72.1
0.003	0.0007	0.0232	-0.0015	71.9
0.0075	0.0015	0.0202	-0.0015	72
0.012	0.0007	0.021	-0.0008	71.5
0.0135	0.0007	0.0195	0.0007	71.6
0.0127	0.0015	0.0142	0.0007	71.3
0.0232	0.0007	0.0112	-0.0008	71.3
0.0502	0.0007	0.0105	-0.0008	71.1
0.0382	-0.0008	0.0097	-0.0023	71.1
-0.0181	-0.0015	0.009	-0.003	70.8
-0.0465	-0.0015	0.0067	-0.0015	70.6
-0.0555	-0.0008	0.0075	-0.0008	70.6
-0.0405	-0.0008	0.0097	-0.0015	70.3
-0.0218	-0.0023	0.0142	-0.0015	70.3
-0.0203	-0.0038	0.0232	0	70.1
-0.0233	-0.003	0.0217	0.0007	69.9
-0.0188	0	0.0157	0.0015	69.8
-0.0008	0.0007	0.0135	0.0015	69.7
0.0165	0.0007	0.0067	0.0022	69.7
0.0322	0.0007	0.0045	0.0022	69.3
0.0345	0.0015	0.0022	0.0007	69.4
0.0225	0.0015	0.0015	0.0007	69.1
0.0045	0.003	0.0052	0.0015	69.1
0.003	0.0045	0.009	0.0015	68.8
0.0045	0.0045	0.0045	-0.0008	68.8
0.0112	0.003	0.0007	-0.0015	68.3
0.0247	0.0015	-0.0015	-0.003	68.3
0.0315	0.0007	-0.003	-0.0015	68.2
0.0457	0.0007	-0.0046	-0.0008	68.1
0.0315	0.0007	-0.0046	-0.0008	68
0.009	0.0015	-0.006	0.0007	67.7
-0.0015	0.0007	-0.0098	0	67.5
-0.0195	0.0007	-0.012	-0.0008	67.4
-0.0308	-0.0008	-0.0128	0.0007	67.2
-0.0458	-0.0015	-0.012	0.0015	67.1
-0.0495	-0.0015	-0.0091	0.0007	67
-0.0405	-0.0015	-0.0091	0.0007	66.9
-0.03	0.0007	-0.0091	0.0022	66.4
-0.027	0.0007	-0.0068	0.0007	66.6
-0.0143	-0.0015	-0.0083	0.0007	66.2
0.0075	0	-0.0098	0.0007	66.2
0.0127	-0.0015	-0.0113	0.0015	65.9
0.018	-0.003	-0.012	0.0015	66
0.0157	-0.0023	-0.0113	0.0007	65.6
0.0105	-0.0015	-0.0091	0.0007	65.6
0.0015	-0.0015	-0.0105	0.0007	65.4
0.0037	-0.0008	-0.0105	0.0007	65.2
0.0187	0	-0.0105	0.0022	65.1
0.0367	0.0007	-0.0128	0.003	65.1
0.0345	0.0015	-0.012	0.0007	64.8
0.0172	0	-0.0105	0.0007	64.5
0.0082	-0.0008	-0.0143	0.0007	64.6
-0.0083	-0.0008	-0.0181	0.0007	64.3
-0.0068	-0.0015	-0.0165	0	64.2
-0.0128	-0.0015	-0.015	-0.0015	64
-0.0278	-0.0008	-0.0135	0.0007	63.9
-0.024	0	-0.0098	0.0007	63.9
-0.0008	0.0007	-0.0053	-0.0015	63.4
0.0367	0.0007	-0.003	0	63.6
0.0532	0	-0.0053	-0.0008	63.2
0.048	0.0007	-0.0075	0.0007	63.1
0.0157	0.0015	-0.0128	0.0015	63
-0.024	0.0007	-0.0181	0.0007	62.7
-0.0518	0	-0.0181	0.0015	62.7
-0.0465	-0.0008	-0.0181	0	62.5
-0.0256	-0.0015	-0.012	-0.0008	62.5
-0.0233	0	-0.0105	-0.0008	62
-0.0105	0.0007	-0.0075	-0.0023	62.2
-0.0008	0.0007	-0.0008	-0.0015	62
0.003	-0.0008	-0.0008	-0.0015	61.9
0.0067	-0.0015	0.0007	-0.0015	61.7
0.0082	-0.0008	0.0022	-0.0015	61.6
0.0127	0	0.0037	-0.0015	61.4
0.0157	0.0007	0.0015	0	61.2
0.0202	0.0007	-0.0015	-0.0008	61.2
0.0202	0.0007	-0.0008	-0.0008	60.8
0.012	-0.0008	-0.0008	-0.0008	60.9
-0.0008	-0.0008	0.0007	-0.0023	60.7
-0.0091	-0.0008	-0.0008	-0.0015	60.5
-0.0165	-0.0015	-0.0008	-0.003	60.4
-0.0195	-0.0008	-0.0008	-0.0015	60.3
0.0067	0	0.0015	0	60.1
0.0277	-0.0008	0.0052	-0.0008	59.9
-0.015	-0.0008	0.0037	0	59.8
-0.0675	-0.0015	0.0015	-0.0008	59.7
-0.0743	-0.0023	0.0015	0.0007	59.7
-0.0675	-0.0015	0.0037	0.0015	59.4
-0.0428	-0.0008	0.0037	-0.0008	59.3
-0.0083	0	0.0045	0.0015	59.1
0.0165	0.0015	0.0052	0.0015	58.9
0.0457	0.0015	0.003	0.0015	58.9
0.0675	0.0022	0.003	0.0007	58.7
0.0862	0.0015	0.003	0.0007	58.6
0.1132	0.0007	0.003	0.0007	58.3
0.1012	0.0015	0.0015	0	58.2
0.0517	0.0007	0.0015	0.0015	58.1
0.03	0.0007	0.0015	0.0007	58
0.0127	0.0007	0.0067	0	57.9
-0.0046	0	0.0112	-0.0023	57.6
-0.0143	0.0015	0.009	-0.0023	57.6
-0.0353	0	0.0052	-0.003	57.4
-0.0503	-0.0008	0.0045	-0.0008	57.2
-0.0555	0.0007	0.0007	-0.0008	57
-0.0615	-0.0008	-0.0015	-0.0015	57
-0.054	0.0007	-0.003	-0.0015	56.9
-0.0375	0.0015	0	-0.0008	56.7
-0.0368	-0.0008	0.0067	-0.0008	56.7
-0.033	-0.0008	0.0045	-0.0008	56.3
-0.0278	0	0.003	-0.0008	56.5
-0.039	-0.0015	0.006	0.0007	56.2
-0.0428	-0.0023	0.0067	0.0007	56
-0.0128	-0.0023	0.0105	0.0015	55.8
0.0255	-0.0023	0.009	0.0015	55.7
0.057	-0.0023	0.0082	0.0022	55.7
0.057	-0.003	0.009	0.003	55.4
0.0382	-0.0015	0.006	0.0007	55.2
0.0532	-0.0008	0.003	0.0007	55.1
0.0502	-0.0023	0.0015	-0.0008	55.1
0.0285	-0.0015	0.003	-0.0008	54.8
0.0015	-0.0023	0.0015	0.0007	54.8
-0.024	-0.0008	0.0045	0.0015	54.5
-0.0285	-0.0015	0.0045	0.0015	54.5
-0.0188	-0.0023	0.0007	0.0007	54.2
-0.0083	-0.0015	0.0015	-0.0008	54.2
-0.0091	-0.003	0.003	0.0007	54.2
-0.0105	-0.0015	0.0037	0.0015	54
-0.0083	-0.0008	0.0015	0.0015	53.8
-0.0083	0.0015	-0.0008	0.0007	53.5
-0.0046	0.0015	-0.0038	0	53.5
0.006	0.0007	-0.0053	-0.0008	53.4
0.0022	0.0022	-0.0038	-0.0008	53.2
0	0.0015	-0.006	-0.0023	53.1
-0.0046	0.0015	-0.0075	-0.0008	52.9
-0.0248	0	-0.0098	0.0007	52.8
-0.042	0	-0.0098	0.0007	52.6
-0.0443	-0.0008	-0.0091	-0.0008	52.5
-0.0143	-0.0015	-0.0105	-0.0008	52.5
-0.0046	-0.0008	-0.0053	-0.0008	52.4
-0.0256	-0.0008	0.0007	-0.0008	52.3
-0.0091	-0.0008	0.0075	-0.0008	51.9
0.0292	-0.0015	0.0105	0	52.1
0.0705	-0.0008	0.0067	-0.0008	51.8
0.0922	0.0007	0.0075	-0.0008	51.7
0.0705	0.0015	0.009	0.0015	51.7
0.0457	0.0015	0.0097	0.0007	51.6
0.0202	0.0015	0.0075	0.0007	51.4
0.0067	0.0022	0.0052	0.0007	51.1
0.0142	0.003	0.0045	0	51.3
-0.0068	0.003	-0.003	0.0007	50.9
-0.0383	0.0015	-0.0083	0	50.9
-0.0233	0.003	-0.0091	0.0015	50.6
-0.0046	0.0022	-0.0128	0.0007	50.7
0.006	0.0007	-0.0158	0	50.4
0.012	0.0007	-0.015	-0.0008	50.4
-0.0046	-0.0008	-0.0105	0	50.4
-0.0233	0.0007	0.0052	-0.0008	50.2
-0.0405	-0.0008	0.0202	-0.0015	50.2
-0.0315	-0.003	0.0225	-0.0015	50
-0.0248	-0.0015	0.0172	-0.0008	49.9
-0.0293	-0.0023	0.009	-0.0008	49.9
-0.0083	-0.0015	0	-0.0015	49.7
0.0217	-0.0015	-0.0053	-0.0015	49.5
0.0615	-0.0008	-0.0068	0	49.3
0.0795	0.0007	-0.0083	0.0015	49.3
0.033	0.0015	-0.0075	0.0007	49.1
-0.0158	0.0022	-0.0038	0.0022	49.3
-0.042	0.003	-0.0008	0.0015	49
-0.0698	0.0007	-0.0023	0.0007	49
-0.0735	0.0007	-0.003	0.0007	48.6
-0.0893	-0.0015	-0.003	-0.0023	48.6
-0.0983	-0.003	0.003	-0.0015	48.5
-0.0563	-0.0008	0.0112	0.0007	48.5
-0.0308	0.0015	0.0082	0.0007	48.4
-0.0353	0.0022	-0.0008	0.0015	48.4
-0.0165	0.0015	-0.003	0.0007	48.2
0.009	0.0007	-0.0038	0.0022	47.9
0.0127	-0.0008	-0.0053	0.0022	48
0.015	-0.0015	-0.0083	0.0015	47.8
0.054	-0.0015	-0.0128	-0.0008	47.7
0.0772	-0.003	-0.0135	-0.0038	47.6
0.0405	-0.003	-0.0128	-0.0008	47.5
-0.0038	0.0007	-0.0143	-0.0008	47.5
-0.021	0.0007	-0.012	-0.0015	47.2
0.012	0	-0.0135	-0.0008	47.1
0.0847	-0.0008	-0.0143	-0.003	47.1
0.1275	-0.0008	-0.0143	-0.0038	47.1
0.1215	-0.0008	-0.0165	-0.003	46.9
0.105	0	-0.0128	-0.0008	46.9
0.054	0.0015	-0.0053	-0.0008	46.8
-0.003	0.0015	0.0045	-0.0015	46.8
-0.039	0.0007	0.0052	-0.0008	46.7
-0.0638	0.0007	0.003	0	46.4
-0.0525	0.0015	-0.0008	0.0007	46.4
-0.0181	0.0007	-0.0113	-0.0015	46.2
0.0075	0.0007	-0.0173	0	46
-0.0008	0.0007	-0.0218	-0.0008	46.1
-0.0165	0.0007	-0.027	-0.0008	46
-0.0181	0.0007	-0.0285	0	46
-0.0046	0.0007	-0.0285	0.0007	45.9
0.0292	0	-0.0278	0.0015	45.8
0.0337	-0.0015	-0.0263	-0.0008	45.6
0.0427	-0.0015	-0.0173	-0.0015	45.7
0.0855	-0.0023	-0.0075	-0.003	45.3
0.0885	-0.003	0.0022	-0.0015	45.4
0.027	-0.003	0.0195	-0.0008	45.3
-0.0615	-0.0015	0.027	-0.0015	45.3
-0.0668	-0.0008	0.0255	0.0007	45.1
-0.0091	-0.0008	0.0217	-0.0008	45
0.0292	-0.0008	0.0165	-0.0008	45
-0.0428	0	0.0127	0.0007	44.9
-0.1718	0.0007	0.0067	-0.0008	44.8
-0.1613	0.0007	-0.0015	-0.0015	44.7
-0.096	-0.0008	-0.0068	-0.0015	44.5
-0.0135	0.0015	-0.0105	-0.0008	44.5
0.057	0.0015	-0.0105	0	44.2
0.072	0.0015	-0.0091	-0.0008	44.3
0.0585	0.0007	-0.0105	-0.0015	44.1
0.0112	-0.0008	-0.0113	-0.0023	44.2
-0.0128	0.0007	-0.012	-0.0008	43.9
-0.024	0.0015	-0.0128	0.0015	43.9
-0.0308	0.0007	-0.0091	0.0015	43.6
-0.033	0	-0.0068	0.0007	43.8
-0.012	0.0007	-0.0091	0	43.6
0.009	-0.0008	-0.006	0	43.6
0.0052	-0.0008	0.0045	0	43.3
0.0037	-0.0008	0.0112	0.0015	43.3
0.0127	0.0007	0.0052	0.003	43.3
0.0202	0.0022	-0.0015	0.0015	43.1
0.0165	0.0007	0.0007	0.0007	43.1
0.0202	-0.0008	0.0007	0.0015	42.9
0.0142	-0.0023	0.0015	0.0007	42.8
0.0112	-0.0015	0.0045	0.0015	42.8
0.015	-0.0008	0.006	0.0007	42.6
0.012	-0.0015	0.0067	0	42.5
0.0127	-0.0008	0.0075	0.0015	42.4
0.0127	-0.0015	0.009	-0.0008	42.4
0.0157	-0.0015	0.012	0.0007	42.2
0.024	0	0.0135	0.0015	42.2
0.0465	-0.0008	0.0135	0	42
0.039	0	0.0142	-0.0008	41.9
0.003	-0.0008	0.0142	-0.0008	41.8
-0.024	-0.0008	0.0165	0	41.6
-0.0578	0.0022	0.0247	0.0007	41.7
-0.0638	0.0037	0.0285	0.0007	41.6
-0.0428	0.003	0.027	0.0007	41.5
-0.024	0.0007	0.03	0	41.4
0.0022	0.0007	0.0277	0.0007	41.3
0.0082	0.0022	0.0232	-0.0008	41.2
0.0142	0.0007	0.0217	0	41
0.066	0.0015	0.0202	0.0007	41
0.108	0.0007	0.0217	-0.0008	40.7
0.0517	-0.0015	0.0247	0	40.9
-0.0188	0.0007	0.0255	-0.0008	40.6
-0.0346	-0.0008	0.0195	0	40.7
-0.0323	0.0007	0.015	0.0007	40.5
-0.054	0.0015	0.0165	0.0007	40.4
-0.1006	0.0015	0.018	0.0022	40.3
-0.0788	0.003	0.015	0.0007	40.2
-0.0338	0.0007	0.0067	-0.0015	40.2
0.0067	-0.0008	0.0022	-0.0008	40
0.024	-0.0015	0.003	0.0007	40
0.009	-0.0015	0.003	0.0015	40
0.0112	-0.0008	-0.0015	-0.0008	39.8
0.0172	-0.0008	-0.0075	0.0007	39.6
0.0277	0	-0.0075	0.0015	39.4
0.027	-0.0008	-0.0068	-0.0008	39.5
0.042	-0.0008	-0.0075	0.0007	39.1
0.0375	0	-0.0068	0.0007	39.3
0.0292	0.0015	-0.0038	0.0007	39.2
0.0277	0	-0.0015	-0.0015	39.1
-0.0053	-0.0015	-0.0038	-0.0015	39.1
-0.0181	0	-0.0008	-0.0008	38.9
-0.0173	0.0007	0.0045	-0.0008	38.8
-0.0165	-0.0015	0.0015	-0.0008	38.7
0.0157	-0.0008	-0.0105	-0.0008	38.7
0.0165	-0.0008	-0.0181	-0.0008	38.5
-0.0173	-0.003	-0.0158	-0.0015	38.6
-0.0285	-0.0038	-0.015	-0.0008	38.3
-0.048	-0.0015	-0.015	0	38.5
-0.0203	-0.0008	-0.0195	-0.0008	38
0.0202	-0.0015	-0.0173	0	38.1
0.0352	-0.0015	-0.0143	0.0007	38
0.0585	-0.0023	-0.0195	-0.0015	37.9
0.0337	-0.0023	-0.0203	-0.0015	37.8
0.0037	-0.0023	-0.0158	-0.0008	37.6
-0.0143	-0.0023	-0.0068	0	37.7
-0.0293	-0.0008	-0.006	0.0015	37.5
-0.03	0.0007	-0.0181	0.0007	37.5
-0.0263	0.0007	-0.0181	0.0015	37.3
-0.0173	0.0015	-0.0188	0.0007	37.1
-0.012	0.0015	-0.0195	0.0022	37.2
0.024	0.0015	-0.0195	0.0022	37
0.0832	0.0015	-0.0218	0.0007	37.1
0.1042	0.0015	-0.0181	0.0007	36.8
0.0645	0.0007	-0.0158	0.0007	36.8
-0.0068	0.0015	-0.015	0.0015	36.6
-0.084	0.0007	-0.0105	0.0007	36.7
-0.1335	0.0015	-0.0053	0.0007	36.4
-0.159	0.0015	-0.0053	-0.0008	36.5
-0.1441	0.0007	-0.0053	-0.0008	36.5
-0.0765	0	-0.0038	-0.0015	36.3
-0.0285	-0.0008	-0.0083	-0.0015	36.1
-0.003	-0.0015	-0.0105	-0.0015	36.1
0.0217	-0.0023	-0.0098	-0.003	35.9
0.039	-0.0015	-0.0105	-0.0023	36
0.0622	-0.0015	-0.0113	-0.0023	35.7
0.0862	-0.003	-0.0113	-0.003	35.7
0.0705	-0.0023	-0.012	-0.003	35.6
0.0442	-0.0015	-0.0105	-0.0008	35.6
0.057	-0.0015	-0.0083	0.0007	35.3
0.099	0	-0.0038	0.0007	35.6
0.1335	0.0015	0.0007	0.0022	35.4
0.084	0.0015	-0.0008	0.0015	35.3
0.0225	0.003	-0.0046	0.0007	35.1
-0.0046	0.0037	-0.0075	0.0022	35.1
-0.0503	0.003	-0.006	0.0022	35.1
-0.1065	0.003	0	0.0015	34.9
-0.1403	0.003	0.0082	0.0015	34.9
-0.1448	0.0007	0.0142	0.0007	34.8
-0.12	-0.0008	0.0112	-0.0008	34.7
-0.0578	-0.0015	0.0037	-0.0008	34.6
-0.03	-0.0015	0.0045	-0.0015	34.5
-0.0405	-0.0008	0.0105	-0.0023	34.5
-0.0383	-0.0015	0.012	-0.0015	34.4
0.0075	-0.0008	0.0067	0	34.5
0.0517	-0.0008	0.0007	0	34.1
0.0457	0.0007	-0.0008	0.0007	34.4
0.0652	0.0015	-0.0038	-0.0015	34
0.1027	0.0007	-0.0038	-0.003	34.2
0.1155	-0.0008	-0.003	-0.0023	34
0.084	-0.0015	0.0015	-0.0008	34
0.0487	-0.0008	0.0067	0	33.9
0.0622	-0.0015	0.0105	0.0015	33.9
0.1327	0	0.0135	0.0045	33.5
0.1815	-0.0008	0.0082	0.003	33.5
0.0652	-0.003	0.006	0.0015	33.4
-0.0968	-0.0023	0.0082	0.0007	33.5
-0.1598	-0.0038	0.0067	0.0007	33.5
-0.1388	-0.003	0.0075	0.0007	33.3
-0.0053	-0.0008	0.0067	0.0015	33.3
0.0855	0.0007	0.003	0.0015	33.2
-0.0015	-0.0008	0.006	0.0007	33
-0.1298	-0.0008	0.0127	0	33
-0.165	0.0007	0.018	0.0007	33
-0.126	-0.0015	0.0232	-0.0008	32.9
-0.0795	-0.0015	0.0232	0	32.8
-0.0436	0.0007	0.0127	0.0015	32.8
-0.0195	0.0015	-0.0008	-0.0023	32.7
-0.0203	0.0015	-0.003	-0.0008	32.6
-0.0383	0.0015	-0.003	-0.0008	32.6
-0.0638	0.0007	-0.0053	-0.0015	32.4
-0.09	0	-0.0105	-0.0008	32.4
-0.0788	0.0007	-0.012	-0.0023	32.3
-0.0338	0	-0.0128	-0.0023	32.2
0.0075	0	-0.0181	-0.0015	32.4
0.1275	0.0015	-0.0225	0.0007	31.9
0.2557	0.003	-0.0233	0.0007	32.1
0.2295	0.0037	-0.0233	0.003	31.9
0.1305	0.0045	-0.0181	0.003	32.1
0.0277	0.0037	-0.0165	0.0007	31.8
-0.021	0.0015	-0.012	-0.0008	31.9
-0.0195	0.0007	-0.0008	-0.0008	31.6
-0.0278	0.0022	0.003	0.0007	31.7
-0.0181	0.0015	0.0045	0.0007	31.6
0.0247	-0.0008	0.0015	-0.0008	31.6
0.057	-0.0023	0.0007	-0.0015	31.6
0.0405	-0.0038	0.0105	-0.0023	31.6
0.0015	-0.0015	0.0075	-0.0015	31.3
-0.015	-0.0023	-0.0038	-0.0015	31.2
0.0007	-0.003	-0.0068	-0.0008	31.1
0.0135	-0.0008	-0.0053	-0.0015	31.1
0.0262	-0.0015	-0.003	-0.0015	31
0.0442	-0.0015	-0.0015	-0.0015	30.9
0.0337	-0.0023	0.0052	-0.0015	30.8
0.0052	-0.0015	0.0142	-0.0008	30.9
-0.0203	-0.0008	0.0195	-0.0008	30.6
-0.0405	-0.0015	0.0187	0.0015	30.7
-0.0503	0	0.0082	0.0015	30.6
-0.054	0.0007	0.0045	0.0037	30.7
-0.0473	0	-0.0046	0.0037	30.5
-0.0458	0.0007	-0.0105	0.0022	30.5
-0.0443	0	-0.0098	0.0015	30.2
-0.0248	-0.0008	-0.0143	-0.0015	30.3
0.0165	-0.0008	-0.0143	-0.0023	30.2
0.036	-0.0008	-0.015	-0.003	30.2
0.0165	-0.0008	-0.0083	-0.0015	30
-0.0046	-0.0008	-0.0015	0.0015	30
-0.0218	0	0.0007	0.0022	30
-0.0233	0.0007	0.0067	0.0045	29.9
-0.0465	0.003	0.0105	0.003	29.7
-0.0368	0.0022	0.0082	0.0015	29.7
-0.003	0	0.0045	0.0007	29.6
0.015	0.0015	0.0052	-0.0008	29.6
0.042	-0.0008	0.0067	-0.0008	29.6
0.0442	0	0.0127	0.0007	29.5
0.0495	0	0.0195	0.0007	29.2
0.0487	0	0.0217	-0.0008	29.3
0.024	0.0007	0.027	-0.0015	29.1
-0.0158	-0.0008	0.0315	-0.0015	29.1
-0.027	-0.0008	0.0307	-0.003	28.9
-0.027	-0.0008	0.0277	-0.0015	29
-0.0173	0	0.0232	-0.0015	28.9
-0.0083	-0.0015	0.0165	-0.0015	28.6
-0.0518	-0.0008	0.012	-0.0015	28.7
-0.075	0.003	0.0105	0	28.6
-0.0825	0.0007	0.009	-0.0008	28.6
-0.0638	-0.0008	0.0067	0	28.4
-0.0143	-0.0023	0.0105	-0.0015	28.3
0.0217	-0.0023	0.0105	-0.0038	28.4
0.0292	-0.0015	0.0075	-0.0038	28.3
0.009	-0.0038	0.0112	-0.0023	28.2
0.0292	-0.003	0.003	-0.0023	28
0.0502	-0.0008	-0.0113	0	28
0.0705	0.0015	-0.0113	0.0007	27.8
0.1192	0.0007	-0.0158	0.0007	27.8
0.1657	0	-0.0218	-0.0008	27.8
0.1462	-0.0008	-0.0143	-0.0008	27.6
0.0555	0	-0.003	-0.0015	27.5
-0.048	0.0015	0.0067	-0.0008	27.5
-0.1253	0.0015	0.0007	0.0007	27.6
-0.1583	0.003	0.006	0.0015	27.4
-0.1455	0.003	0.009	0.0045	27.1
-0.0825	0.0037	-0.006	0.0052	27.1
-0.039	0.0045	-0.0165	0.0052	27
-0.0128	0.0015	-0.0203	0.0045	27
0.0337	0.0015	-0.0181	0.0022	26.8
0.0667	0.0007	-0.0203	0.0007	26.9
0.0247	-0.0008	-0.0135	-0.0008	26.7
-0.0495	-0.003	-0.0023	-0.0046	26.8
-0.0713	-0.0053	-0.0068	-0.0038	26.5
-0.0548	-0.0038	-0.0113	-0.0015	26.4
-0.0143	-0.003	-0.012	-0.003	26.5
0.03	-0.0038	-0.0158	-0.003	26.4
0.0787	-0.003	-0.0181	-0.0015	26.5
0.1177	-0.003	-0.0218	-0.0008	26.1
0.0787	-0.003	-0.024	0.0007	26.2
0.0202	-0.0008	-0.0203	-0.0008	25.9
0.033	0.0015	-0.0195	0.003	26
0.1132	0.003	-0.0158	0.0037	25.8
0.138	0.003	-0.0015	0.003	25.9
-0.0068	0.0015	0.0217	0.003	25.9
-0.1838	0.0015	0.0307	0.003	25.6
-0.2183	0.0015	0.0105	0.003	25.6
-0.1381	0	-0.0008	0.0015	25.4
-0.0615	-0.0023	-0.003	0.0015	25.4
-0.0683	-0.0015	-0.0038	0.0037	25.3
-0.066	0.0007	-0.0068	0.0015	25.2
-0.0503	0.0007	-0.0143	0.0007	25.1
-0.0368	0.0007	-0.0053	0.0022	25.2
0.0165	0.0007	0.003	0.0007	25.1
0.0375	-0.0008	0.0075	-0.0008	24.9
0.0585	-0.0008	0.0127	-0.0008	24.8
0.0622	-0.0008	0.0082	-0.0023	24.7
0.036	-0.0008	0.0015	-0.0023	24.8
-0.0338	-0.0008	-0.0038	-0.0015	24.6
-0.0511	0	-0.0105	0	24.4
0.0007	0	-0.0158	0	24.5
-0.0173	-0.0015	-0.015	-0.003	24.4
-0.0068	0	-0.0105	-0.0015	24.4
-0.003	-0.0008	-0.0053	-0.0008	24.3
0.0262	-0.0015	-0.003	-0.0023	24.3
0.0975	-0.0008	-0.0008	-0.0015	24.1
0.0967	0.0007	0.0067	-0.0008	24.2
0.072	0.0007	0.0112	0	23.9
0.0442	0.0007	0.0187	0.003	23.9
0.0307	0.0015	0.0195	0.0015	23.8
0.0217	0	0.0172	0.0007	23.7
0.0457	-0.0008	0.0165	0.0015	23.7
0.087	0.0015	0.0135	0.0015	23.6
0.0735	0.003	0.015	0.003	23.5
0.0562	0.0007	0.009	0.0007	23.3
0.0165	-0.0015	-0.0091	-0.0015	23.2
-0.0361	-0.003	-0.0203	-0.003	23.3
-0.0361	-0.0046	-0.003	-0.0015	23
-0.0248	-0.003	0.0195	-0.0015	23
-0.0308	-0.0015	0.027	-0.0008	22.8
-0.0405	-0.0015	0.033	0.0007	22.9
-0.0293	0	0.0352	0	22.6
-0.0375	-0.0008	0.0277	0	22.8
-0.0353	0.0015	0.012	0.003	22.6
-0.0091	0.0052	0.012	0.0037	22.6
-0.0075	0.0045	0.0135	0.0022	22.5
-0.0091	0.003	0.0082	0.0007	22.1
-0.021	0.0045	0.0015	0.0015	22.4
-0.0203	0.0052	-0.0195	0.0007	22.1
-0.0181	0.0045	-0.0203	0	22
-0.0075	0.003	-0.0203	0.0007	21.8
0.0157	0.0015	-0.0233	0.0015	21.8
0.0345	0.003	-0.012	-0.0008	21.9
0.0397	0.0015	-0.0068	-0.0015	21.5
0.0037	0.0015	-0.0046	-0.0015	21.5
-0.0225	0.0007	-0.006	-0.0008	21.4
-0.0293	-0.0008	-0.0053	-0.0008	21.5
-0.0053	-0.0023	-0.012	-0.003	21.1
0.024	-0.003	-0.0173	-0.0015	21.1
0.0255	-0.0015	-0.0158	0.0007	21.1
0.0465	0	-0.0173	0.0015	21
0.0517	-0.0008	-0.0181	0.0007	21
0.0255	-0.0023	-0.0203	0.0007	20.7
0.0052	-0.003	-0.0233	-0.0015	20.8
0.003	-0.0046	-0.0218	-0.003	20.5
0.0067	-0.0068	-0.0105	-0.0046	20.6
-0.0158	-0.0046	-0.0068	-0.003	20.3
-0.012	-0.0046	-0.0188	-0.0038	20.4
0.0255	-0.003	-0.021	-0.0023	20.2
0.024	-0.0015	-0.0158	0.0015	20
0.0142	0.0007	-0.0188	0.0007	20
0.0082	0.0015	-0.0195	0.003	19.8
0.0052	0.0052	-0.021	0.0015	19.9
0.0142	0.0052	-0.0195	-0.0015	19.6
-0.0038	0.0015	-0.015	-0.0015	19.7
-0.0023	0.0015	-0.0105	-0.003	19.6
0.0517	0.0007	-0.012	-0.0008	19.5
0.057	0.0022	-0.0218	-0.0008	19.5
-0.024	0.0022	-0.0293	-0.0008	19.2
-0.0495	-0.0008	-0.0308	0	19.3
-0.0173	-0.0008	-0.0263	-0.0008	18.9
0.015	-0.0023	-0.0181	-0.003	19
0.0262	-0.0038	0.0082	-0.0046	18.8
-0.0165	-0.003	0.0195	-0.003	18.9
-0.0555	-0.0015	0.0007	-0.0008	18.9
-0.057	0	-0.006	0	18.4
-0.0691	-0.0008	-0.006	-0.0008	18.7
-0.0563	-0.0015	-0.003	0.0022	18.5
-0.0263	-0.0015	-0.0008	-0.0008	18.5
-0.0285	-0.0008	0.0045	0.0007	18.3
-0.0105	0.0015	0.0187	0.0022	18.4
0.0127	0.0007	0.024	0.0015	18.1
-0.0008	0.0007	0.0285	0.003	18.3
-0.012	0.0007	0.03	0.003	18.1
0.0172	0.0045	0.0352	0.0045	17.9
0.0517	0.0075	0.0442	0.0045	18
0.1155	0.0067	0.0345	0.0037	17.6
0.0795	0.0045	0.0202	0.0015	17.9
-0.0338	0.0007	0.0075	-0.003	17.6
-0.0938	-0.0038	-0.003	-0.0046	17.6
-0.1553	-0.0046	-0.0008	-0.0023	17.4
-0.1358	-0.0015	0.0052	0.0015	17.5
-0.0458	0.0015	0.0052	0.0007	17.5
0.0127	0.0015	-0.0068	0.0015	17.3
0.0112	0.003	-0.0113	0.0015	17.2
0.0007	0.0007	-0.0128	0.0007	17
-0.0038	-0.003	-0.0143	-0.0015	17.1
-0.0278	-0.0046	0.0045	-0.0038	17
-0.0495	-0.0023	0.009	0.0007	17
-0.027	0.0007	0.0112	0.0015	16.8
-0.0165	0.003	0.0255	0.0037	16.6
-0.0083	0.0045	0.0202	0.0052	16.6
0.0375	0.0052	0.0135	0.0037	16.5
0.069	0.003	0.0052	0.003	16.6
0.12	0.0007	-0.0015	0	16.3
0.1882	-0.0015	0.0015	-0.0008	16.3
0.2287	-0.003	0.0052	-0.0046	16.3
0.1425	-0.0046	0.0022	-0.006	16.2
-0.0975	-0.006	0.0052	-0.0053	16.2
-0.3113	-0.0038	0.0187	-0.0015	16
-0.2693	0.0007	0.0142	0.0007	15.9
-0.084	0	0.0127	0.0007	15.9
0.0127	-0.0008	0.0165	0.0007	15.7
0.0247	-0.0008	0.0082	-0.0008	15.7
0.018	-0.0008	0.0015	0	15.7
0.0495	-0.0008	0.0045	-0.0015	15.7
0.0532	-0.0015	0.0105	-0.0008	15.4
0.0607	-0.0008	-0.0068	-0.0008	15.6
0.1005	0.0022	-0.0248	0.0007	15.2
0.0382	0.0045	-0.0181	0.0007	15.3
0.006	0.0052	-0.0173	0.003	15.1
0.0165	0.0052	-0.0181	0.0045	15.3
-0.0015	0.0022	-0.012	0.0007	14.9
0.039	-0.0015	-0.0098	-0.0038	15
0.039	-0.0068	-0.0008	-0.0068	15
0.0007	-0.0083	0.003	-0.0053	14.8
-0.0091	-0.0053	0.0007	-0.0038	14.8
0.024	-0.0015	0.003	-0.0023	14.6
0.0637	0.0007	0.0037	-0.0008	14.8
0.0645	0.0022	0.0015	0.0015	14.7
0.0315	0.0045	0.0015	0.0037	14.5
0.0007	0.003	-0.0105	0.0037	14.4
0.024	0.0022	-0.0218	0.003	14.4
0.018	0.0015	-0.0105	0.0015	14.3
-0.0091	0.0007	-0.0068	0.0022	14.1
-0.0091	0.0015	-0.0158	0.0015	14.3
-0.0053	0	-0.0128	-0.0008	13.9
-0.0083	0.0007	-0.012	0.0007	14.1
-0.0225	0.0022	-0.0046	0	13.9
-0.0263	0.0007	0.0022	0	13.9
-0.0323	0.0007	-0.003	0.0007	13.8
-0.0361	0.0007	-0.0083	-0.0008	13.6
-0.0278	-0.0015	-0.0091	-0.0015	13.5
-0.0488	-0.003	-0.0105	-0.0038	13.5
-0.0653	-0.0053	-0.0181	-0.006	13.4
-0.0623	-0.0053	-0.0233	-0.0053	13.5
-0.06	-0.0046	-0.0203	-0.0046	13.3
-0.0315	-0.0015	-0.0083	-0.0038	13.4
-0.0008	-0.0008	-0.006	0	13.3
0.0045	-0.0008	-0.0233	-0.0008	13.1
-0.0075	-0.0046	-0.0346	-0.0023	13
0.0202	-0.0046	-0.0203	-0.0008	13
0.0637	-0.0023	-0.0068	0	13
0.0345	-0.0038	0.0052	0.0007	13
-0.0015	-0.0015	0.0202	0.003	12.8
0.018	0.0015	0.0195	0.0045	12.8
0.0817	0.0015	0.0202	0.0045	12.6
0.156	0.0045	0.0105	0.006	12.8
0.12	0.0052	-0.0015	0.0052	12.6
-0.0203	0.003	-0.003	0.0022	12.7
-0.1253	-0.0008	-0.0128	-0.0008	12.4
-0.21	-0.0015	-0.024	-0.0015	12.3
-0.2468	-0.0015	-0.0308	-0.0015	12.3
-0.1711	-0.0008	-0.027	0	12.3
-0.0518	0.0007	-0.0323	0.0007	12
0.0315	-0.003	-0.033	-0.0015	12.2
0.0472	-0.006	-0.0165	-0.0038	12.1
0.0547	-0.0053	-0.0068	-0.0038	12
0.0555	-0.003	0.0045	-0.003	11.8
0.048	-0.0015	0.012	-0.0008	11.9
0.0465	-0.0015	0.0157	-0.0015	11.7
0.0427	-0.003	0.0202	-0.003	11.8
0.0277	-0.0015	0.012	0.0015	11.6
0.003	0.0045	-0.0046	0.003	11.6
-0.0015	0.0067	-0.0046	0.0022	11.5
-0.0083	0.0082	0.003	0	11.6
-0.0015	0.0037	0.0127	-0.0015	11.6
-0.0083	0.0015	0.0195	0.0015	11.4
-0.0293	0.0052	0.0202	0.003	11.3
-0.0368	0.0052	0.0322	0.003	11.3
-0.0375	0.0052	0.0315	0.0015	11.4
-0.0233	0.0037	0.0202	-0.0008	11.1
-0.024	0.0007	0.021	-0.0015	11
-0.0465	0.0007	0.0277	-0.0015	11.1
-0.015	-0.003	0.0292	-0.003	10.9
0.0502	-0.0046	0.0217	-0.0038	11
0.0172	-0.003	0.018	-0.0008	10.7
-0.0353	-0.0015	0.0105	-0.0008	10.9
-0.0615	0.0007	0.0007	0	10.6
-0.057	-0.0015	-0.0091	-0.0023	10.7
0.0157	-0.0038	-0.0046	-0.0046	10.7
0.051	-0.003	0.0075	-0.003	10.6
0.1005	-0.0023	0.0127	-0.0008	10.6
0.1312	-0.0008	0.0127	0.0015	10.5
0.0727	0	0.015	0.0015	10.4
-0.0053	-0.0008	0.027	0.0015	10.3
-0.0638	-0.0008	0.042	0.0007	10.4
-0.0488	0.0007	0.0495	0.0007	10.1
-0.0023	-0.0008	0.0457	0.0007	10.2
0.0465	-0.003	0.0345	-0.0008	10.2
0.039	-0.0015	0.033	0.0007	10
0.003	-0.0015	0.024	-0.0015	10.1
-0.0165	-0.003	0.0157	-0.0023	10.1
0.003	-0.0015	0.012	-0.003	10.1
0.042	-0.0023	0.0045	-0.0053	9.9
0.03	-0.0023	0.0022	-0.0053	9.9
0.0345	-0.0008	0	-0.0046	9.7
0.024	-0.0015	0.0045	-0.0046	9.8
0.0105	-0.003	0.0037	-0.0046	9.6
0.0067	-0.0015	-0.0053	-0.0046	9.5
0.0105	-0.0023	-0.0128	-0.0046	9.5
0.027	-0.003	-0.0158	-0.0046	9.5
0.0307	-0.0038	-0.0083	-0.0046	9.5
0.0637	-0.006	-0.0068	-0.0068	9.5
0.0525	-0.006	-0.0008	-0.0053	9.5
-0.0165	-0.0023	0.0232	0	9.3
-0.063	0.0045	0.0322	0.0022	9.3
-0.0563	0.0067	0.0232	0.0037	9.3
-0.033	0.003	0.0165	0.0015	9.2
-0.0285	0.0015	0.0075	0.0015	9.3
-0.0285	0.003	-0.0068	0.0045	9
-0.0675	0.0045	-0.0105	0.0052	9.2
-0.0735	0.0015	-0.0128	0.003	8.9
0.0022	0.0015	-0.0203	0.0007	9
0.1282	0.0015	-0.027	-0.0008	9
0.1935	-0.0015	-0.0308	-0.003	9
0.1072	-0.003	-0.0218	-0.0038	8.9
0.0082	0	-0.0165	-0.003	8.7
-0.093	0.0007	-0.0173	-0.0015	8.9
-0.114	-0.0008	-0.0173	0	8.7
-0.0218	0.003	-0.0098	0.0022	8.7
0.039	0.0052	-0.0053	0.0045	8.7
0.018	0.003	-0.0098	0.003	8.7
-0.0233	0.0015	-0.012	0.003	8.7
-0.0368	0.0015	-0.0165	0.0015	8.5
-0.0608	0.0015	-0.0181	0.0007	8.6
-0.0653	0	-0.0158	0	8.4
-0.0585	-0.0008	-0.0218	-0.0015	8.6
-0.015	-0.0015	-0.0225	-0.0023	8.4
0.012	-0.0038	-0.0203	-0.0023	8.5
0.0022	-0.003	-0.0218	0	8.4
0.0112	-0.003	-0.0233	0	8.4
0.0217	-0.0046	-0.0308	0.0007	8.4
0.0202	-0.0046	-0.0308	0.0007	8.4
0.0067	-0.0023	-0.0195	0.0015	8.4
0.003	-0.0008	-0.0203	0.003	8
0.0022	0.0007	-0.0233	0.0045	8.3
0.009	0.0045	-0.024	0.0067	8.1
0.0427	0.003	-0.03	0.0037	8.2
0.0682	0.003	-0.0361	0	8.1
0.0757	0.0015	-0.0278	-0.0008	8.1
0.0517	-0.003	-0.015	-0.0015	8.2
0.0037	-0.0015	-0.0188	-0.003	8
-0.0165	-0.0015	-0.0263	-0.003	8
-0.0405	-0.003	-0.021	-0.0015	7.9
-0.042	-0.003	-0.0165	-0.0023	8.1
-0.0195	0.0015	-0.0098	-0.0023	7.9
-0.0203	0.0022	-0.0046	-0.0046	7.9
-0.0083	-0.0015	-0.0105	-0.0053	7.9
-0.0068	0.0007	-0.0165	-0.0038	7.7
0.0135	-0.0015	-0.0218	-0.0053	7.7
0.0405	-0.0015	-0.024	-0.0046	7.7
0.0277	-0.0015	-0.0195	-0.003	7.8
0.0435	-0.0015	-0.0158	0	7.6
0.0502	0.0015	-0.0165	0.0007	7.8
0.0105	0.0022	-0.0203	0.003	7.7
-0.024	0.0007	-0.0218	0.0007	7.6
-0.0713	-0.0046	-0.0203	-0.0053	7.7
-0.0765	-0.0083	-0.0158	-0.0075	7.6
-0.027	-0.0105	-0.0053	-0.0053	7.6
-0.0458	-0.0083	0.0052	-0.0015	7.6
-0.0203	-0.0015	0.0045	0.0022	7.8
0.0487	0.003	0.003	0.0045	7.7
0.054	0.0052	0.0127	0.0052	7.4
0.0412	0.0045	0.0165	0.0045	7.6
0.0292	0.0052	0.0217	0.0082	7.4
0.0307	0.0067	0.0225	0.0082	7.5
0.0315	0.0037	0.0172	0.0052	7.3
0.0495	0.0015	0.0157	0.0045	7.4
0.0352	-0.0015	0.0127	0.003	7.3
-0.0278	-0.0015	0.009	0.0015	7.4
-0.048	-0.0008	0.003	0	7.3
0.0052	-0.003	-0.003	0	7.3
0.045	-0.0015	0.0082	0	7.2
0.048	-0.0038	0.0232	-0.003	7.3
0.0435	-0.006	0.0217	-0.0015	7.2
-0.0083	-0.0053	0.0337	-0.0015	7.2
-0.0713	-0.0068	0.0502	-0.006	7.2
-0.0968	-0.0075	0.0345	-0.006	7.1
-0.0608	-0.0053	0.0075	-0.0015	7
-0.0195	-0.0015	-0.024	0.0007	7.1
0.0045	0.0007	-0.0128	0.0045	7
0.0165	0.003	0.0127	0.0052	7
0.015	0.0052	0.0195	0.0052	7
0.0165	0.0037	0.0367	0.006	7.1
-0.0023	0.0052	0.036	0.0045	7
-0.0128	0.0045	0.042	0.0045	7.1
-0.0203	0.0037	0.0322	0.0045	6.8
-0.0308	0.0045	0.0225	0.0037	7.1
-0.0293	0.0045	0.0292	0.003	6.8
0.0165	0.0052	0.018	0.0022	6.9
0.114	0.003	0.0052	0.0007	6.8
0.0862	0.0015	-0.0023	-0.0008	6.9
-0.0405	0.0015	-0.003	-0.0015	6.7
-0.1178	-0.0008	0	-0.003	6.8
-0.1628	-0.0015	0.0075	-0.003	6.8
-0.1245	-0.0023	0.0082	-0.0023	6.9
-0.0308	-0.0068	-0.0038	-0.0046	6.7
-0.0195	-0.0128	-0.0158	-0.0053	6.6
-0.0593	-0.012	-0.0248	-0.0068	6.7
-0.0315	-0.0083	-0.0233	-0.0068	6.4
0.003	-0.003	-0.0165	-0.0075	6.7
0.0375	0.0015	-0.0091	-0.0083	6.7
0.0637	0.0067	0.0015	-0.0023	6.5
0.033	0.0142	0.0015	0.0037	6.7
0.024	0.0157	0.0097	0.006	6.5
0.012	0.018	0.0292	0.0097	6.7
0.048	0.018	0.042	0.009	6.6
0.0787	0.0105	0.033	0.0052	6.7
-0.012	0.0067	0.0202	0.003	6.5
-0.0878	0.0022	0.0232	0.0015	6.4
-0.0803	0.0007	0.0195	0.0015	6.6
-0.0533	-0.0015	0.0217	0.0022	6.5
-0.0278	0.0007	0.0217	0.0022	6.5
-0.0008	0.003	0.0202	0.0022	6.5
-0.0233	0.0007	0.0202	0.0015	6.6
-0.0533	-0.0038	0.003	-0.0053	6.4
-0.06	-0.0091	-0.003	-0.0091	6.5
-0.084	-0.0091	-0.0046	-0.0091	6.4
-0.093	-0.0068	-0.0023	-0.0046	6.3
0.006	0.0022	0.0007	-0.0015	6.6
0.1485	0.0067	-0.0046	-0.0015	6.3
0.2205	0.0075	-0.0053	-0.0008	6.5
0.285	0.0037	-0.0173	-0.0038	6.1
0.1755	-0.0053	-0.0188	-0.0038	6.3
-0.0495	-0.0098	-0.0091	-0.003	6.3
-0.1913	-0.0068	0.0007	0	6.2
-0.2445	-0.0098	0.0112	0.0015	6.1
-0.1163	-0.0181	0.012	0.0022	6.3
-0.0256	-0.012	0.0142	0.0067	6.3
0.0352	-0.006	0.012	0.0082	6.1
0.0622	-0.0015	0.009	0.0082	6.3
0.0255	0.0082	0.0045	0.0075	6.2
0.0487	0.0052	0.0097	0.0015	6.2
0.0262	0.0007	0.015	0	6.1
0.012	-0.0015	0.0045	-0.0023	6.1
0.015	-0.0015	-0.003	-0.003	6.1
0.0232	0.0007	-0.0158	-0.003	6.1
0.0172	-0.0008	-0.0428	-0.0023	6.2
0.0045	-0.0015	-0.0578	-0.003	5.9
0.0495	-0.0068	-0.0405	-0.0068	6.2
0.1237	-0.0113	-0.0315	-0.0083	6
0.144	-0.0165	-0.0233	-0.0113	6
0.1267	-0.021	-0.0053	-0.0105	5.9
0.0465	-0.0128	-0.0008	-0.0046	6.1
-0.0608	-0.0008	0.0157	0.0037	6
-0.0091	0.0105	0.0195	0.0097	5.9
0.078	0.0157	0.0255	0.0105	6.2
0.027	0.0157	0.0232	0.0105	5.9
-0.0308	0.018	0.0157	0.0105	6.1
-0.0975	0.015	0.0097	0.0082	6
-0.1493	0.0082	-0.0075	0.0052	6
-0.0773	0.0045	-0.0105	0.0022	5.9
-0.006	0.0015	-0.0181	0.0015	5.9
-0.0098	0.0007	-0.0218	0.003	5.9
-0.0165	0.0022	-0.0165	0.0015	5.8
-0.003	0.0007	-0.0218	-0.0008	5.8
-0.0203	0.0015	-0.0195	-0.0008	5.8
-0.039	0.0015	-0.0173	-0.0023	5.8
-0.0578	0.0015	-0.0203	-0.0023	5.8
-0.0638	0.0007	-0.024	-0.003	5.8
-0.0578	-0.003	-0.0278	-0.0046	5.8
-0.0473	-0.0053	-0.0248	-0.0053	5.9
0.0045	-0.0046	-0.0218	-0.0046	5.9
0.0292	-0.0046	-0.0263	-0.0053	5.8
-0.0128	-0.0053	-0.0338	-0.0068	5.9
-0.012	-0.0053	-0.0346	-0.0046	5.8
0.0307	-0.0046	-0.0278	-0.0015	5.8
0.0457	-0.003	-0.0143	-0.0015	5.8
0.0495	-0.0023	-0.0105	0.0007	5.8
0.0412	-0.003	-0.0091	0.0022	5.8
0.0217	-0.0038	0.0082	0.006	5.8
0.0135	0	0.0217	0.0082	6
0.0232	0.003	0.012	0.0082	5.8
0.0112	0.0045	0.0052	0.0105	6
-0.0293	0.0075	0.0015	0.009	5.7
-0.0361	0.006	-0.0128	0.0052	5.8
-0.0361	0.0045	-0.0173	0.0052	5.8
-0.0436	0.003	-0.015	0.0045	5.7
-0.0091	0.0015	-0.0113	0.003	5.9
0.018	0.0015	-0.0083	0.0007	5.7
0.0135	-0.0023	-0.0083	-0.0023	5.8
0.027	-0.0046	-0.0046	-0.0038	5.8
0.0292	-0.003	0.0045	-0.0023	5.8
0.018	0	0.0067	-0.0008	5.6
0.018	0.0007	0.003	-0.0008	5.7
0.0502	0.0007	-0.0091	-0.003	5.7
0.1305	-0.0015	-0.0278	-0.0046	5.7
0.1462	-0.0038	-0.0346	-0.0046	5.7
0.0667	-0.0038	-0.027	-0.0053	5.6
0.0555	-0.006	-0.0158	-0.0068	5.6
0.0667	-0.0083	-0.0075	-0.006	5.7
-0.024	-0.0038	0.0045	-0.003	5.8
-0.1785	0.0022	0.0187	0.0007	5.8
-0.2333	0.0075	0.0345	0.0045	5.5
-0.1598	0.0105	0.0292	0.0037	5.8
-0.1095	0.0067	0.012	0.0022	5.5
-0.0555	0.0045	0.0135	0.0007	5.5
-0.0188	0.0052	0.0157	0.0007	5.5
0.0112	0.0037	0.018	0.0007	5.6
0.018	0.0045	0.0082	0.0007	5.5
-0.0068	0.0015	-0.0015	-0.0008	5.5
-0.0008	0.0007	0.0007	-0.0008	5.6
-0.0008	0.0015	-0.0008	-0.0023	5.7
0	0	-0.0015	-0.0046	5.4
-0.0105	-0.0008	-0.0038	-0.0038	5.6
0.0022	-0.0038	-0.0023	-0.0046	5.4
0.0037	-0.0053	-0.0053	-0.0053	5.5
-0.024	-0.0068	-0.0068	-0.0068	5.4
-0.0511	-0.006	-0.0098	-0.0053	5.3
-0.042	-0.006	-0.0158	-0.003	5.3
0.0067	-0.003	-0.0128	-0.0008	5.4
0.0592	0	-0.0143	-0.0008	5.4
0.1012	-0.0015	-0.0135	-0.003	5.3
0.1252	-0.0015	-0.003	-0.003	5.3
0.222	-0.0008	-0.0046	0.0007	5.4
0.3067	0.0015	-0.0158	0.0022	5.2
0.2032	0.0015	-0.012	0.0007	5.3
0.018	0.003	0	0.003	5.3
-0.1373	0.006	0.018	0.0022	5.3
-0.1838	0.003	0.0322	0.0007	5.4
-0.0495	0.0045	0.0187	0.0052	5.4
0.0345	0.0067	0.012	0.0067	5.3
0.0247	0.0037	0.0187	0.0045	5.3
0.042	0.0007	0.0142	0	5.4
0.1042	-0.003	0.0105	-0.0008	5.3
0.129	-0.0008	0.0082	-0.0015	5.3
0.0045	0	0.0075	-0.003	5.3
-0.1298	-0.0046	0.0052	-0.0038	5.2
-0.159	-0.0046	-0.0248	-0.003	5.2
-0.1043	-0.003	-0.0346	-0.0008	5.1
-0.0015	-0.0023	0.0007	-0.003	5.5
0.0975	-0.003	0.0052	-0.003	5.2
0.075	-0.0046	0.0067	-0.0068	5.4
-0.012	-0.0091	0.03	-0.0083	5.2
-0.0046	-0.0053	0.06	0.0007	5.3
-0.027	0.003	0.0765	0.0067	5.1
-0.0428	0.006	0.048	0.0075	5.3
-0.03	0.009	0.0307	0.0075	5.3
-0.0375	0.0105	0.0142	0.0052	5.1
-0.0113	0.0075	-0.012	0.0045	5.2
-0.0218	0.0052	-0.024	0.0045	5.1
-0.0218	0.0052	-0.0323	0.003	5.2
-0.024	0.0022	-0.0256	0	5.2
-0.0428	0	-0.027	-0.0023	5.2
-0.039	-0.003	-0.0278	-0.0046	5.1
-0.0413	-0.0053	-0.0218	-0.0046	5.2
-0.0308	-0.006	-0.0158	-0.0068	5.4
-0.039	-0.0083	-0.0181	-0.0091	5.1
-0.0383	-0.0105	-0.027	-0.0091	5.3
-0.0165	-0.0135	-0.0135	-0.0083	5.1
-0.0098	-0.0143	0.0307	-0.006	5.3
0.0045	-0.0091	0.084	-0.0046	5.1
0.0315	-0.0075	0.0675	-0.0046	5.3
0.0157	-0.0083	0.0202	-0.003	5
0.0007	-0.0046	0.0067	0.0022	5.2
0.0502	0.0082	-0.0083	0.0105	5.1
0.0435	0.0202	-0.0128	0.0165	5.1
-0.0128	0.0187	-0.0143	0.0157	5.2
-0.0278	0.015	-0.0091	0.0127	5.2
-0.0181	0.0157	-0.006	0.0105	5.2
-0.0053	0.0142	-0.0135	0.0075	5
0.003	0.0105	-0.0128	0.0045	5.2
0.003	0.0052	-0.0068	0.0015	5.2
0.0045	0.0022	0.0045	0	5.2
0.0067	-0.0008	0.0157	-0.0015	5.2
-0.0046	-0.003	0.012	-0.0046	5.2
-0.0165	-0.0046	0.0045	-0.0053	5.3
-0.0053	-0.0053	0.0165	-0.0053	5.2
0.0052	-0.0068	0.0225	-0.0053	5.1
0.0105	-0.0068	0.018	-0.0053	5.1
-0.0188	-0.0075	0.0127	-0.0053	5.1
-0.0856	-0.0046	-0.0053	-0.003	5.3
-0.1035	-0.003	-0.0203	-0.0038	5.3
-0.0953	-0.0053	-0.024	-0.0053	5.2
-0.0638	-0.0083	-0.027	-0.0068	5.1
0.009	-0.0083	-0.0181	-0.0053	5.1
0.0675	-0.0046	-0.012	0.0007	5.2
0.1057	0.0015	-0.0165	0.006	5.3
0.105	0.0037	-0.0143	0.0052	4.9
0.069	0.003	-0.0128	0.0015	5.2
0.0457	0.0007	-0.012	0	5
0.027	-0.0015	-0.0165	0	5.1
-0.0038	-0.0038	-0.0181	-0.0023	5.2
-0.0075	-0.0023	-0.0068	-0.0008	4.9
0.0082	0.0022	-0.0068	0.0007	5.3
-0.0091	0.0015	-0.0046	0.0015	5.3
-0.0443	0.0007	-0.0046	-0.0008	5.2
-0.0518	0.0015	-0.0053	-0.0015	5.1
-0.0645	0.0015	0.0015	0	5.3
-0.0668	0.0015	0.0075	0	5.3
0.0195	-0.0008	0.0097	0.0007	5.1
0.1695	-0.003	0.003	-0.0008	5.2
0.174	-0.003	-0.0143	0.0015	4.9
0.003	-0.0008	-0.0361	0.0022	5.2
-0.0765	-0.0015	-0.0293	0.0007	5
-0.15	-0.0046	-0.0083	0	5.2
-0.1741	-0.003	0.0015	0.0015	5
-0.0848	-0.0008	0.0172	0.0022	5.1
-0.0788	0.0007	0.03	0.003	5.2
-0.0878	0.0037	0.039	0.0037	4.9
-0.033	0.0067	0.0442	0.0052	5
0.0615	0.012	0.0382	0.0045	5
0.135	0.012	0.0277	0.0045	4.9
0.1402	0.0075	0.0217	0.0015	5.1
0.0705	0.003	0.0165	-0.003	4.9
0.0135	0.0022	-0.0046	-0.0015	4.9
0.033	0.0037	-0.021	-0.0023	4.8
0.1297	0	-0.0278	-0.0053	5
0.2025	-0.0038	-0.039	-0.0068	4.9
0.0877	-0.006	-0.033	-0.0068	4.9
-0.0743	-0.0098	-0.0083	-0.0083	4.8
-0.1441	-0.0113	0.0157	-0.0068	4.9
-0.1185	-0.0053	0.0277	0.003	4.7
-0.0338	0.003	0.0345	0.0105	4.9
0.0247	0.0105	0.0397	0.012	4.9
0.0052	0.0127	0.0382	0.0067	5
-0.0256	0.0045	0.0427	0.003	4.8
-0.0195	-0.0008	0.0367	0.0015	4.9
-0.0195	0	0.009	-0.0008	4.9
0.0007	-0.0015	-0.0038	-0.0015	4.7
0.0067	0.0015	-0.012	0	4.8
0.033	0.0015	-0.0165	-0.0008	4.6
0.036	-0.0008	-0.0165	-0.0015	4.7
0.0292	-0.0008	-0.0105	-0.0053	4.9
0.0037	-0.0053	0.0075	-0.0083	4.7
-0.0653	-0.0068	0.0105	-0.0068	4.8
-0.093	-0.0053	-0.0015	-0.0068	4.5
-0.1006	-0.0046	-0.0165	-0.0053	4.7
-0.0706	-0.0046	-0.0293	-0.0053	4.6
-0.0623	-0.0083	-0.0405	-0.0068	4.7
-0.0533	-0.0053	-0.0375	-0.003	4.7
0.0052	-0.003	-0.0346	0.0015	4.5
0.1327	-0.0015	-0.039	0.0037	4.7
0.2535	0.0022	-0.0278	0.0052	4.7
0.2902	0.003	-0.0098	0.006	4.7
0.1387	0.0045	0.0015	0.0052	4.7
-0.1426	0.003	0	0.0045	4.6
-0.2888	0.0007	0.018	0.0037	4.6
-0.2498	0.0015	0.0487	0.003	4.5
-0.0938	0.003	0.0405	0.0045	4.7
-0.015	0.0037	0.0232	0.0045	4.5
0.0135	0.0045	0.0157	0.0037	4.7
0.0382	0.0052	0.0082	0.0015	4.4
0.0345	0.003	0.0075	-0.0008	4.7
0.0502	0.0007	0.0015	-0.0008	4.6
0.0487	-0.0008	0	-0.0015	4.6
0.0442	-0.0015	-0.0023	-0.0015	4.6
0.027	-0.0008	-0.0053	-0.0046	4.5
0.0165	-0.003	-0.0143	-0.006	4.6
-0.0023	-0.0038	-0.0256	-0.0053	4.5
-0.0285	-0.0075	-0.0278	-0.0091	4.5
-0.0608	-0.0083	-0.0368	-0.0113	4.6
-0.0908	-0.0083	-0.0458	-0.0098	4.6
-0.0788	-0.0083	-0.033	-0.0083	4.6
0.0022	-0.0046	-0.0315	-0.0046	4.5
0.075	0.0015	-0.0428	-0.0008	4.5
0.1162	0.003	-0.0128	0.0022	4.5
0.1785	0.0015	0.0495	0.006	4.6
0.1327	0.003	0.0637	0.0075	4.4
0.0495	0.0015	0.0307	0.0082	4.6
0.06	0.0015	0.018	0.0082	4.4
0.0577	0.0097	0.0105	0.012	4.6
0.009	0.0142	0.0007	0.012	4.5
-0.0308	0.012	0.003	0.0082	4.7
-0.0368	0.0082	0.0045	0.0045	4.5
-0.0263	0.0052	0.0037	0.0015	4.7
-0.0203	0.0022	-0.0068	0.0007	4.6
-0.0165	0.0007	-0.0181	-0.0015	4.5
-0.0248	-0.0008	-0.0181	-0.0008	4.5
-0.0361	-0.0046	-0.0128	-0.0023	4.5
-0.0488	-0.0046	-0.0135	-0.003	4.5
-0.0578	-0.0046	-0.0233	-0.003	4.4
-0.057	-0.0046	-0.0315	-0.0038	4.5
-0.0585	-0.0053	-0.042	-0.0046	4.5
-0.0495	-0.0091	-0.0405	-0.006	4.4
-0.09	-0.0128	-0.0285	-0.0091	4.5
-0.1185	-0.0181	-0.024	-0.012	4.5
0.0187	-0.0165	-0.0195	-0.0068	4.4
0.1852	-0.0091	-0.0091	-0.0015	4.4
0.1777	-0.0015	-0.0046	0.003	4.7
0.075	0.0097	-0.0008	0.009	4.5
0.0255	0.0187	0.0067	0.012	4.7
0.012	0.0202	0.0037	0.0127	4.5
0.0345	0.0142	-0.0068	0.0082	4.5
0.1177	0.006	-0.0181	0.0037	4.4
0.087	0.0052	-0.0068	0.0022	4.4
-0.0788	0.0052	0.0067	0.0007	4.5
-0.1785	0.0075	-0.0053	0.003	4.5
-0.1613	0.0067	-0.003	0.0015	4.5
-0.0765	0.003	-0.0008	-0.0015	4.5
-0.0308	0.0007	0.003	-0.0038	4.5
-0.0256	-0.003	0.0165	-0.0038	4.6
-0.0203	-0.0038	0.0067	-0.0046	4.5
-0.0158	-0.003	-0.0015	-0.0053	4.5
-0.006	-0.0046	-0.003	-0.0046	4.5
-0.0023	-0.0046	-0.0053	-0.003	4.5
0.0045	-0.0046	-0.0068	-0.0023	4.5
0.0045	-0.0046	-0.0068	-0.0053	4.5
0.0105	-0.0046	-0.006	-0.0068	4.4
0.0165	-0.0046	-0.0091	-0.0053	4.4
0.0105	-0.003	-0.0046	-0.0038	4.5
-0.021	-0.0046	-0.0068	-0.003	4.3
-0.048	-0.0068	-0.0091	-0.0046	4.5
-0.0413	-0.006	0.006	-0.003	4.3
-0.033	-0.0068	0.0127	-0.0068	4.5
0.0022	-0.0105	0.0052	-0.0053	4.2
0.0855	-0.0068	-0.0008	-0.0015	4.5
0.1312	-0.0046	0.009	0.0015	4.4
0.1065	0.0015	0.03	0.0052	4.6
0.0487	0.0082	0.0457	0.0067	4.4
0.0097	0.0075	0.0397	0.0075	4.5
-0.0293	0.0052	0.0375	0.0052	4.5
-0.0856	0.0045	0.0427	0.0075	4.5
-0.0795	0.0075	0.0277	0.0075	4.4
-0.0458	0.009	0.009	0.0052	4.3
-0.0256	0.0037	-0.0015	0.003	4.4
-0.0173	0	-0.003	0	4.4
-0.0128	-0.003	-0.0038	-0.0015	4.3
0.0022	-0.003	-0.0098	-0.0008	4.4
-0.0038	-0.0023	-0.012	-0.0015	4.3
0.0157	-0.0015	-0.0068	-0.0015	4.4
0.0705	-0.0015	0.0142	-0.0046	4.2
0.057	-0.0046	0.0232	-0.0068	4.5
0.0345	-0.003	0.0165	-0.003	4.4
0.0975	0.0007	0.0015	-0.0015	4.5
0.0442	0.0022	-0.0038	0.0007	4.3
0.003	0.0037	0.003	0.0015	4.4
0.0825	-0.0015	0.0015	-0.0015	4.4
0.0067	-0.006	0.0052	-0.0046	4.4
-0.054	-0.0083	0.009	-0.0068	4.3
-0.0615	-0.0105	0.0172	-0.0038	4.4
-0.0938	-0.0046	0.027	-0.0008	4.4
-0.039	0.0007	0.0277	0.0007	4.2
0.0007	0.0022	0.03	0.0007	4.3
-0.0368	0.0022	0.0195	0	4.3
-0.066	-0.0008	0.0082	0.0007	4.3
-0.0465	0.0007	0.0022	0.003	4.4
0.0007	-0.0008	0.0015	0.0015	4.4
0.1027	-0.0015	0.012	0.003	4.4
0.1425	0.0045	0.0165	0.0045	4.3
0.0667	0.0052	0.012	0.003	4.4
0.0142	0.006	-0.0113	0.0022	4.3
-0.0623	0.0037	-0.0256	0.003	4.4
-0.0833	0.0015	-0.0203	0.0015	4.3
-0.0368	0.0007	-0.0256	0	4.4
-0.0181	0	-0.0105	-0.0008	4.4
0.039	-0.0015	0.0345	-0.0023	4.4
0.0105	-0.003	0.093	-0.0015	4.3
-0.0503	0	0.0952	0.0007	4.4
0.0667	0.0007	0.0285	-0.003	4.5
0.2295	-0.003	-0.0195	-0.006	4.3
0.192	-0.0068	-0.0465	-0.0091	4.5
0.1672	-0.0098	-0.0593	-0.0083	4.2
0.123	-0.0075	-0.054	-0.0008	4.4
-0.1215	-0.0046	-0.0315	0.003	4.4
-0.2625	0.0015	-0.0083	0.0067	4.4
-0.2933	0.0112	-0.006	0.009	4.4
-0.1733	0.015	-0.021	0.0067	4.3
-0.03	0.012	-0.0233	0.0037	4.4
-0.0428	0.012	0.012	0.0045	4.4
-0.027	0.012	0.0142	0.003	4.5
-0.0158	0.009	0.0015	0.0045	4.4
-0.0128	0.009	-0.0008	0.0037	4.5
-0.0053	0.0037	-0.0105	-0.0023	4.4
0.003	-0.0015	-0.0105	-0.003	4.5
0.015	-0.0015	-0.0128	-0.003	4.5
0.0232	-0.0046	-0.012	-0.003	4.4
0.0345	-0.0046	-0.0068	-0.0015	4.5
0.027	-0.0046	-0.012	-0.003	4.4
0.0487	-0.0046	-0.0165	-0.003	4.5
0.0487	-0.0038	-0.0098	-0.0038	4.5
0.0127	-0.0053	-0.0105	-0.0068	4.5
-0.0405	-0.0068	-0.0533	-0.0068	4.5
-0.0975	-0.0068	-0.0945	-0.0075	4.5
-0.081	-0.0083	-0.1006	-0.0091	4.7
0.0495	-0.0135	-0.099	-0.0091	4.4
0.2152	-0.0165	-0.0773	-0.0091	4.7
0.324	-0.0143	-0.0353	-0.0083	4.6
0.312	-0.012	0.0007	-0.0053	4.6
0.0817	-0.0075	0.0247	0.0015	4.5
-0.1515	0.0052	0.054	0.0097	4.5
-0.2123	0.021	0.084	0.0157	4.5
-0.1935	0.0262	0.093	0.018	4.5
-0.099	0.018	0.0765	0.0135	4.6
-0.0263	0.0082	0.045	0.0067	4.5
-0.0293	0.0015	0.024	0.0022	4.6
-0.027	-0.0015	0.0097	0.0022	4.5
-0.0346	-0.0008	-0.003	0.0022	4.6
-0.0368	-0.0015	-0.0091	-0.0008	4.4
-0.0323	-0.003	-0.012	-0.0008	4.7
-0.0158	-0.0038	-0.0128	-0.0023	4.5
0.0202	-0.0068	-0.0165	-0.0046	4.7
0.0382	-0.006	-0.0225	-0.0046	4.4
0.0337	-0.0053	-0.0315	-0.0053	4.5
-0.027	-0.006	-0.0338	-0.006	4.5
-0.0713	-0.0083	-0.0278	-0.0075	4.6
-0.0795	-0.0091	-0.0203	-0.0068	4.5
-0.0975	-0.0091	-0.0248	-0.006	4.4
-0.0495	-0.0075	-0.0195	-0.0053	4.6
0.0382	-0.0046	0.0127	-0.0008	4.4
0.1095	0.0082	0.0292	0.0052	4.6
0.0945	0.0142	0.0277	0.0067	4.5
0.0607	0.0052	0.0015	0.0067	4.4
0.0517	0.003	-0.015	0.0067	4.4
0.0022	0.0045	-0.0068	0.006	4.5
-0.0263	0.0015	-0.015	0.0052	4.5
-0.0308	0.003	-0.0075	0.003	4.6
-0.0068	0.0037	-0.0068	0.0007	4.4
-0.003	0.0045	-0.0128	-0.0008	4.4
0.0045	0.003	-0.0075	-0.0015	4.5
0.0277	0.0022	-0.0038	-0.0015	4.5
0.0142	0.0045	-0.0083	-0.0023	4.4
-0.0165	0.003	-0.0165	-0.003	4.3
-0.0706	0.0007	-0.012	-0.0038	4.4
-0.0856	-0.0023	-0.0105	-0.0046	4.3
-0.0495	-0.0038	0.0082	-0.003	4.3
-0.015	-0.003	0.0127	-0.003	4.4
0.0255	-0.0046	0.0217	-0.0053	4.4
0.0532	-0.0083	0.0517	-0.0075	4.5
0.0352	-0.012	0.039	-0.0083	4.4
0.0015	-0.0091	0.0165	-0.0053	4.4
-0.0263	-0.003	0.0067	-0.003	4.4
0.0075	0	-0.0075	0.0007	4.4
0.1342	0.0097	0.0007	0.006	4.4
0.246	0.0127	0.0045	0.0067	4.4
0.1635	0.009	0.0015	0.009	4.3
0.033	0.009	0.0022	0.0097	4.3
-0.0533	0.006	0.0045	0.0075	4.5
-0.1193	0.0015	0.0202	0.0045	4.3
-0.084	0.0007	0.0352	0.003	4.3
-0.045	0	0.045	0.0007	4.2
-0.0338	0	0.0315	-0.0015	4.5
-0.054	-0.0023	0.0075	-0.0008	4.2
-0.0683	-0.003	0.0015	-0.0015	4.4
-0.0608	-0.003	0.0007	-0.003	4.2
-0.0218	-0.0046	0.012	-0.0046	4.3
-0.0046	-0.0053	0.0157	-0.0068	4.4
0.003	-0.0068	-0.0015	-0.0091	4.1
0.0105	-0.0083	-0.0098	-0.0075	4.3
-0.0083	-0.0053	-0.0038	-0.0046	4.2
0.0232	-0.0046	-0.0008	-0.0053	4.3
0.0412	-0.0053	-0.0015	-0.0075	4.1
0.1012	-0.0068	-0.0023	-0.0046	4.2
0.111	-0.0015	-0.0135	0.0015	4.1
0.0277	0.0045	-0.0165	0.0045	4.1
-0.0046	0.0067	0.0105	0.0052	4.3
-0.0315	0.0067	0.042	0.0067	4.2
-0.0443	0.009	0.048	0.0105	4.3
-0.0465	0.0135	0.0165	0.0105	4.2
-0.0315	0.0105	0.003	0.006	4.3
-0.0233	0.0052	0.0082	0.0022	4.1
-0.0128	0.0022	0.0015	0.0007	4.3
-0.0083	0.0022	0.0105	0.0007	4.1
-0.0181	0.0007	0	-0.0015	4.2
-0.0098	-0.0023	-0.0046	-0.003	4.1
-0.0105	-0.0023	-0.0038	-0.0023	4.2
-0.006	-0.0038	-0.0105	-0.0015	4.1
-0.015	-0.0046	-0.0053	-0.0008	4.3
-0.0105	-0.0038	-0.0105	-0.0015	4
-0.0143	-0.0053	-0.0091	-0.003	4.2
-0.03	-0.0053	-0.0091	-0.0046	4
0.0075	-0.0083	-0.0308	-0.0068	4.1
0.0465	-0.0083	-0.063	-0.0046	4.1
0.0547	-0.0053	-0.066	0.0007	4
0.0742	-0.0046	-0.0533	0.0007	4
0.0637	-0.0023	-0.0383	0.0007	4.1
0.0495	0	-0.0158	0.0007	4
0.0772	0.003	0.0202	0.0067	4
0.0727	0.009	0.0495	0.009	4.1
0.0127	0.009	0.048	0.006	4
-0.0128	0.0052	0.0555	0.0022	4
-0.0008	0.0015	0.048	-0.0008	4.1
-0.0765	0	0.0225	-0.0015	3.9
-0.1741	0.0007	0.0105	-0.0015	4.1
-0.1553	0.0022	-0.006	0.0007	4
-0.0788	0.0022	-0.0113	0	3.9
-0.03	0.0015	-0.0181	0	3.8
-0.0173	0.0007	-0.0218	-0.0015	3.8
-0.027	-0.0015	-0.0195	-0.003	4
-0.024	-0.0015	-0.0158	-0.0046	3.7
-0.0143	-0.003	-0.0068	-0.0053	4.1
-0.0181	-0.0046	-0.0128	-0.0053	3.8
-0.0143	-0.0053	-0.039	-0.0046	4
-0.0256	-0.006	-0.06	-0.0053	3.8
-0.0458	-0.0083	-0.0856	-0.0083	4
-0.0428	-0.0083	-0.084	-0.0068	3.9
-0.0218	-0.0046	-0.0195	-0.0046	3.9
0.0937	0.0007	0.0555	-0.0038	3.9
0.2032	0.0015	0.063	-0.0008	4
0.1777	0	0.012	0.0022	3.8
0.1537	0.0052	-0.0083	0.0075	3.9
0.0825	0.009	-0.0015	0.0105	4
0.006	0.0075	0.0232	0.0067	3.9
0.015	0.0052	0.0217	0.0045	3.8
-0.0015	0.0067	-0.0008	0.0052	3.9
-0.0233	0.0105	-0.0068	0.0052	3.8
-0.042	0.0105	-0.0315	0.0022	3.7
-0.0398	0.0075	-0.0338	0.0007	3.8
-0.0308	0.003	-0.003	-0.0015	3.8
-0.0346	0.0015	0.0097	-0.0038	3.8
-0.0346	-0.0008	-0.0046	-0.0046	3.8
-0.042	-0.0038	-0.015	-0.0053	3.7
-0.054	-0.0053	-0.0233	-0.0068	3.8
-0.0608	-0.0053	-0.024	-0.0068	3.7
-0.0008	-0.003	-0.0293	-0.0053	3.8
0.027	-0.0053	-0.0315	-0.0053	3.6
0.123	-0.0083	-0.0105	-0.0053	3.7
0.2475	-0.0046	0.0007	-0.0015	3.8
0.2122	-0.0015	0.0067	0.0015	3.7
0.159	0.0007	0.0052	0.0022	3.8
-0.0728	0.003	-0.0015	0.0045	3.7
-0.2858	0.003	-0.0068	0.0052	3.6
-0.3406	0.0045	-0.006	0.003	3.7
-0.2318	0.0007	0.0157	0.0007	3.8
-0.0405	-0.003	0.0345	0.0015	3.8
-0.0233	-0.003	0.0195	-0.0008	3.7
0.0247	-0.0015	-0.003	0.0007	3.8
0.0217	0.0045	0.0052	0.0015	3.7
0.0052	0.0037	0.009	-0.0008	3.8
0.0135	-0.003	0.003	-0.0015	3.7
0.0157	-0.003	0.012	-0.0015	3.8
0.033	0.0007	0.024	0.0015	3.7
0.0127	0.0037	0.024	0.003	3.8
0.018	0.0067	0.0255	0.0052	3.8
0.0007	0.0052	0.0322	0.003	3.8
0.009	0.0015	0.0255	0.0007	3.8
0.0157	-0.0015	0.012	-0.0015	3.7
0.018	-0.0046	0.0052	-0.0046	3.8
0.0172	-0.0053	-0.0015	-0.0046	3.7
-0.0158	-0.0053	-0.0188	-0.0046	3.8
-0.0188	-0.0091	-0.0346	-0.0091	3.6
0.015	-0.012	-0.0278	-0.0098	3.8
0.0345	-0.0128	-0.0083	-0.0105	3.6
0.03	-0.015	-0.0046	-0.0113	3.6
0.0697	-0.0158	-0.0158	-0.0068	3.7
0.0892	-0.0068	-0.0098	0.006	3.6
0.0712	0.012	0.024	0.0187	3.8
0.0217	0.0292	0.0555	0.021	3.7
-0.039	0.0262	0.0555	0.0157	3.7
-0.0548	0.0142	0.0292	0.0105	3.6
-0.0443	0.0037	0.0015	0.003	3.6
-0.0315	-0.0023	-0.0075	0	3.8
-0.0218	-0.0046	-0.0015	0.0007	3.8
-0.0098	-0.006	0.0067	-0.0015	3.8
0.012	-0.003	0.009	-0.0015	3.7
0.0315	0.0045	0.0007	-0.0023	3.8
0.006	0.009	-0.0015	-0.0008	3.7
-0.021	0.0052	-0.0075	-0.003	3.8
-0.021	0	-0.0128	-0.0053	3.7
-0.0158	-0.0023	-0.003	-0.0053	3.8
-0.0105	-0.006	-0.0053	-0.0068	3.6
-0.0256	-0.0098	-0.0068	-0.0068	3.8
-0.0856	-0.0105	0.0045	-0.0038	3.6
-0.09	-0.0105	0.009	-0.0068	3.7
-0.0008	-0.012	0.024	-0.0083	3.7
0.0847	-0.0091	0.0292	-0.0015	3.8
0.1447	-0.0015	0.0112	0.0052	3.6
0.1215	0.0082	-0.0181	0.009	3.6
0.0345	0.012	-0.0443	0.0067	3.7
-0.0278	0.0067	-0.0361	0.0045	3.5
-0.0256	0.0022	-0.0128	0.003	3.7
-0.0068	0.0045	0.0112	0.0022	3.6
-0.0233	0.006	0.0225	0.0015	3.8
-0.0383	0.0075	0.0217	0.0037	3.8
-0.045	0.0075	0.03	0.0037	3.6
-0.0256	0.0052	0.042	0.003	3.7
-0.0338	0.003	0.0307	0.0015	3.6
0.0105	-0.0015	0.0015	-0.0015	3.6
0.0615	-0.0046	-0.0053	-0.0008	3.6
0.0712	-0.0038	-0.0113	-0.0015	3.6
0.069	-0.0046	-0.0165	-0.0046	3.6
0.03	-0.003	-0.0083	-0.0053	3.6
0.0967	-0.0038	-0.0068	-0.003	3.6
0.1072	-0.0046	-0.0233	-0.0038	3.5
-0.0285	-0.0068	-0.0413	-0.0083	3.6
-0.0938	-0.0091	-0.0405	-0.0083	3.6
-0.09	-0.0083	-0.042	-0.003	3.5
-0.123	-0.0053	-0.048	0.0007	3.4
-0.0593	-0.0038	-0.0458	0.0007	3.6
0.0555	-0.003	-0.0233	-0.0008	3.5
0.042	-0.006	-0.0083	-0.0015	3.5
-0.015	-0.0046	-0.0046	0.0045	3.5
-0.0578	0.003	0.0165	0.0082	3.4
-0.0675	0.0082	0.036	0.0082	3.5
-0.0165	0.0037	0.0457	0.0015	3.3
0.0097	-0.003	0.0495	0	3.6
0.0307	-0.003	0.0292	0.0037	3.5
0.0315	-0.0015	0.0172	0.0052	3.5
-0.0158	0.0022	0.0217	0.0082	3.5
-0.0353	0.0052	0.0082	0.0052	3.4
-0.033	0.0045	0.0067	0.0045	3.6
-0.0256	0.0015	0.0045	0.0015	3.3
-0.0158	-0.0015	-0.003	-0.0015	3.5
-0.0105	-0.0015	-0.0053	-0.003	3.2
-0.0046	-0.006	-0.0158	-0.0046	3.5
0	-0.0068	-0.0278	-0.0053	3.2
-0.0068	-0.0046	-0.0443	-0.0053	3.5
-0.003	-0.0008	-0.0256	-0.0038	3.2
0.0022	0.0015	0.012	-0.0046	3.3
0.0015	-0.0015	0.0262	-0.0046	3.3
0.0067	-0.0015	0.0307	-0.0038	3.4
0.0127	0.0007	0.03	0	3.3
0.0172	0.0045	0.0052	0.0015	3.4
0.0165	0.0037	-0.0143	-0.0008	3.2
0.0142	0.0015	-0.0105	-0.0008	3.2
0.015	0.003	-0.0128	-0.0008	3.2
0.0292	0.0045	0.0007	0	3.3
0.042	0.0045	0.0232	0.0007	3.3
0.1042	0.003	0.042	0.0022	3.2
0.1762	0.0007	0.048	0	3.2
0.1792	-0.0015	0.0142	0.003	3.2
0.1665	0.0052	-0.021	0.0082	3.1
-0.0158	0.009	-0.0293	0.0075	3.2
-0.2768	0.006	-0.03	0.0052	3.2
-0.384	0.006	-0.0188	0.0045	3.5
-0.3015	0.0037	-0.0008	0.0015	3.1
-0.0885	0	-0.0158	-0.0038	3.3
-0.0181	-0.0038	-0.039	-0.0053	3.1
-0.0083	-0.0038	-0.0323	-0.0068	3.2
0.0067	-0.003	-0.0165	-0.0053	3.2
0.009	-0.0015	-0.0075	-0.0046	3.2
0.0345	0	-0.0135	-0.0053	3.2
0.0225	0.0015	-0.0218	-0.003	3.1
-0.0105	0.006	-0.0181	-0.0015	3.3
-0.0803	0.003	-0.0308	-0.0023	3.1
-0.0833	-0.0008	-0.0465	-0.0038	3.2
-0.0083	-0.0015	-0.0495	-0.0015	3.1
0.1125	-0.006	-0.033	-0.003	3.3
0.2355	-0.0046	-0.0068	-0.0015	3.2
0.2542	-0.0046	0.003	0.0007	3.2
0.1972	-0.0038	0.027	0.003	3.2
0.0517	0.0045	0.0615	0.0067	3.2
-0.0735	0.009	0.0622	0.006	3.3
-0.0158	0.012	0.0337	0.0037	3
0.1027	0.006	0.012	0.0015	3.1
0.0825	0.0007	0.0045	0.003	3.1
-0.0181	0.0037	-0.006	0.0037	3.1
-0.0518	0.0015	-0.0091	0.003	3.2
-0.0968	0.0022	0.0015	0.0022	3.1
-0.081	0.0007	0.0015	0.0007	3.2
0.0082	-0.0015	-0.0015	-0.0008	3.2
-0.0083	-0.0046	-0.0068	-0.0008	3.2
-0.0518	-0.0068	-0.0091	-0.0023	3
-0.0308	-0.0075	-0.0105	-0.0053	3.1
0.0082	-0.0098	-0.024	-0.0046	3
0.0285	-0.0068	-0.0263	-0.003	3.2
0.033	-0.0068	-0.0188	-0.003	2.9
-0.0046	-0.0075	-0.015	-0.0015	3.1
