File Name: sentado.log
Channel 4: 'Recto Femoral', 13677 values, engineering units: mV, no filters.
Channel 5: 'Biceps Femoral', 13677 values, engineering units: mV, no filters.
Channel 6: 'Vasto Medial', 13677 values, engineering units: mV, no filters.
Channel 7: 'EMG Semitendinoso', 13677 values, engineering units: mV, no filters.
Channel 8: 'Flexo-Extension', 13677 values, engineering units: deg, no filters.

0.0067	0.0135	-0.0046	0.0142	71.9
0.0007	0.0045	0.0045	0.0277	72.6
0.0015	0.006	0.006	0.0352	72.4
-0.0008	0.0037	0.0067	0.0255	73
-0.0015	-0.012	0.009	0.0187	72.7
-0.0008	-0.0293	0.0097	0.0172	73.3
-0.0023	-0.0443	0.0112	-0.0046	73.3
-0.0046	-0.0405	0.012	-0.0383	73.5
-0.0098	-0.0181	0.009	-0.0293	73.7
-0.0128	0	0.0082	-0.0173	73.8
-0.0128	0.0142	0.0112	-0.0555	74
-0.0143	0.0225	0.0105	-0.0443	74.1
-0.0158	0.0277	0.0097	0	74.4
-0.0158	0.024	0.003	0.0075	74.2
-0.0128	0.0067	-0.003	-0.003	74.6
-0.0128	-0.0008	-0.0015	-0.0113	74.7
-0.0135	0.0022	-0.0008	-0.0015	75.1
-0.0128	0.0022	-0.0008	0.003	75
-0.0083	0.0022	0.0015	0.003	75.3
-0.0023	0.003	0.0015	0.0067	75.6
0.0015	0.0037	0.003	0.006	75.4
0.0067	0.0075	0.0045	0.0105	75.8
0.0052	0.012	0.003	0.0105	75.8
0.0052	0.012	0.0037	0.0217	76
0.006	0.0067	0.0037	0.045	76
0.0075	-0.0053	0.0082	0.075	76.3
0.0127	-0.027	0.0127	0.0885	76.5
0.0135	-0.0428	0.012	0.051	76.6
0.015	-0.033	0.0105	0.0195	76.7
0.0135	-0.0256	0.0142	-0.0203	76.9
0.009	-0.027	0.0142	-0.0795	77.1
0	-0.0083	0.012	-0.0915	77.2
-0.0046	0.0112	0.0067	-0.0338	77.3
-0.006	0.0255	0.0015	-0.0188	77.5
-0.003	0.024	-0.0008	-0.0533	77.4
-0.0038	0.0127	-0.0038	-0.063	77.7
-0.0083	0.0157	-0.0053	-0.0833	77.8
-0.0091	0.0112	-0.0046	-0.0511	78.1
-0.0113	0.012	-0.003	-0.0008	78.1
-0.0113	0.0127	-0.003	0.0045	78.3
-0.0128	0.0097	-0.0038	-0.003	78.3
-0.0128	0.012	-0.0023	0.0082	78.6
-0.0113	0.0127	-0.0008	0.0217	78.7
-0.0083	0.0067	0	0.0232	78.9
-0.0068	0.0007	0.0007	0.0232	79
-0.0091	0.0015	0.0007	0.0217	79.2
-0.012	0	-0.0023	0.0315	79.2
-0.015	0.0007	-0.0015	0.0585	79.5
-0.0143	0.0067	-0.003	0.099	79.6
-0.0105	0.0157	-0.0053	0.09	79.8
-0.0053	0.0097	-0.0038	0.0795	79.7
0.0015	-0.024	-0.0015	0.1342	79.9
0.0082	-0.0608	-0.0038	0.1665	80
0.0105	-0.0735	-0.0046	0.0765	80.4
0.0105	-0.0436	-0.0068	-0.0225	80
0.0082	-0.006	-0.0098	-0.111	80.5
0.006	0.003	-0.006	-0.2715	80.3
0.0052	0.0217	0.0007	-0.21	80.7
0.0045	0.0307	0.0015	-0.0068	80.8
0.0007	-0.0008	-0.0008	0.0105	81
-0.0015	-0.0165	-0.0083	-0.063	81
-0.0023	-0.006	-0.0075	-0.147	81.3
-0.0015	0.012	-0.0046	-0.2026	81.4
0.0015	0.036	-0.006	-0.1328	81.3
0.0045	0.0382	-0.0098	-0.0293	81.5
0.0037	0.0255	-0.0128	0.015	81.7
0.0067	0.0262	-0.0098	0.0382	81.8
0.0082	0.027	-0.0068	0.0547	81.9
0.0052	0.0255	-0.0083	0.0795	82
0.0022	0.0135	-0.0038	0.1177	82.3
-0.0038	0.0045	-0.0023	0.1372	82.3
-0.0091	-0.0098	-0.0046	0.1447	82.6
-0.0091	-0.03	-0.0015	0.2325	82.4
-0.0046	-0.0135	0.0007	0.3352	82.8
0.0007	0.012	0.003	0.3172	82.7
0.0037	0.003	0.0067	0.2445	83
0.0045	-0.0548	0.009	0.0502	82.8
0.0015	-0.1065	0.0097	-0.1815	83.2
-0.0038	-0.1125	0.009	-0.1995	83.1
-0.0068	-0.0975	0.0037	-0.126	83.2
-0.0098	-0.021	-0.0038	-0.159	83.3
-0.0083	0.0517	-0.0083	-0.225	83.1
-0.0038	0.096	-0.0105	-0.1673	83.5
0.003	0.1312	-0.012	-0.156	83.3
0.0007	0.1237	-0.0173	-0.195	83.7
-0.0165	0.108	-0.0278	-0.1958	83.6
-0.0293	0.069	-0.0308	-0.2948	83.9
-0.027	0.0517	-0.0203	-0.3165	83.7
-0.0165	-0.0105	-0.0091	-0.1163	84.3
-0.0105	-0.066	-0.0038	0.0322	84
-0.0105	-0.057	0.0022	0.0592	84.4
-0.0091	-0.0885	0.0037	0.0637	84.3
-0.0083	-0.0495	0.0045	0.0682	84.6
-0.0053	-0.024	0.0052	0.108	84.6
-0.006	-0.033	0.0022	0.1005	84.7
-0.0091	-0.0091	0.003	0.0967	84.8
-0.0098	-0.015	0	0.081	84.8
-0.012	-0.0015	-0.0008	0.0577	84.9
-0.0165	0.0015	0.0015	0.0795	84.9
-0.024	0.0052	0.0022	0.1275	85.2
-0.0346	0.0037	0.0022	0.1942	85.4
-0.0533	-0.0128	0.0015	0.1972	85.2
-0.0653	-0.0165	0.003	0.1455	85.2
-0.0518	-0.0278	0.0037	0.057	85.3
-0.0195	-0.0075	0	-0.0293	85.5
0.018	0.0105	0.0022	0.0525	85.5
0.057	0.0112	0.0067	0.1117	85.5
0.0877	0.0075	0.0067	-0.0346	85.5
0.108	-0.0098	0.0075	-0.1155	85.5
0.1192	0.0082	0.0105	-0.15	85.7
0.1207	0.0165	0.0127	-0.1763	85.9
0.1177	0.0052	0.015	-0.0938	85.9
0.1102	-0.003	0.0157	-0.0465	86.1
0.1027	-0.0128	0.0172	0.0097	86.1
0.0922	-0.0046	0.0165	0.0577	86.2
0.0817	-0.0113	0.0187	0.0165	86.4
0.0667	-0.0015	0.0202	-0.0091	86.3
0.0517	0.0157	0.018	-0.0405	86.5
0.0375	0.027	0.0157	-0.027	86.8
0.0247	0.0307	0.0142	0.0165	86.7
0.0172	0.0285	0.0157	0.0195	86.9
0.0052	0.0457	0.0142	0.0517	86.8
-0.0068	0.0592	0.0105	0.0982	87
-0.0165	0.0532	0.0097	0.1575	87
-0.024	0.003	0.0097	0.2925	87.4
-0.0278	-0.0668	0.0135	0.3982	87.2
-0.0285	-0.1388	0.0135	0.2887	87.3
-0.0346	-0.1515	0.003	0.0705	87.5
-0.0458	-0.0518	-0.0053	-0.1988	87.3
-0.054	0.0457	-0.003	-0.4283	87.5
-0.0518	0.0637	0.0045	-0.4043	87.3
-0.042	0.0142	0.012	-0.2505	87.7
-0.0383	-0.027	0.0082	-0.1741	87.7
-0.0383	-0.0165	0.0045	-0.2048	87.7
-0.0338	-0.0068	0.0045	-0.2055	87.9
-0.0293	0.0187	0.0007	-0.1433	87.7
-0.0285	0.0315	-0.0023	-0.0465	88.2
-0.0278	0.0382	-0.0091	0.0435	87.8
-0.0263	0.0547	-0.0195	0.063	88.3
-0.0256	0.042	-0.0248	0.0817	88.3
-0.0233	0.0337	-0.027	0.084	88.3
-0.0195	0.0232	-0.0195	0.075	88.3
-0.0165	0.012	-0.0181	0.0742	88.4
-0.0158	0.0067	-0.0203	0.0622	88.3
-0.012	0	-0.0181	0.057	88.4
-0.0083	-0.0015	-0.0181	0.0457	88.6
-0.0068	-0.006	-0.012	0.0607	88.8
-0.0068	-0.0143	-0.0128	0.1147	88.9
-0.0091	-0.0173	-0.0128	0.135	88.9
-0.0128	0.0202	-0.0128	0.0615	88.9
-0.0165	0.06	-0.0143	0.006	89
-0.0225	0.051	-0.0128	0.0705	89.3
-0.0256	0.018	-0.012	0.2212	89.1
-0.0248	-0.0691	-0.0083	0.2032	89.4
-0.024	-0.1013	-0.0105	0.0652	89.3
-0.0285	-0.0285	-0.015	-0.063	89.4
-0.0308	-0.021	-0.012	-0.2881	89.5
-0.0293	0.0052	-0.0083	-0.2655	89.5
-0.0278	0.0367	-0.0091	-0.24	89.8
-0.0315	0.0105	-0.0143	-0.2333	89.8
-0.0285	-0.0008	-0.0143	-0.075	89.7
-0.0233	-0.0585	-0.0091	-0.0818	90.1
-0.0181	-0.0675	-0.003	0.0112	90
-0.0105	-0.0436	0.003	0.0532	90.1
-0.0068	-0.0361	0.003	0.0382	90.3
-0.0053	0.0052	0.0045	0.0652	90.3
-0.0038	0.0082	0.0067	0.039	90.4
0	0.0105	0.0067	0.0555	90.6
0.006	0.0142	0.009	0.0345	90.7
0.012	0.009	0.0075	0.0337	90.6
0.0165	0.018	0.003	0.0277	90.8
0.0127	0.027	0.003	0.093	91
0.0105	0.0315	0.0015	0.282	90.8
0.012	0.012	0.0007	0.5032	91.3
0.0127	0.0015	-0.0015	0.582	91.2
0.0142	-0.0233	-0.0046	0.486	91.2
0.0142	-0.033	0.0015	0.3712	91.4
0.0157	0.015	0.0075	0.1785	91.4
0.0165	0.0532	0.0045	0.0337	91.4
0.0127	0.0952	0.0007	0.0877	91.4
0.0052	0.0195	0.0052	-0.2063	91.3
0.003	-0.1673	0.0142	-0.717	91.4
0.0015	-0.1073	0.0142	-0.984	91.3
-0.0098	0.054	0.0067	-1.1325	91.5
-0.012	0.0855	0.009	-0.9683	91.5
-0.0053	0.0525	0.0097	-0.6923	91.8
-0.0008	-0.0405	0.0037	-0.255	92.1
0.003	-0.0818	0.0007	0.0435	91.9
0	-0.0593	-0.0008	0.0847	92.1
0.0007	0.033	0.0007	0.21	92.1
0.003	0.0622	-0.003	0.1852	92.2
0.003	0.0277	-0.0038	0.2287	92.4
0.0082	0.0352	-0.0015	0.2197	92.3
0.012	0.0022	0.0007	0.2077	92.4
0.0165	0.003	0.0007	0.213	92.3
0.0157	-0.0038	0	0.1785	92.6
0.0135	-0.0105	0.0015	0.186	92.6
0.0112	-0.0046	-0.0023	0.1507	92.4
0.009	-0.0091	-0.0046	0.153	92.9
0.0037	0.006	-0.0068	0.1267	92.6
-0.0008	0.0037	-0.0105	0.1185	92.8
-0.0046	0.009	-0.0128	0.1132	92.7
-0.0046	0.018	-0.0165	0.1125	92.9
-0.003	0.0457	-0.0173	0.1215	93
0	0.057	-0.0158	0.2047	93.1
0.009	-0.0046	-0.0075	0.4402	93.4
0.0165	-0.0795	-0.0008	0.6007	93.2
0.0172	-0.1275	0.0022	0.4282	93.4
0.012	-0.117	0.0045	-0.0893	93.3
0.0037	-0.0728	0.0015	-0.7275	93.2
-0.003	0.0202	0.0015	-0.8235	93.4
-0.0068	0.108	0.003	-0.4118	93.6
-0.0053	0.0877	0.0067	-0.195	93.6
-0.0008	0.045	0.0112	-0.0383	93.8
0.0052	0.0225	0.0127	-0.0008	93.8
0.009	0.0075	0.009	0.0067	93.9
0.009	0.009	0.0052	0.0442	93.8
0.0082	-0.0128	0.0045	0.0202	93.8
0.0052	-0.0278	0.0052	0.051	94
0.006	-0.0023	0.0045	0.036	94
0.0045	-0.0008	0.0037	0.0532	94.2
0.003	-0.003	0.003	0.045	94
0.003	0.0082	0.0015	0.0352	94.4
0	0.0142	0.0015	0.0262	94.4
-0.0015	0.0382	0.0015	0.0345	94.3
-0.0038	0.0382	-0.0008	0.1245	94.5
-0.0008	0.0067	0.0015	0.3105	94.7
0.0052	-0.0458	0.0015	0.4545	94.5
0.0045	-0.0765	-0.006	0.3727	94.6
0.0015	-0.0218	-0.0105	0.1102	94.5
0.0037	0.0465	-0.006	-0.2333	94.6
0.0067	0.0292	0.006	-0.3158	94.7
0.0067	-0.0188	0.0075	-0.3015	94.6
0	-0.0075	-0.0091	-0.3143	94.8
-0.0068	-0.0075	-0.0173	-0.3293	94.8
-0.0075	-0.0135	-0.0203	-0.3923	94.9
-0.0068	0.0225	-0.0173	-0.1935	95
-0.0015	-0.048	-0.0105	-0.0413	94.9
0.0015	-0.0668	-0.0053	0.0112	95.1
-0.0008	0.0307	-0.0015	0.0847	95.2
-0.0023	0.0517	-0.0046	0.105	95.3
-0.0015	0.0277	-0.0053	0.1222	95.5
-0.0038	0.024	-0.0091	0.0967	95.2
-0.0046	0.0255	-0.006	0.0742	95.4
-0.0038	-0.0075	-0.0068	0.0217	95.3
-0.0068	-0.0023	-0.0068	0.0082	95.7
-0.0038	0.0052	0	0.0105	95.6
-0.003	0.009	0.0007	0.024	95.6
-0.006	0.027	0.0015	0.1125	95.7
-0.0091	-0.0008	0.0007	0.2625	95.7
-0.0038	-0.0256	0	0.3667	95.9
0.0045	-0.0188	0.003	0.267	95.8
0.003	0.0217	0.0015	0.153	95.8
-0.0023	0.0352	-0.006	0.1215	95.9
-0.003	0.018	-0.0105	0.0765	95.8
0	-0.0615	-0.003	0.1102	96.1
0.0022	-0.1253	0.0045	0.0922	96
0.0015	-0.0428	0.0082	-0.2858	95.9
-0.0015	-0.0015	0.0127	-0.7838	96
-0.0053	0.0082	0.0255	-0.6915	96
-0.0008	0.0067	0.0352	-0.3345	96.1
0.0015	-0.0203	0.0345	-0.1411	96.4
0	0.0045	0.0285	-0.0548	96.2
-0.0008	0.018	0.0232	0.012	96.5
-0.003	0.0495	0.021	0.09	96.2
-0.0038	0.0405	0.012	0.054	96.5
-0.0053	0.0307	0.0045	0.0967	96.5
-0.0083	0.0607	0.0007	0.0937	96.6
-0.0091	0.0765	0.0007	0.1267	96.6
-0.0068	0.09	0.0045	0.3232	96.6
0.0022	0.042	0.0045	0.768	96.9
0.012	-0.0015	0.003	1.2157	97.1
0.0142	-0.057	-0.0128	1.098	96.9
0.003	-0.1538	-0.033	0.6135	96.8
-0.0053	-0.213	-0.033	-0.159	96.3
-0.0083	-0.261	-0.0203	-1.137	96.4
-0.012	-0.1898	-0.0091	-1.2983	96.6
-0.0113	0.0457	-0.0015	-0.9713	96.7
-0.0135	0.1627	0	-0.8565	96.9
-0.0113	0.1597	0.006	-0.5445	96.8
-0.003	0.1132	0.009	-0.4275	97.1
0.0045	0.0592	0.0052	-0.2633	97
0.0105	0.075	0.0052	-0.0518	97.1
0.0127	0.0337	-0.003	0.0555	97.3
0.0127	0.0315	-0.003	0.1912	97.1
0.0127	0.0315	-0.0008	0.192	97.5
0.0112	0.0142	-0.003	0.2707	97.2
0.0105	0.0202	-0.0015	0.228	97.2
0.0075	-0.012	0	0.1605	97.3
0.0022	-0.012	0	0.1312	97.3
-0.003	-0.0203	-0.003	0.1867	97.4
-0.0068	-0.012	-0.0075	0.285	97.5
-0.0083	0.0007	-0.0091	0.2917	97.4
-0.0083	0.033	-0.0113	0.252	97.6
-0.0083	0.1402	-0.0158	0.2235	97.5
-0.0083	0.2512	-0.0218	0.4312	97.7
-0.0046	0.2557	-0.0256	0.6967	97.5
0.0022	0.0847	-0.0181	0.6712	97.8
0.0105	-0.1238	-0.003	0.3615	97.8
0.0082	-0.2663	-0.0091	-0.1043	97.6
-0.0046	-0.3143	-0.0173	-0.3795	97.6
-0.0053	-0.252	-0.0083	-0.237	97.7
-0.0023	-0.1635	-0.003	-0.465	97.7
-0.0015	-0.1898	0.0045	-0.7133	97.6
0.0067	-0.1785	0.018	-0.8115	97.8
0.009	0.0217	0.0345	-0.7478	97.8
0.0105	0.0757	0.0375	-0.3863	97.7
0.009	-0.0038	0.0187	-0.411	97.8
0.0022	0.0172	0.0127	-0.0713	98.3
0.0015	0.0615	0.0082	0.12	98
-0.0015	0.069	0	0.0862	98.2
-0.0046	0.066	0.0022	0.2407	98
-0.0046	0.0667	0.003	0.156	98.1
-0.0068	0.0532	0.0015	0.18	98.2
-0.0083	0.0405	0.0015	0.1327	98.1
-0.0091	0.0225	0.0022	0.141	98.3
-0.0091	0.0202	0.0007	0.1125	98.1
-0.0098	0.0217	-0.003	0.06	98.4
-0.012	0.018	-0.006	0.1402	98.3
-0.012	0.0307	-0.0091	0.1695	98.3
-0.012	0.0232	-0.0091	0.0742	98.3
-0.0105	0.0285	-0.0113	-0.0083	98.4
-0.0091	0.0217	-0.0143	0.048	98.5
-0.0083	-0.0113	-0.0181	0.1627	98.6
-0.0053	-0.0458	-0.0158	0.4987	98.6
0.0007	-0.0653	-0.012	0.5782	98.6
0.0052	-0.0293	-0.0083	0.3337	98.4
0.0097	-0.0068	0.0007	0.3337	98.6
0.0135	-0.0256	0.0067	0.222	98.8
0.0112	0.045	0.009	-0.108	98.5
0.006	0.1455	0.006	-0.4155	98.6
0.0015	0.078	0.0037	-0.8498	98.3
0.0007	0.0202	0.006	-0.7673	98.7
0.0037	0.024	0.0067	-0.2378	98.7
0.003	-0.0053	0.0037	-0.0698	98.9
0.0045	0.0105	-0.0008	-0.0218	99
0.0045	-0.0083	-0.003	-0.0068	98.9
0.0067	-0.033	0.0007	0.003	98.9
0.012	-0.0465	0.0015	0.0127	99.1
0.0135	-0.0346	-0.0015	0.0142	98.7
0.0142	-0.0053	-0.0008	0.057	99.3
0.0142	-0.0233	-0.0023	0.0465	98.9
0.0135	-0.006	-0.0038	0.0675	99.1
0.0142	-0.0091	-0.0053	0.0622	99.2
0.0135	-0.0068	-0.0046	0.0637	99.2
0.0112	0.0007	-0.003	0.0615	99.2
0.012	0.0015	-0.0068	0.0427	99.2
0.0165	0.039	-0.0083	0.0367	99.2
0.0225	0.0817	-0.0046	0.0787	99.4
0.0292	0.1192	0.0007	0.2842	99.4
0.0352	0.0712	0.0045	0.5805	99.6
0.033	-0.0698	-0.003	0.6397	99.5
0.024	-0.183	-0.0113	0.4005	99.5
0.015	-0.1163	-0.0075	0.1042	99.4
0.0127	0.0352	0.0045	-0.1763	99.3
0.0157	0.0465	0.0127	-0.2693	99.5
0.0105	-0.0623	0.0082	-0.252	99.5
-0.0068	-0.1058	-0.006	-0.267	99.3
-0.0195	-0.0743	-0.0143	-0.1763	99.5
-0.0225	-0.1118	-0.0083	-0.1726	99.5
-0.0181	-0.1095	0.0067	-0.4845	99.5
-0.0135	-0.0128	0.0165	-0.6871	99.4
-0.015	0.0802	0.0157	-0.7238	99.5
-0.0158	0.1537	0.0135	-0.5678	99.6
-0.0165	0.1327	0.0112	-0.1733	99.8
-0.0165	0.0637	0.0037	0.0967	99.8
-0.0225	0.027	-0.0015	0.1507	99.7
-0.0248	0.0195	-0.0038	0.1155	99.9
-0.024	0.2062	-0.0046	0.2025	99.9
-0.0225	0.405	0.0007	0.2782	99.9
-0.0165	0.3112	0.003	0.3727	100.1
-0.0181	0.1282	-0.0053	0.465	100
-0.0278	-0.0308	-0.0128	0.4747	99.8
-0.0278	-0.291	-0.0135	0.2632	100.1
-0.0173	-0.3481	-0.015	0.0585	99.9
-0.0053	-0.12	-0.0128	0.12	100
0.0067	-0.1118	-0.0091	0.3097	100
0.0135	-0.114	-0.0068	0.4687	100.3
0.0217	0.0817	-0.0015	0.2137	100.2
0.024	0.171	-0.0015	-0.2685	99.9
0.0307	0.0375	0.0015	-0.7215	100.1
0.0382	-0.2776	0.0082	-0.903	99.9
0.045	-0.4051	0.0165	-0.6825	100.1
0.054	-0.2633	0.0172	-0.3878	100.2
0.048	-0.0968	0.0075	-0.0758	100.3
0.0382	-0.033	0.0052	0.072	100.3
0.0262	-0.0608	-0.0023	0.0345	100.3
0.0045	0.003	-0.0105	0.1215	100.3
-0.0143	0.0622	-0.0158	0.168	100.3
-0.0361	0.054	-0.0143	0.1305	100.3
-0.0511	0.0667	-0.0105	0.129	100.4
-0.0615	0.078	-0.0075	0.1425	100.4
-0.0638	0.0915	-0.0023	0.258	100.6
-0.06	0.063	0.0007	0.5235	100.8
-0.0563	-0.0361	0.0112	0.8475	100.7
-0.0555	-0.1403	0.0127	0.7552	100.8
-0.0645	-0.0713	0.0105	0.2347	100.4
-0.0706	0.0787	0.0082	-0.4733	100.4
-0.0675	0.0397	0.0082	-0.8813	100.4
-0.057	-0.0765	0.0067	-0.7456	100.4
-0.0428	-0.0691	0.0082	-0.597	100.5
-0.0293	0.0555	0.0187	-0.2978	100.6
-0.0203	0.18	0.0045	-0.0856	100.7
-0.0203	0.2085	-0.0128	0.0255	100.8
-0.0181	0.1747	-0.0188	0.1267	100.7
-0.0143	0.1237	-0.0225	0.114	100.8
-0.0068	0.0862	-0.0143	0.1282	100.6
0.0015	0.0487	-0.0091	0.0937	100.8
0.009	0.0315	-0.0083	0.1042	100.8
0.0157	0.0157	-0.0046	0.084	100.8
0.0202	-0.0053	-0.003	0.0825	100.9
0.0247	-0.0068	-0.0008	0.0742	100.8
0.0255	-0.0165	0.0007	0.0682	101
0.0255	-0.0128	0.0015	0.0667	100.9
0.0232	-0.0105	-0.0015	0.0645	100.9
0.0202	-0.0091	-0.006	0.0742	101
0.0217	-0.0068	-0.006	0.0495	101
0.0255	-0.0091	-0.006	0.057	101
0.0277	-0.0053	-0.0053	0.0442	101.2
0.0277	-0.0098	-0.0053	0.0465	100.9
0.0217	-0.0128	-0.0068	0.0217	101.1
0.0187	-0.0256	-0.0053	-0.0158	101
0.0195	-0.0308	0.0007	-0.0068	101.2
0.0217	-0.0173	0.006	0.0022	101
0.0217	-0.0091	0.0082	-0.0075	101.2
0.0202	-0.0105	0.0105	-0.024	101.2
0.021	-0.012	0.0142	-0.0113	101
0.0232	-0.0181	0.018	-0.012	101.4
0.0217	-0.024	0.018	-0.021	101.2
0.021	-0.0195	0.0157	-0.0218	101.2
0.0195	-0.0128	0.015	-0.033	101.2
0.0172	-0.0068	0.0127	-0.0398	101.3
0.0165	-0.0098	0.0157	-0.0368	101.2
0.0157	-0.012	0.0142	-0.0263	101.3
0.0127	-0.0068	0.0135	-0.0218	101.3
0.0105	-0.0023	0.012	-0.0053	101.4
0.0097	0.0052	0.0082	0	101.2
0.0082	0.0105	0.0067	-0.012	101.4
0.0052	0.018	0.0045	-0.0203	101.4
0.0015	0.0255	0.0007	0.0127	101.5
0.0022	0.0277	0.0007	0.1342	101.7
0.003	0.0277	-0.0008	0.2287	101.4
0.0015	0.0247	-0.0053	0.2287	101.7
0.0015	-0.003	-0.003	0.291	101.6
0.0022	-0.042	-0.0015	0.2895	101.6
-0.0046	-0.0225	-0.0046	0.0975	101.6
-0.0135	0.0555	-0.0053	0.0157	101.6
-0.0165	0.0667	-0.0053	-0.183	101.6
-0.0143	0.009	0	-0.3578	101.7
-0.003	0.0232	0.0045	-0.2168	101.6
0.003	0.0097	-0.0008	-0.0773	101.8
0.0045	-0.0856	-0.0068	0.15	101.7
0.003	-0.054	-0.0105	0.1207	101.7
-0.0075	0.0967	-0.0158	-0.2183	101.5
-0.0143	-0.0593	-0.0158	-0.5048	101.5
-0.0143	-0.2108	-0.0181	-0.594	101.5
-0.0143	0.051	-0.0188	-0.3653	101.7
-0.0143	0.1897	-0.0158	-0.2288	101.8
-0.015	0.2475	-0.0113	-0.0511	101.6
-0.0105	0.1755	-0.0015	0.0345	101.8
-0.0053	0.063	0.006	-0.0023	101.9
-0.0023	0.0037	0.0052	0.0705	101.7
-0.0046	-0.3713	-0.0015	0.0405	101.8
-0.0046	-0.4103	-0.0046	0.0862	101.8
-0.0053	-0.1095	-0.0075	0.1252	101.6
-0.0083	-0.0691	-0.0098	0.1252	101.8
-0.0091	-0.0825	-0.0091	0.1117	101.8
-0.0068	0.003	-0.0113	0.1275	101.9
-0.0008	0.0135	-0.0143	0.267	101.9
0.0075	-0.012	-0.0143	0.5295	102
0.018	0.159	-0.006	0.8385	102.3
0.0217	0.3172	-0.0053	0.9397	102
0.015	0.348	-0.0105	0.879	102.1
0.0045	0.4215	-0.0091	0.2452	101.7
0.0015	0.1875	0.0045	-0.909	101.4
0.0052	-0.2798	0.0255	-1.0493	101.8
0.0097	-0.4268	0.0337	-0.6286	101.6
0.0045	-0.4493	0.0337	-0.6623	101.9
0.003	-0.4433	0.0345	-0.5858	101.6
0.0052	-0.159	0.0285	-0.5273	101.8
0.0052	-0.075	0.0232	-0.306	102
0.0007	-0.0555	0.0097	-0.0533	102
-0.0038	0.0622	-0.0008	0.012	101.9
-0.003	0.042	-0.0046	0.1057	102.1
-0.0083	0.105	-0.0046	0.1312	101.9
-0.0105	0.0555	0.0022	0.1642	102.1
-0.0083	0.057	-0.0046	0.1522	101.7
-0.006	0.0675	-0.012	0.1597	102.1
-0.0068	0.0367	-0.0128	0.1432	101.9
-0.0075	0.0727	-0.0113	0.1312	101.9
-0.0068	0.0487	-0.0135	0.1237	102.1
-0.006	0.0802	-0.0195	0.1485	101.8
-0.0023	0.0487	-0.0233	0.2745	102.2
0.0045	0.0195	-0.0263	0.5107	102.1
0.012	0.0345	-0.0218	0.7777	102.3
0.0172	0.0967	-0.0158	0.8062	102.1
0.0202	0.1432	-0.0128	0.4425	101.9
0.0165	0.0435	-0.0188	-0.324	101.7
0.003	-0.084	-0.0256	-0.8468	101.8
-0.006	-0.1426	-0.0173	-0.6143	102
-0.0046	-0.12	-0.003	-0.3698	101.9
0.0007	-0.1125	0.0105	-0.6653	101.8
0.0067	0.012	0.0157	-0.54	102
0.0052	0.0937	0.0142	-0.2955	102
0.0022	0.063	0.0127	-0.1875	102.1
0.0067	0.0855	0.0082	0.0847	102.1
0.0075	0.054	0.009	0.0855	102
0.0067	0.0607	0.012	0.1605	102.1
0.003	0.048	0.015	0.12	102
-0.0008	0.0255	0.0157	0.102	102.1
-0.0046	0.0195	0.0165	0.1365	102.1
-0.0046	-0.0375	0.018	0.1252	102.1
-0.0015	-0.0683	0.0195	0.1425	102.1
-0.0023	-0.0863	0.0195	0.0907	102
-0.003	-0.084	0.0202	0.1087	102
-0.0053	-0.0495	0.021	0.09	102.1
-0.0068	0.066	0.015	0.0892	102.1
-0.0098	0.1942	0.0082	-0.0008	102.1
-0.0113	0.2107	0.0022	-0.0353	102.1
-0.0143	0.0652	-0.003	0.117	102.1
-0.0165	-0.003	-0.0068	0.3315	102.1
-0.0128	0.0195	-0.0105	0.3495	102
-0.012	-0.09	-0.0143	0.0825	102
-0.0128	-0.0743	-0.0165	-0.0998	102
-0.012	0.006	-0.0128	-0.1373	102
-0.006	-0.0195	-0.0091	-0.1035	102.1
-0.0046	-0.066	-0.0091	-0.0488	101.8
-0.0015	-0.0795	-0.0083	0.0165	102.1
0.003	-0.0863	-0.0068	0.0652	102.1
0.0022	-0.0721	-0.0091	-0.1426	101.9
-0.0015	-0.0046	-0.0158	-0.3315	102
-0.0068	0.012	-0.0188	-0.186	101.9
-0.0053	0.0442	-0.0195	-0.0525	102.1
-0.0053	0.054	-0.0158	-0.0398	102
-0.0046	0.0495	-0.0158	0.0157	102
-0.003	0.0585	-0.0165	0.0652	102.1
-0.0008	0.063	-0.0143	0.15	101.9
0.0015	0.1065	-0.0158	0.099	102.1
0.003	0.0195	-0.0158	-0.0983	101.9
0.0052	0.054	-0.0143	-0.0803	102.1
0.006	0.1252	-0.0135	0.099	102.1
0.0082	-0.09	-0.0105	0.3097	102.1
0.0127	-0.1103	-0.003	0.3652	102.3
0.0127	0.09	-0.0015	0.087	102
0.0067	0.3022	-0.0046	-0.1523	102
0.0075	0.2797	-0.0008	-0.1973	102.1
0.009	0.0082	-0.0015	-0.1268	102.1
0.0097	-0.2303	-0.006	0.024	102.1
0.009	-0.591	-0.0105	-0.06	102.1
0.0105	-0.5865	-0.0075	-0.225	102
0.0135	-0.1965	0	-0.3466	102
0.0142	-0.129	0.0052	-0.2625	102
0.0165	-0.1223	0.0112	-0.0533	102.3
0.0127	-0.0105	0.012	-0.075	102.1
0.012	-0.0113	0.0127	-0.0338	102.1
0.0097	-0.0315	0.0052	0.0427	102.1
0.0022	0.0195	0.0015	0.0472	102.1
-0.0008	0.1792	-0.003	0.0787	102.3
-0.0053	0.216	-0.0046	0.093	102
-0.0068	0.0637	0.003	0.0825	102.2
-0.0068	0.051	0.0037	0.1065	102.1
-0.0083	0.081	0.0052	0.1005	102.2
-0.0105	0.0412	0.009	0.0465	102.2
-0.0105	0.0457	0.012	0.0277	102
-0.012	0.0435	0.0142	0.0457	102.2
-0.0135	0.042	0.0165	0.0727	102.1
-0.0143	0.039	0.0195	0.0202	102.1
-0.0181	0.0345	0.0157	-0.0503	102.2
-0.0195	0.054	0.0105	-0.0428	102.1
-0.0195	0.0892	0.009	0.0787	102.2
-0.0158	0.0862	0.0097	0.3105	102.1
-0.0113	0.0015	0.0052	0.4605	102.1
-0.0083	0.0015	0.0007	0.315	102.3
-0.0091	0.0825	-0.0053	-0.1088	101.9
-0.0105	0.0412	-0.0046	-0.4538	102
-0.0053	-0.084	0.003	-0.3728	102.1
0.0037	-0.0533	0.0127	-0.0638	102.2
0.0052	-0.0015	0.0187	-0.015	102.1
0.0052	-0.0728	0.0202	0.0052	102.2
0.0097	-0.027	0.0255	-0.0015	102.1
0.0097	-0.0503	0.0202	-0.2198	102.2
0.009	-0.0728	0.0127	-0.2806	102.1
0.009	-0.0128	0.012	-0.1553	102.3
0.0112	-0.0008	0.0067	-0.0008	102.1
0.0105	0.0817	0.0015	0.069	102.3
0.0052	0.0937	-0.003	0.0367	102.1
0.003	0.144	-0.0015	0.0817	102.4
0.0037	0.21	0.0007	0.1867	102.3
0.0022	0.1635	0.0022	0.2002	102.3
0	0.027	0.0052	0.09	102.3
-0.0038	-0.0773	0.0022	-0.042	102.1
-0.0105	-0.0346	-0.0075	0.0067	102.2
-0.015	-0.0495	-0.0143	-0.0008	102.1
-0.0165	-0.1403	-0.0128	-0.1208	102.1
-0.0181	-0.1463	-0.015	-0.1441	102.1
-0.0165	-0.0765	-0.0181	-0.1275	102.2
-0.012	-0.084	-0.0181	0.099	102.2
-0.0046	-0.1553	-0.0181	0.462	102.5
0.0015	-0.2723	-0.0173	0.5475	102.2
0.003	-0.0856	-0.0158	0.4305	102.5
0.012	0.0577	-0.012	0.4747	102.3
0.0135	-0.2333	-0.0105	0.4575	102.3
0.006	-0.06	-0.0053	0.012	102.1
0.0007	0.252	0.0007	-0.6098	102
-0.0083	0.282	0.0007	-1.068	102.1
-0.012	0.2025	0.0037	-1.1933	101.9
-0.0053	0.0202	0.0112	-0.7283	102.1
-0.0053	-0.0833	0.0142	-0.2985	102.1
-0.0075	-0.1021	0.0112	-0.1268	102.3
-0.0075	0.0622	0.0052	0.0817	102.3
-0.0083	0.0675	-0.0083	0.0195	102.3
-0.0098	0.0232	-0.0143	0.0765	102.3
-0.0068	0.0255	-0.0128	0.189	102.3
-0.0038	0.0435	-0.0105	0.2235	102.2
-0.0023	0.2055	-0.0091	0.1987	102.3
-0.0023	0.2602	-0.0105	0.1117	102.2
0.003	0.2572	-0.0068	0.2355	102.3
0.0045	0.1665	-0.0075	0.2722	102.3
-0.0008	0.0322	-0.0091	0.1185	102.2
-0.0008	-0.0758	-0.0068	0.1012	102.5
0.0045	-0.3218	0.0015	0.2055	102.4
0.0097	-0.4013	0.009	0.174	102.3
0.012	-0.1365	0.0052	0.1462	102.4
0.0082	-0.2145	0.0007	0.0712	102.3
0.0067	-0.2108	0.003	0.0352	102.3
0.009	0.1822	0.0022	-0.0046	102.3
0.009	0.2797	-0.0015	-0.1741	102.3
0.0112	0.3787	-0.0046	-0.1253	102.4
0.012	0.2962	-0.0068	0.1282	102.2
0.0127	0.0622	-0.0083	0.3607	102.4
0.0157	-0.078	-0.0053	0.189	102.3
0.0165	-0.3788	0.003	-0.039	102.5
0.0112	-0.4313	0.006	-0.0915	102.2
0.0067	-0.198	0.0067	-0.321	102.1
0.006	-0.2535	0.0052	-0.324	102.3
0.0052	-0.234	0.0045	-0.1995	102.3
0.0045	-0.0158	-0.0008	-0.0968	102.4
0.0022	-0.0615	0.0015	0.0052	102.3
0.003	0	0.0045	-0.0518	102.3
0.0007	0.0292	0.0007	-0.1065	102.2
-0.0008	0.0247	-0.0023	-0.0675	102.3
0	0.0952	-0.0053	0.1177	102.3
0.0045	0.0517	-0.0105	0.1672	102.1
0.0022	0.078	-0.0113	0.1132	102.1
0.003	0.0742	-0.0053	0.0832	102.6
0.0045	0.0592	-0.0008	-0.0143	102.1
0.0037	-0.0308	0.0067	0.012	102.3
0.0067	-0.0533	0.0135	-0.0225	102.3
0.003	0.0202	0.0127	-0.1283	102.3
0.0015	0.042	0.0127	-0.18	102.4
0.0007	0.1087	0.0127	-0.0765	102.3
-0.0008	0.0885	0.0105	0.093	102.3
-0.0015	0.1087	0.003	0.0855	102.3
-0.003	0.1875	-0.003	0.2445	102.6
-0.0046	0.1725	-0.0046	0.4605	102.5
-0.0023	0.1252	-0.0068	0.5527	102.4
0	0.1065	-0.0135	0.2745	102.1
-0.0083	0.0352	-0.027	-0.0593	102.3
-0.0128	-0.1515	-0.0256	-0.039	102.3
-0.0105	-0.2821	-0.0165	0.168	102.4
-0.0046	-0.258	-0.0068	0.525	102.4
-0.0038	-0.2063	-0.0038	0.036	102.3
-0.0158	-0.075	-0.0075	-0.6811	101.9
-0.0165	0.114	0.0067	-0.9893	102.1
-0.012	0.0577	0.0172	-0.9518	102.2
-0.0068	0.0615	0.024	-0.4005	102.2
-0.003	0.063	0.0225	-0.2768	102.3
-0.0046	-0.0683	0.009	-0.2175	102.1
-0.0068	0.1087	0.0075	-0.1726	102.3
-0.0075	0.1477	0.0037	-0.0346	102.5
-0.0068	0.0135	0.0007	0.1845	102.4
-0.0075	0.036	0.0007	0.1957	102.3
-0.0083	0.0652	-0.0008	0.3232	102.5
-0.0105	0.105	-0.0015	0.2227	102.3
-0.0105	0.03	-0.0053	0.117	102.3
-0.0068	0.0082	-0.0046	0.0892	102.2
-0.003	0.042	-0.003	0.1155	102.6
0.0015	0.0097	-0.0015	0.1612	102.4
0.003	0.123	-0.003	0.3712	102.6
0.003	0.1957	-0.0068	0.6022	102.5
0.0007	0.0037	-0.0098	0.405	102.4
0.0052	-0.0863	-0.0091	0.1597	102.6
0.0052	-0.0871	-0.0105	0.027	102.2
0.0015	-0.2168	-0.0113	-0.1305	102.4
0.0015	-0.2303	-0.0053	-0.3758	102.3
0.0052	-0.1635	-0.0023	-0.4418	102.3
0.009	0.039	-0.0015	-0.4328	102.4
0.0097	0.1755	-0.003	-0.312	102.4
0.0105	0.0997	-0.0053	0.1012	102.5
0.009	-0.0383	-0.0068	0.5152	102.6
0.0127	-0.1523	-0.0023	0.5482	102.6
0.012	0.0105	-0.0068	0.012	102.5
0.006	0.1965	-0.0075	-0.1703	102.4
0.0097	0.2175	0.0045	0.18	102.6
0.012	0.0667	0.0112	0.2685	102.6
0.003	-0.1478	0.012	-0.1396	102.4
-0.0068	-0.246	0.009	-0.2618	102.6
-0.0046	-0.4515	0.0105	-0.2873	102.4
-0.003	-0.4838	0.018	-0.4823	102.6
-0.0008	-0.0495	0.027	-0.2408	102.4
-0.0038	0.267	0.0202	-0.4793	102.5
-0.0135	0.2692	0.0075	-0.4021	102.5
-0.012	0.2085	0.0045	-0.0083	102.5
-0.0098	0.0382	-0.0053	0.0495	102.6
-0.012	-0.066	-0.0105	0.189	102.7
-0.0128	-0.0143	-0.0128	0.213	102.7
-0.015	-0.0008	-0.0105	0.405	102.8
-0.0128	0.141	-0.0068	0.3997	102.8
-0.0091	0.3675	-0.0068	0.303	102.8
-0.0083	0.4755	-0.006	-0.0053	102.8
-0.0053	0.5325	-0.0015	-0.1598	102.7
-0.0008	0.405	0.0015	0.0495	102.9
0.0037	-0.027	-0.0008	-0.042	102.5
0.0045	-0.7043	-0.0046	-0.0818	103
0.003	-0.8475	-0.0105	-0.0308	102.9
0.0037	-0.3023	-0.012	0.1132	102.7
0.0075	-0.1935	-0.0083	0.216	103
0.0082	-0.1568	-0.0068	-0.0825	102.7
0.0052	-0.0308	-0.0068	-0.273	102.9
0.0015	-0.1411	-0.006	-0.2258	102.7
0.0007	-0.0706	0.0007	-0.0585	102.9
0.006	-0.039	0.006	0.057	102.9
0.009	0.039	0.0037	-0.0188	102.9
0.0075	0.1395	0.0045	0.228	103.2
0.0037	0.1875	0.0075	0.348	103
0.0007	0.222	0.0082	0.2452	103.1
0.0015	0.1537	0.0105	0.2437	103.1
0.0007	0.0645	0.006	0.1762	103.1
0.0015	-0.0871	0.0007	-0.108	102.9
0.0052	-0.1575	0	-0.435	102.9
0.0105	-0.0975	-0.0015	-0.3585	103
0.012	-0.1575	-0.0046	-0.0593	103.1
0.0082	-0.3233	-0.006	0.108	103
0.0007	-0.1388	-0.0105	-0.0458	103.1
-0.0075	0.0607	-0.0098	-0.1935	103
-0.0046	0.1462	0.0037	-0.234	103.2
0.0007	0.369	0.012	-0.2325	103.1
0.0015	0.2235	0.0135	-0.09	103.2
0.0022	0.0675	0.0127	-0.0548	103
-0.0015	0.0727	0.006	-0.0938	103.2
-0.0068	0.0457	-0.0008	0	103.2
-0.0083	0.0645	-0.0091	0.1245	103.2
-0.0091	-0.0135	-0.0105	0.1747	103.2
-0.0053	-0.0158	-0.0053	0.1575	103.5
-0.0038	-0.0233	-0.0038	0.1237	103.2
0.0015	-0.0218	-0.0015	0.1537	103.4
0.0052	0.0172	0.0007	0.1402	103.5
0.0037	0.0202	-0.003	0.093	103.3
0.0015	0.0457	-0.0068	0.0952	103.4
-0.0008	0.0232	-0.0068	0.084	103.4
-0.0008	0.0172	-0.0015	0.1117	103.5
0.0007	0.0022	0	0.2677	103.4
0.0007	0	-0.0008	0.2302	103.5
0.0015	0.0532	0.0022	0.018	103.6
-0.0023	0.0345	0.0015	-0.1215	103.4
-0.006	-0.0825	-0.0008	-0.2115	103.5
-0.0053	-0.1155	-0.0053	-0.2026	103.5
0.0045	-0.045	-0.0053	-0.1935	103.5
0.0172	-0.0008	-0.0015	-0.2213	103.6
0.0172	0.0442	-0.0053	-0.2595	103.5
0.012	0.1357	-0.0023	-0.1875	103.6
0.0052	0.102	0	-0.0338	103.8
-0.003	-0.057	-0.0008	-0.0023	103.6
-0.0053	-0.0825	0	0.0997	103.8
-0.0046	-0.093	0.006	0.237	103.7
-0.003	-0.0638	0.0082	0.3157	104
-0.0053	0.0532	0.006	0.3997	103.8
-0.0091	-0.0263	0.0045	0.486	103.9
-0.0143	-0.0856	0.003	0.195	103.8
-0.0181	-0.0443	0.0007	-0.2708	103.7
-0.0173	0.0135	0.003	-0.4238	103.8
-0.0105	0.0787	0.009	-0.603	103.9
-0.0068	-0.003	0.0112	-0.3975	103.9
-0.0091	-0.039	0.0045	-0.129	103.9
-0.0105	-0.0195	-0.0083	-0.18	103.9
-0.0083	-0.0053	-0.0181	-0.0195	103.9
-0.0046	0.039	-0.015	0.0352	104.1
-0.0015	0.0292	-0.0068	0.0652	104
0.0015	0.0382	-0.003	0.1327	104.3
0.0045	0.012	-0.0015	0.231	104.2
0.0067	-0.0458	-0.0008	0.4777	104.2
0.009	-0.063	0.0015	0.423	104.4
0.0097	-0.0165	0.003	0.2175	104.3
0.012	0.1215	0.0037	0.0802	104.4
0.0165	0.1912	0.0037	0.0112	104.3
0.0157	0.1147	0.0015	-0.0353	104.1
0.0052	0.0195	0.0007	-0.2625	104.2
0.0007	0.0052	0.003	-0.4673	104.3
-0.0008	-0.0053	0.0105	-0.4703	104.4
-0.0008	-0.0338	0.0127	-0.21	104.3
-0.0008	-0.0203	0.0127	0.0742	104.5
-0.003	0.0457	0.012	0.126	104.4
-0.0128	0.0157	0.0052	-0.0278	104.3
-0.0195	-0.1103	-0.0008	-0.1635	104.5
-0.0143	-0.1665	-0.0008	-0.039	104.5
-0.012	-0.222	0.0007	0.1845	104.6
-0.0091	-0.1478	-0.003	0.3187	104.6
-0.006	-0.0225	-0.0105	0.3067	104.4
-0.0113	-0.0578	-0.0165	0.2407	104.8
-0.0135	0.156	-0.0165	0.0637	104.5
-0.0128	0.3682	-0.0135	-0.1073	104.6
-0.012	0.1815	-0.0143	-0.2993	104.5
-0.0105	0.0457	-0.0128	-0.3705	104.4
-0.0053	-0.2333	-0.0068	-0.1838	104.6
0.0045	-0.4635	-0.0015	-0.1283	104.6
0.0082	-0.1958	-0.0046	-0.0315	104.7
0.0067	0.0982	-0.0075	0.0412	104.8
0.0067	0.1635	-0.0083	0.0472	104.6
0.006	0.0735	-0.0091	0.0502	104.9
0.009	0.0712	-0.0091	0.0727	104.8
0.0112	-0.0465	-0.0083	0.0877	105
0.0127	-0.2153	-0.0046	0.0202	104.8
0.0112	-0.0346	0.003	0.0502	104.9
0.012	0.114	0.009	0.06	105.1
0.012	0.045	0.0142	0.0585	104.9
0.0082	-0.015	0.0127	0.042	105.2
0.0082	-0.0728	0.012	0.027	105.2
0.0045	-0.0765	0.009	0.015	105.1
0.003	0.0495	0.003	0.0382	105.1
-0.0008	0.0652	-0.0015	0.1027	105.2
-0.0053	0.0337	-0.0053	0.0787	105.2
-0.006	0.0307	-0.0053	0.0202	105.3
-0.0075	0.0232	-0.0046	-0.0128	105.2
-0.0068	0.0652	-0.003	0.0247	105.3
-0.0053	0.0457	-0.003	0.0405	105.3
-0.0053	0.0502	0	0.0292	105.4
-0.0038	0.0607	0.0015	0.0247	105.4
0	0.0397	0.0007	-0.003	105.3
0.009	0.024	-0.0015	0.0555	105.4
0.0195	0.003	-0.0083	0.0682	105.2
0.0225	0.009	-0.006	-0.0278	105.5
0.0202	0.0127	-0.0015	-0.0743	105.4
0.0165	0.0135	0.003	-0.0263	105.5
0.012	0.006	0.0075	0.1005	105.5
0.0082	-0.0158	0.009	0.1402	105.5
0.0075	-0.0368	0.0135	0.1162	105.3
0.0067	-0.0256	0.0142	0.168	105.6
-0.0015	-0.0053	0.0105	0.2257	105.5
-0.0083	0.03	0.0105	0.1455	105.7
-0.0113	0.0412	0.0067	-0.1411	105.5
-0.0181	0.0105	-0.0038	-0.462	105.5
-0.0195	0.033	-0.0068	-0.5123	105.5
-0.0143	-0.0293	-0.0015	-0.4733	105.4
-0.0135	-0.0788	-0.003	-0.39	105.6
-0.0105	-0.0256	-0.0046	-0.2093	105.5
-0.0113	-0.0593	-0.0083	-0.1665	105.8
-0.0105	-0.012	-0.003	-0.1073	105.6
-0.0053	0.105	-0.0008	0.0465	105.8
-0.006	0.075	-0.0068	0.1177	105.7
-0.006	0.0195	-0.0053	0.1365	105.7
-0.0046	-0.0105	-0.0075	0.1305	105.7
-0.003	-0.0803	-0.0091	0.09	105.8
-0.006	-0.1163	-0.0128	0.1117	105.7
-0.0068	-0.0548	-0.012	0.1402	105.8
-0.0053	-0.0181	-0.0091	0.1162	105.6
-0.003	-0.0293	-0.0091	0.1065	105.8
0.0015	0.0157	-0.0083	0.0787	105.6
0.006	0.0502	-0.0068	0.0727	105.8
0.009	0.0367	-0.0038	0.1485	105.8
0.0105	0.0097	0.0007	0.282	105.9
0.0112	0.003	0.0052	0.3247	105.7
0.009	-0.042	0.0067	0.1582	105.7
0.0052	-0.033	0.0082	-0.0878	105.7
0.0015	0.0195	0.0105	-0.3428	105.6
0.0007	-0.039	0.015	-0.3023	105.7
0.0045	-0.0548	0.0135	-0.1223	105.7
0.0015	-0.0346	0.0052	-0.12	105.8
-0.0046	0.0067	-0.0046	-0.126	105.7
-0.0053	0.0502	-0.0105	-0.093	106
-0.003	0.036	-0.0113	0.054	105.7
-0.0015	0.0322	-0.0143	0.0877	105.7
-0.0015	0.0315	-0.0165	0.1102	105.7
-0.0015	0.0202	-0.0143	0.087	105.7
-0.0008	-0.0233	-0.0046	0	105.8
0.0022	-0.0675	-0.0008	0.0105	105.7
0.003	-0.0803	0.0007	0.0187	105.9
0.0045	0.0187	0.0045	0.0532	105.7
0.0037	0.1147	0.0052	0.0135	105.9
0.0015	0.1687	0.0067	0.0142	105.7
-0.0008	0.2272	0.0082	0.021	105.8
-0.003	0.0967	0.0082	0	105.8
-0.003	-0.0256	0.009	-0.0188	105.7
0.0007	-0.0833	0.0105	-0.0278	105.8
0.0067	-0.093	0.012	0.0255	105.8
0.009	-0.0383	0.0097	0.0907	105.7
0.009	-0.0361	0.0037	0.1065	105.9
0.0015	0.2137	-0.0015	0.0615	105.8
-0.003	0.3382	0.0015	0.0007	105.7
-0.003	0.2107	0.0097	-0.1238	105.8
0.0015	0.069	0.0127	-0.1538	105.6
0.0052	-0.3555	0.012	-0.1028	105.9
0.0052	-0.705	0.012	-0.1095	105.7
0.0045	-0.6008	0.0097	-0.0728	105.9
0.0037	-0.1335	0.009	0.0232	105.9
0.0052	-0.0248	0.0067	0.0562	105.8
0.0067	-0.0465	0.0015	0.0307	105.9
0.0045	0.1372	-0.0008	0.0615	105.7
0.0045	0.0382	-0.0046	0.2137	105.9
0.0037	0.0607	-0.0083	0.3592	105.9
-0.0053	0.0465	-0.0143	0.2842	105.7
-0.0105	0.009	-0.0165	0.03	105.8
-0.0128	0.054	-0.0158	-0.1741	105.6
-0.0113	0.054	-0.012	-0.1815	105.7
-0.0053	0.114	-0.0068	-0.1823	105.7
-0.0015	0.0532	-0.0053	-0.2415	105.5
0.0007	0.024	-0.0008	-0.2325	105.8
0.003	-0.0518	0.006	-0.2026	105.6
0.0022	-0.0548	0.0105	-0.0375	105.8
0.0007	0.0502	0.0112	0.2122	105.7
0.0015	0.0217	0.012	0.1147	105.7
0.0015	0.027	0.009	-0.0346	105.7
0.0007	0.0322	0.0045	-0.1508	105.4
0.0015	0.0607	0.0022	-0.228	105.7
0.0022	0.1425	0.0007	-0.0511	105.7
0.0015	0.1672	-0.0023	-0.0233	105.6
0.003	0.132	-0.0046	0.0457	105.6
0.0052	0.0532	-0.0023	0.0922	105.6
0.0067	0.0352	0.0007	0.0195	105.6
0.0052	-0.0533	-0.0008	0.012	105.7
-0.0008	-0.2408	-0.0091	0.0375	105.5
-0.006	-0.1845	-0.0143	0.1177	105.7
-0.0068	0.0045	-0.0158	0.1507	105.5
-0.0038	0.0502	-0.012	0.1747	105.8
-0.0015	0.102	-0.012	0.1597	105.5
-0.0046	0.1365	-0.0158	0.0637	105.5
-0.003	0.1717	-0.0113	0	105.7
0.0015	0.12	-0.0046	-0.0256	105.4
0.0007	-0.1538	-0.003	-0.1103	105.6
-0.0023	-0.1763	-0.0053	-0.054	105.5
-0.0046	-0.0893	-0.0046	-0.0315	105.5
-0.0046	-0.1103	0.0007	-0.0848	105.6
-0.0023	-0.003	0.0052	0.0532	105.5
-0.0015	-0.0135	0.0082	0.0967	105.4
-0.003	-0.0465	-0.0008	0.0075	105.6
-0.0075	-0.0046	-0.0068	-0.0555	105.3
-0.006	0.0232	-0.0046	-0.0128	105.7
-0.0023	0.0952	-0.0008	0.0352	105.3
0.0015	0.0945	-0.0023	0.1807	105.5
0.0045	0.015	-0.0046	0.2445	105.4
0.0007	-0.0091	-0.0075	0.0502	105.2
-0.006	0.0382	-0.0105	-0.216	105.3
-0.0083	-0.0495	-0.0053	-0.4051	105.2
-0.0053	-0.1185	0.0007	-0.2813	105.4
-0.0038	0.0585	0.009	-0.1973	105.3
-0.0015	0.2182	0.0127	-0.12	105.5
-0.0008	0.3007	0.0142	0.1005	105.3
-0.0008	0.246	0.012	0.2175	105.3
-0.0008	0.0682	0.0112	0.3007	105.3
-0.0023	-0.0728	0.0142	0.2002	105.3
-0.0038	-0.369	0.0135	-0.0015	105.1
-0.0053	-0.384	0.0082	-0.135	105.3
-0.0053	-0.0285	0.0045	-0.165	105.2
-0.0038	-0.0443	0.0007	-0.156	105.2
-0.0046	-0.0495	-0.0023	-0.1433	105.1
-0.0008	0.096	0.0015	-0.0346	105.2
0.0022	0.069	0	-0.0473	105.3
0.0015	0.06	-0.0015	-0.0436	105
0.0022	-0.0818	-0.0015	0.0082	105.2
0.006	-0.1268	0.0015	0.0345	105.2
0.009	0.018	0.006	0.0855	105
0.0067	0.0097	0.0022	0.1365	105.2
0.0052	0.0112	0.0045	0.1762	105.2
0.0052	0.0015	0.003	0.1425	105.2
-0.003	-0.0608	-0.0068	0.0975	105
-0.0091	-0.045	-0.0075	-0.0263	104.9
-0.0075	-0.0203	-0.003	-0.0593	105.3
-0.0015	-0.0158	-0.0015	-0.0143	105
-0.0008	-0.0113	-0.0023	0.045	105.1
0	0.0397	0.0007	0.1125	105
0.0022	0.0772	0.0015	-0.0091	105
0.0037	0.0232	-0.0008	-0.093	105
0.0067	-0.0015	-0.003	-0.0225	104.9
0.009	0.054	-0.0015	0.0712	105
0.0067	0.0787	-0.003	0.0322	104.9
0.0067	0.0937	-0.006	-0.0158	104.8
0.0052	0.1147	-0.0046	-0.0338	105.1
0.006	0.0892	-0.0023	-0.0233	104.8
0.0067	0.0292	-0.0008	0.006	104.9
0.0075	-0.1006	0.0007	-0.093	105
0.003	-0.1928	0.0007	-0.1253	104.9
0.0022	-0.1411	0.006	-0.0788	104.9
0.0052	-0.0091	0.0082	-0.0225	104.9
0	0.1447	0.0007	0.0195	104.8
-0.0015	0.1965	-0.003	0.0675	104.9
-0.0015	0.1387	-0.0053	0.12	104.9
-0.003	0.1387	-0.0083	0.108	104.9
0	-0.0323	-0.0038	0.0082	104.7
0.0045	-0.2955	-0.0008	-0.0788	104.9
0.003	-0.2543	-0.003	-0.0871	104.7
0.0015	-0.156	-0.006	-0.0833	104.9
0.0045	-0.0968	-0.0038	-0.0555	104.8
0.0067	-0.105	0	-0.0518	104.9
0.0067	-0.1335	0.0015	0.0217	104.9
0.0037	0.0045	0.0045	0.1207	104.9
-0.003	0.012	0.003	0.1395	104.8
-0.006	0.0292	0.003	0.165	105.1
-0.0068	0.0802	0.006	0.1447	104.8
-0.0068	0.0585	0.0052	0.1012	104.8
-0.012	0.042	-0.003	0.1132	104.8
-0.0143	-0.0165	-0.0046	0.0277	104.8
-0.0143	0.021	-0.003	-0.147	104.9
-0.0128	0.0735	-0.0046	-0.2325	104.6
-0.0128	0.0952	-0.0105	-0.189	104.8
-0.0128	0.0615	-0.0113	0.1147	104.8
-0.0105	0.0052	-0.003	0.2535	104.9
-0.0091	-0.0046	0.0007	0.0082	104.8
-0.0091	-0.0315	0.0007	-0.1365	104.7
-0.012	0.0247	-0.0023	-0.2761	104.8
-0.0135	0.0607	-0.0046	-0.3436	104.6
-0.0098	-0.0023	-0.0008	-0.2595	104.9
-0.0053	-0.021	0.0022	-0.1726	104.8
-0.003	-0.042	0.0022	-0.0856	104.7
-0.0008	-0.0495	0.0037	-0.0428	104.9
0.0015	-0.0173	0.0045	0.0727	104.8
0.0037	0.0622	-0.0008	0.1695	104.9
0.0075	0.2677	-0.0053	0.2212	104.9
0.0075	0.393	-0.0091	0.2115	104.8
0.0037	0.246	-0.0128	0.1162	104.9
0.003	0.1342	-0.0105	0.0375	104.6
0.003	0.054	-0.0105	-0.024	104.8
-0.0008	-0.1868	-0.012	0.0307	104.9
-0.0015	-0.3825	-0.006	0.1455	104.8
0	-0.4433	-0.003	0.1005	104.9
-0.003	-0.1965	-0.0098	-0.093	104.6
-0.0053	-0.0308	-0.0091	-0.1995	104.8
-0.003	-0.0691	-0.003	-0.1523	104.8
0.0007	-0.0315	0.0015	-0.0368	104.9
0.0045	-0.0788	0.0045	0.0562	104.8
0.0045	0.006	0.003	0.1357	104.9
0.0067	0.063	0.003	0.1837	104.9
0.006	0.0577	0.0007	0.1012	104.9
0.0045	0.1012	-0.0023	-0.0218	104.8
0.003	0.0465	-0.0053	-0.0233	104.9
0.0022	-0.0225	-0.0038	-0.0346	104.6
0.006	-0.0871	-0.0008	-0.0938	104.9
0.0067	-0.0135	0.0015	-0.0856	104.7
0.0075	0.0435	0.0045	-0.108	104.9
0.0082	-0.0008	0.0045	-0.0368	104.9
0.0105	0.0082	0.009	0.0555	104.7
0.012	-0.003	0.0135	0.0082	104.9
0.012	0.0067	0.0142	-0.0008	104.8
0.0082	0.0345	0.0142	-0.0046	104.9
0.0052	0.0457	0.012	0.0135	104.8
0.0037	0.0465	0.0112	0.0195	104.7
-0.0008	0.0187	0.0052	-0.0075	104.9
-0.0038	-0.0053	0	0.0015	104.8
-0.0053	-0.015	-0.0023	-0.021	104.8
-0.0068	-0.0113	-0.0046	0.0067	104.8
-0.0038	0.0172	-0.0015	0.0427	104.7
-0.003	0.0165	-0.0008	0.0382	105.1
-0.0015	-0.0225	-0.0015	0.0495	104.7
-0.0015	-0.0105	-0.0015	0.03	104.9
-0.0023	0.009	-0.0015	0.0187	104.9
-0.0008	0.0322	-0.0023	-0.0075	104.8
-0.0015	0.0495	-0.0015	-0.0113	104.9
-0.0008	0.033	0.0007	0.0352	104.9
-0.0015	0.0097	-0.0008	0.0667	104.9
-0.0023	0.0007	-0.0038	0.1125	104.8
-0.0008	0.0382	-0.003	0.1177	104.9
0.0007	0.0427	-0.0023	0.0547	104.8
0.0015	0.0352	-0.006	-0.0713	104.7
0.0007	0.0532	-0.0091	-0.1726	104.8
-0.006	0.0277	-0.0113	-0.1726	104.5
-0.0053	-0.024	-0.0068	-0.1125	104.8
-0.0008	-0.0645	-0.0008	-0.0525	104.9
0.0007	-0.0953	0.0037	-0.0053	104.8
0.003	-0.1426	0.0097	0.024	104.9
0.0015	-0.1028	0.0105	0.0352	104.8
0.0022	0.0202	0.0127	0.1305	104.9
0.0052	0.0495	0.012	0.276	104.9
0.0052	0.0577	0.006	0.2572	104.7
-0.0015	0.1102	0.0007	0.144	104.9
-0.006	0.1357	-0.0038	0.0532	104.6
-0.0075	0.1215	-0.0015	-0.1028	104.8
-0.0083	-0.0278	-0.0008	-0.1613	104.7
-0.0128	-0.2018	-0.0053	-0.1763	104.8
-0.0173	-0.1815	-0.006	-0.1163	104.9
-0.015	-0.0443	-0.0105	0.012	104.7
-0.0158	-0.0278	-0.0188	-0.1635	104.8
-0.0158	0.0105	-0.0165	-0.3255	104.6
-0.0098	0.0127	-0.0091	-0.363	104.7
-0.0053	-0.1365	-0.0046	-0.225	105
-0.0023	-0.0653	0.003	0.0255	104.8
0.0007	-0.0443	0.0075	0.042	105
0.0015	-0.003	0.0105	0.0652	104.8
0.0022	0.132	0.0097	0.0592	105.1
0.0015	-0.0023	0.0052	0.093	104.8
0	0.0187	0.0015	0.141	104.8
-0.0008	0.06	-0.0008	0.12	104.9
-0.0008	0.147	0	0.108	104.9
-0.003	0.4192	-0.0008	0.06	104.9
-0.003	0.5415	-0.003	0.0585	104.8
-0.0008	0.5107	-0.0046	0.0045	104.8
0.0022	0.066	-0.0046	0.1027	105
0.009	-0.3518	0	0.228	105
0.0105	-0.414	-0.0008	0.1477	104.9
0.0097	-0.597	-0.0068	0.12	105
0.0127	-0.513	-0.0143	0.1312	104.8
0.0127	-0.159	-0.0278	0.0517	104.9
0.0067	-0.081	-0.0278	0.0427	104.8
0.0022	-0.0856	-0.0203	-0.024	105
0.0007	-0.039	-0.0195	-0.3383	104.7
0.006	0.0022	-0.0068	-0.5168	104.7
0.009	0.048	0.0105	-0.4365	104.8
0.0127	0.063	0.018	-0.1733	104.7
0.0157	0.0532	0.021	-0.0653	104.9
0.012	0.0337	0.0217	-0.0091	104.9
0.012	0.0405	0.021	0.057	104.9
0.009	0.0607	0.0157	0.0232	105
0.0082	0.081	0.009	0.177	105
0.0097	0.0832	0.0067	0.3937	105.2
0.009	0.0592	0.0052	0.4897	104.9
0.0067	0.0262	-0.003	0.1785	104.9
0	0.0307	-0.0091	-0.1381	104.7
-0.0053	0.0442	-0.0068	-0.2138	104.7
-0.0068	0.0075	-0.006	-0.2498	104.8
-0.0083	0.0255	-0.0046	-0.2198	104.8
-0.0053	0.045	0.0007	-0.195	105
-0.0046	0.0135	-0.0015	-0.0443	104.9
-0.0083	0.0165	-0.003	0.018	104.9
-0.0083	0.0135	-0.0015	0.0322	105.1
-0.0098	0.0255	-0.0015	0.0885	104.9
-0.0105	0.0427	-0.003	0.1402	104.9
-0.0053	0.0375	-0.0008	0.192	104.9
-0.003	0.0352	-0.003	0.1972	104.9
-0.0015	0.0142	-0.0008	0.1597	105.1
0.0007	-0.006	0.0037	0.0105	104.7
0.0007	-0.0285	0.0052	-0.0743	104.8
0.0007	-0.0668	0.0045	-0.0181	105
-0.0008	-0.057	0.0022	0.0105	104.8
-0.0015	-0.0181	0.0075	-0.0173	105.1
-0.0008	-0.0113	0.0127	0.0202	104.9
-0.003	-0.0075	0.0075	-0.0803	105
-0.006	-0.0083	0.0022	-0.1043	104.8
-0.0046	0	0.0015	-0.0068	105
-0.0068	0.0165	0	-0.1021	104.9
-0.0068	0.0097	0.0037	-0.0706	104.9
-0.006	0.0172	0.0037	-0.0233	105
-0.0068	0.0067	0.003	-0.0308	104.9
-0.0053	0.0015	0.0015	-0.015	105
-0.0053	0.018	0.003	0.0315	105.1
-0.0008	0.0232	0.0075	0.2017	104.9
0.0015	0.0495	0.0067	0.2767	105.1
0.0022	0.084	0.003	0.177	104.9
-0.0015	0.1177	-0.0038	-0.0098	105
-0.0053	0.039	-0.0091	0.006	104.9
-0.0015	-0.0518	-0.012	0.2445	104.9
0.0015	0.0307	-0.0105	0.2512	104.9
0	0.0622	-0.0135	-0.1028	104.6
-0.0038	-0.0728	-0.0143	-0.4673	104.9
0.0007	-0.1613	-0.003	-0.3878	104.9
0.006	-0.1485	-0.0046	-0.18	105
0.009	-0.1853	-0.003	-0.1868	105.1
0.0105	-0.1703	-0.003	-0.0795	105
0.0127	-0.0593	-0.0038	0.033	105
0.0157	-0.0278	0.0045	0.0547	105
0.012	-0.0143	0.003	-0.0053	104.8
0.003	0.024	-0.0015	-0.0848	105.1
-0.0008	0.069	-0.0008	-0.075	105
0.0007	0.081	-0.0008	-0.03	105
0.0037	0.039	-0.0015	0.09	105.2
0.0015	0.0322	-0.0068	0.0975	105.1
-0.0015	0.048	-0.0053	0.0555	105.1
-0.0015	0.0465	-0.0008	0.0697	104.9
-0.0015	0.0562	0.0015	0.204	105.4
-0.003	0.1012	0.0052	0.3367	105.1
-0.0023	0.1155	0.006	0.1762	105
-0.003	0.0742	0.0052	0.0127	105.1
-0.0053	0.0652	0.003	-0.0585	105
-0.0083	0.0262	0.0045	-0.054	105
-0.0083	-0.0848	0.006	-0.0638	105
-0.0083	-0.12	0.0007	-0.1628	105
-0.006	-0.1065	0.006	-0.1065	105.2
-0.0068	0.0345	0.0067	0.0217	105.1
-0.0068	0.3015	0.003	0.0727	105.2
-0.0053	0.18	0.0007	-0.0668	104.9
-0.0083	-0.1185	-0.0083	-0.0713	105.1
-0.006	-0.1935	-0.0068	0.093	105.2
-0.0008	-0.273	-0.0008	0.1852	105.2
0.0015	-0.4598	0.0052	0.2602	105.2
0.0007	-0.4328	0.0052	0.1057	105
-0.0068	-0.0375	-0.003	-0.1853	105.2
-0.015	0.2467	-0.0008	-0.2738	105
-0.0143	0.2917	0.0052	-0.1711	105.1
-0.0098	0.1402	0.009	-0.2723	105
-0.0105	0.0615	0.006	-0.2895	105.1
-0.0098	0.0615	0.003	-0.2738	105.1
-0.0075	-0.0293	-0.0008	-0.2258	105.2
-0.0046	0.0555	-0.0046	0.0405	105.3
0	0.0442	-0.0053	0.1447	105.2
0.0037	-0.012	-0.0038	0.2647	105.2
0.003	-0.0383	-0.0068	0.1935	105.2
0.0007	-0.0008	-0.0128	0.1117	105.2
0.0052	0.0622	-0.0113	0.1095	105.1
0.0082	-0.0361	-0.0068	0.1267	105.3
0.009	-0.0465	-0.0091	0.2085	105.1
0.0142	-0.0443	-0.0098	0.2475	105.2
0.015	-0.0053	-0.0083	0.2085	105.1
0.0157	0.0315	-0.0046	-0.1756	105.1
0.012	0.069	0.0007	-0.318	105.2
0.0105	0.1447	0.0052	-0.321	105
0.0127	0.0457	0.0052	-0.2385	105.1
0.0105	-0.0165	0	0.0157	105.2
0.0082	0.003	-0.003	0.0855	105.1
0.0075	-0.0098	-0.003	0.1845	105.3
0.009	0.024	-0.0053	0.1027	105
0.0045	0.033	-0.006	-0.0818	105.2
0.0015	0.0292	-0.0046	-0.0713	104.9
0.0037	0.0547	-0.003	0.048	105.2
0.0052	0.027	0.0015	0.1132	105.1
0.0037	-0.0225	0.0007	0.1725	105.2
-0.0015	-0.054	-0.0008	0.174	105.2
-0.0046	-0.0518	-0.0008	0.0577	104.9
-0.0083	-0.0503	-0.003	-0.0953	105.2
-0.0113	-0.0645	-0.0015	-0.129	105.2
-0.0098	-0.012	-0.0023	-0.1006	105.1
-0.0098	0.0405	-0.0008	-0.153	105.1
-0.0105	0.0555	0.0007	-0.0533	105.1
-0.0091	0.018	-0.0008	0.0015	105
-0.0068	-0.027	-0.0008	0.0052	105.2
-0.0038	-0.0233	0.0007	0.0465	105.2
-0.003	-0.0338	0.0052	0.0292	105.3
-0.003	-0.0181	0.0067	0.0352	105.1
-0.0038	0.0307	0.009	0.0472	105.2
-0.003	0.033	0.012	0.1117	105.3
-0.0008	0.0052	0.0112	0.1192	105.2
-0.0038	-0.0188	0.003	0.0142	105.2
-0.0053	-0.0398	0.0015	-0.024	105.2
-0.0053	-0.0256	0.0045	-0.0458	105.2
-0.0046	-0.0015	0.0067	-0.0765	105
-0.0038	0.0067	0.0067	-0.0743	105.3
-0.0068	-0.027	-0.0008	-0.0825	105.1
-0.0105	-0.0683	-0.0083	0.0262	105
-0.012	-0.0375	-0.0091	0.1912	104.9
-0.0091	-0.0293	-0.0105	0.195	105.1
-0.0015	0.0367	-0.012	0.0255	105.2
0.003	0.1447	-0.0075	-0.033	105.2
0.0082	0.186	-0.003	0.1245	105.1
0.0127	0.2122	-0.0008	0.1432	105.3
0.0127	0.1942	-0.0008	0.1365	105.2
0.009	0.1125	-0.0008	0.1507	105.2
0.0067	-0.0413	0	-0.0743	105.3
0.0007	-0.129	0.0007	-0.378	105
0.0007	-0.1778	0.0037	-0.6758	104.9
0.006	-0.3503	0.009	-0.513	105.1
0.009	-0.414	0.0105	-0.1478	105.2
0.0112	-0.1845	0.0082	-0.1043	105.2
0.009	0.0742	0.0052	-0.0181	105.2
0.0105	0.1065	0.0082	0.0007	105.2
0.009	0.09	0.0052	0.0652	105.2
0.0037	0.0607	0.0015	0.1147	105.2
0.0015	0.1275	0.0045	0.0907	105.2
-0.0038	0.2497	0.0007	0.1125	105.3
-0.0068	0.192	-0.0015	0.063	105.2
-0.0083	0.2167	-0.0015	0.0997	105.1
-0.0068	0.0862	-0.0015	0.1425	105.3
-0.0046	-0.3248	-0.0038	0.1875	105.2
-0.006	-0.48	-0.0091	0.1972	105.1
-0.0053	-0.216	-0.0135	0.1027	105.2
-0.0046	-0.0053	-0.0113	0.018	105
-0.003	0.0127	-0.0098	0.0127	105.2
-0.0038	0.0675	-0.012	0.0157	105.1
-0.003	0.0405	-0.0098	-0.0713	105
-0.0008	0.0105	-0.0068	-0.0953	105.2
0.0007	0.0082	-0.003	-0.1058	105.2
0.0037	-0.0068	-0.0008	0.0022	105.3
0.0067	0.0202	0.003	0.1552	105.1
0.0067	0.0022	0.0082	0.165	105.2
0.0067	-0.0008	0.0082	0.0382	105.3
0.0052	0.0322	0.0112	-0.1335	105
0.003	0.063	0.012	-0.1628	105.2
0.003	0.0442	0.0105	-0.195	105.1
0	0.0007	0.0097	-0.0203	105.2
0.0007	0.0405	0.0045	0.0922	105.3
-0.0008	0.0472	0.0037	0.012	105.1
-0.0008	0.0262	0.003	0.0082	105.3
-0.0015	0.0592	-0.0053	0.0015	105.1
-0.0046	0.0277	-0.0091	0.0967	105.2
-0.0038	-0.0458	-0.0091	0.0495	105.2
-0.0023	0.0067	-0.0083	-0.0428	105.2
-0.0015	0.093	-0.0091	-0.0436	105.1
-0.0023	-0.0173	-0.0083	-0.0975	105.1
-0.0015	0.0105	-0.0068	-0.0758	105.1
-0.0046	0.1582	-0.006	0.054	105.3
-0.0015	-0.0398	-0.003	0.3607	105.4
0.0022	-0.1373	-0.0046	0.561	105.4
0.003	-0.0683	-0.0075	0.336	105.2
0.0022	-0.0458	-0.0105	-0.0863	105.1
-0.003	0.0465	-0.0105	-0.246	105.2
-0.0015	0.0712	-0.0023	-0.0533	105.3
0.0045	0.1387	0.003	-0.126	105.3
0	0.0832	-0.0008	-0.2595	105.1
-0.0075	-0.1058	-0.0008	-0.2723	105.3
-0.0068	-0.1965	0.0082	-0.4613	104.9
-0.0046	-0.225	0.0142	-0.375	105.1
-0.003	-0.156	0.0172	-0.2423	105.2
-0.003	-0.1125	0.012	-0.09	105.3
-0.003	-0.0323	0.006	0.0682	105.3
-0.0038	0.1095	0.0015	0.0742	105.2
-0.0053	0.084	-0.0083	0.153	105.2
-0.0068	0.0615	-0.0105	0.1417	105.3
-0.0083	0.0615	-0.0091	0.1237	105.1
-0.0091	0.033	-0.0046	0.0675	105.4
-0.006	0.0765	-0.0008	0.0832	105.2
-0.0068	0.0765	0.0015	0.1642	105.4
-0.0053	0.0435	0.0075	0.153	105.3
-0.0008	-0.0458	0.0097	0.1275	105.3
-0.0015	-0.1118	0.009	0.1042	105.2
-0.003	-0.0706	0.0052	0.0217	105.2
-0.003	-0.0143	0.0007	-0.114	105.1
-0.0023	0.0532	-0.0008	-0.0706	105.2
0.0015	0.0165	0.0007	-0.054	105.2
0.003	-0.0173	-0.0008	-0.0518	105.4
0.0022	0.039	-0.0008	-0.0008	105.3
0.0015	0.0397	-0.0038	-0.012	105.3
0.003	0.0517	-0.0053	0.1635	105.3
0.0082	0.0382	-0.003	0.4177	105.5
0.012	0.003	-0.003	0.4837	105.5
0.012	-0.0135	-0.0038	0.1777	104.9
0.0052	-0.0383	-0.0105	-0.2693	105
0.0007	0.0165	-0.0105	-0.3683	105.1
0.0045	0.0517	-0.0038	-0.2618	105.1
0.0067	-0.0218	0.003	-0.3593	105.3
0.009	-0.0495	0.006	-0.2265	105.2
0.012	0.0217	0.0082	-0.039	105.5
0.0127	0.0285	0.0067	-0.0593	105.1
0.009	-0.0008	0.0045	-0.0368	105.3
0.0067	-0.0068	0.0022	-0.0578	105.2
0.0045	-0.0181	-0.003	0.0142	105.2
0.0015	-0.0046	-0.0068	0.0307	105.2
-0.0008	-0.0015	-0.0075	0.0487	105.2
-0.003	-0.003	-0.0068	0.0787	105.2
-0.0046	-0.0038	-0.0053	0.0877	105.3
-0.003	0.0037	-0.0053	0.0967	105.3
-0.0046	0.0217	-0.0068	0.0337	105.3
-0.0053	0.0157	-0.0053	0.0577	105.1
-0.003	0.003	-0.0008	0.1402	105.4
-0.0015	-0.0075	-0.0008	0.1642	105.3
-0.0008	-0.027	0.0007	0.1972	105.3
0.0015	-0.0428	-0.0008	0.252	105.3
0.0015	0.0007	-0.003	0.0735	105.1
-0.0046	0.0472	-0.0053	-0.132	105.3
-0.0083	0.027	-0.0046	-0.2821	105.1
-0.0046	-0.0068	0.003	-0.3165	105.2
-0.0015	-0.0038	0.0082	-0.1741	105.2
-0.0008	0.0007	0.0082	-0.0548	105.2
-0.0015	-0.0008	0.006	0.0285	105.2
-0.0015	0.0127	0.0045	-0.1215	105.3
-0.0038	0.0247	0.0052	-0.0968	105.2
-0.0046	0.051	0.0007	0.1095	105.4
-0.0053	0.042	-0.0038	0.18	105.2
-0.0075	0.0052	-0.0083	0.2647	105.3
-0.006	0.018	-0.0091	0.2265	105.2
-0.0075	0.0337	-0.006	0.0465	105.2
-0.0083	-0.0046	-0.012	-0.135	105.2
-0.0053	-0.0555	-0.0105	-0.2093	105.2
-0.003	-0.0758	-0.0053	-0.1208	105.3
-0.003	-0.0315	-0.0075	0.0112	105.2
-0.0053	0.0082	-0.0098	0.0112	105.3
-0.0053	-0.0015	-0.0046	-0.0083	105.3
-0.0038	-0.0256	0.006	-0.0608	105.2
0.0022	-0.1103	0.0105	-0.1726	105.3
0.0037	-0.129	0.0082	-0.1965	105.2
0.003	0.0405	0.0097	-0.0743	105.3
0.0045	0.048	0.0082	0.0202	105.3
0.0037	-0.156	0.0045	0.018	105.2
0.0015	-0.0195	0.006	0.0675	105.4
-0.0015	0.072	0.0067	0.1462	105.4
-0.0008	0.012	0.0082	0.2175	105.6
-0.0008	0.0795	0.009	0.1582	105.3
-0.0015	-0.0046	0.0052	0.0217	105.5
0.0007	0.027	0.0015	-0.042	105.5
0.0045	0.0615	0.0037	-0.0233	105.3
0.0082	0.0097	0.0052	-0.0083	105.3
0.0097	-0.0555	0.0015	-0.0653	105.2
0.0105	-0.0713	-0.0008	-0.0668	105.4
0.0075	0.0405	-0.0008	-0.0443	105.3
0.0067	0.0247	0.0007	-0.003	105.3
0.0075	0.0045	0.0045	0.0172	105.3
0.0075	0.0052	0.0045	0.0097	105.4
0.0052	0.009	0.0015	0.0187	105.4
0.0022	0.0307	0.003	0.0172	105.5
0.0007	0.015	0.0045	0.0352	105.4
-0.0008	0.0157	0.003	0.0615	105.5
-0.0008	-0.0053	0.0007	0.0667	105.3
-0.0038	-0.021	-0.0015	0.0382	105.4
-0.0046	-0.0195	-0.0008	-0.0083	105.4
-0.0023	-0.0068	0.0007	-0.054	105.3
-0.0008	-0.0083	-0.003	-0.0443	105.4
-0.0023	0.0157	-0.0053	0.0367	105.2
-0.0053	0.054	-0.0068	0.105	105.5
-0.0075	0.0345	-0.0075	0.1297	105.3
-0.006	0.012	-0.003	0.0885	105.4
-0.0053	-0.0383	-0.0023	0.0885	105.4
-0.0053	-0.0675	-0.0105	0.0667	105.3
-0.0091	0.0015	-0.0143	-0.1613	105.2
-0.0091	0.0585	-0.012	-0.243	105.2
-0.0046	0.054	-0.0091	-0.2175	105.2
-0.0015	0.0547	-0.0068	-0.1905	105.3
0.0022	0.024	0	-0.0713	105.2
0.0052	-0.0713	0.0052	-0.0818	105.5
0.006	-0.1148	0	-0.0278	105.3
0.0045	-0.0458	-0.0038	0.1605	105.5
0.003	0.021	-0.0008	0.3157	105.5
-0.0008	0.0315	-0.0046	0.1987	105.4
-0.0046	0.0052	-0.0068	0.0825	105.3
-0.0046	0.0067	-0.0046	0.0022	105.4
-0.0046	0.12	-0.0038	-0.0721	105.5
-0.0046	0.225	-0.0015	-0.0473	105.3
-0.003	0.1732	0.0007	-0.1898	105.4
0.0007	0.0877	0.0052	-0.1583	105.3
0.0007	0.0502	0.0037	-0.1388	105.4
-0.0015	-0.1658	0.003	-0.129	105.3
-0.0053	-0.4815	-0.0015	0.0217	105.6
-0.0053	-0.3705	-0.003	0.2565	105.5
-0.003	-0.0353	0	0.3465	105.5
-0.0015	0.009	-0.0046	0.0832	105.2
-0.0015	0.0997	-0.0091	-0.1028	105.3
0.0007	0.1732	-0.0143	-0.1358	105.2
-0.0015	0.1087	-0.0165	-0.1178	105.2
-0.0015	0.072	-0.0083	-0.1403	105.4
0.0007	-0.0015	-0.003	-0.1448	105.3
0.003	-0.0405	0.003	-0.033	105.5
0.0082	-0.1043	0.0097	0.0112	105.2
0.0097	-0.0945	0.0127	-0.003	105.5
0.0127	-0.09	0.018	0.009	105.3
0.012	-0.0863	0.0165	0.096	105.4
0.006	-0.0218	0.0112	0.2325	105.3
0.0067	0.1027	0.009	0.2362	105.4
0.0007	0.2895	0.006	0.0502	105.3
-0.003	0.1995	0.009	-0.1545	105.2
-0.0046	0.0082	0.003	-0.2108	105.3
-0.0075	-0.0128	-0.003	-0.153	105.3
-0.0053	-0.027	-0.003	-0.1868	105.3
-0.0068	-0.1598	-0.003	-0.1125	105.4
-0.003	-0.1965	0.0045	-0.0015	105.2
0.0007	-0.0503	0.003	0.0502	105.3
-0.0015	0.0232	0.0007	0.1402	105.4
-0.0015	0.0112	0.003	0.0645	105.3
-0.003	0.0277	-0.003	0.0675	105.5
-0.0008	0.0607	-0.0068	0.0892	105.2
0.003	0.0877	-0.0075	0.1065	105.3
0.0045	0.105	-0.006	0.228	105.4
0.0067	0.1267	-0.003	0.2595	105.4
0.0052	0.0705	-0.0046	0.1702	105.2
0.0022	-0.03	-0.0023	0.1687	105.3
0.0045	-0.0713	0.003	0.222	105.3
0.0045	-0.186	-0.0015	0.0652	105.5
-0.003	-0.1965	-0.0015	-0.252	105
-0.0038	-0.0563	0.0045	-0.4613	105.3
-0.0053	-0.0375	-0.0008	-0.372	105.2
-0.0046	0.0442	-0.0046	-0.3345	105.3
-0.0038	0.048	-0.0046	-0.2633	105.2
-0.003	-0.012	-0.0023	-0.0488	105.3
0.0007	0.0697	-0.0023	0.042	105.2
0.003	0.0262	-0.0015	0.1125	105.2
0.0045	0.0285	0.0015	0.0607	105.3
0.003	0.0345	0.0015	-0.0008	105.2
0	-0.0091	0.0045	-0.024	105.3
-0.0038	0.018	0.0052	0.0097	105.2
-0.0046	0.018	0.0052	0.0727	105.3
-0.0053	0.057	0.0022	0.1372	105.3
-0.006	0.042	0.003	0.3075	105.3
-0.003	-0.0083	0.0007	0.3667	105.2
-0.0038	-0.0165	-0.0046	0.2505	105.2
-0.0038	-0.0008	-0.0075	0.057	105.2
0	0.0517	-0.003	0.1125	105.5
0.0075	0.075	-0.003	0.1612	105.1
0.0052	0.0517	-0.012	-0.165	105.1
0	0.0637	-0.0105	-0.4485	104.9
-0.0015	-0.003	-0.006	-0.399	105.1
-0.0046	-0.1313	-0.0068	-0.2288	105.3
-0.0053	-0.186	-0.0046	-0.1988	105
-0.003	-0.1193	0.0007	-0.1245	105.2
-0.0015	0.09	0.0052	-0.0383	105.1
-0.003	0.0765	0.0067	0.0727	105.2
-0.003	0.0555	0.0052	0.102	105.2
-0.0053	0.0915	0.0067	-0.0083	105.1
-0.0038	0.0202	0.0165	-0.0503	105.2
0.0015	0.0007	0.015	-0.096	105
-0.0008	-0.1426	0.0105	-0.0278	105.3
0.0007	-0.078	0.0105	0.0787	105.2
0.0022	0.0502	0.0082	0.2595	105.2
0.0015	-0.0173	0.0052	0.3465	105.5
0.0007	0	0	0.2122	105.1
-0.0015	-0.0488	-0.0105	-0.0135	105.2
-0.003	-0.1275	-0.0128	-0.0758	105.1
-0.0008	-0.1178	-0.0135	0.2325	105.2
-0.0038	-0.0503	-0.0256	0.1995	105.2
-0.012	-0.0218	-0.027	-0.048	104.9
-0.0105	-0.0068	-0.0181	-0.3098	105
-0.0075	0.0345	-0.0083	-0.5108	104.9
-0.0008	0.0457	0.0045	-0.2655	105.2
0.0052	0.129	0.0045	-0.099	105.1
0.003	0.171	0.0007	0.0037	105.1
0.0045	0.1155	0.0015	0.0495	105.3
0.0082	0.0502	0	0.0742	105.2
0.012	0.0112	-0.0015	0.1635	105.2
0.012	-0.0368	0.0007	0.1425	105.3
0.0105	-0.0428	0.0007	0.1125	105
0.0142	-0.0293	0	0.0892	105.3
0.0127	-0.0488	0.0045	0.1237	105.1
0.0097	0.0112	0.0082	0.0532	105.1
0.0067	-0.0023	0.0097	-0.0608	104.9
0.0007	-0.0015	0.0075	-0.18	105
-0.0023	0.096	0.0052	-0.15	105.1
-0.0038	0.1222	0.003	0.039	105.2
-0.006	0.1297	-0.003	0.0982	105.2
-0.0083	0.0817	-0.0075	0.0652	105.1
-0.0105	0.0082	-0.0083	0.003	105.1
-0.0083	-0.1275	-0.0023	0.0997	105.4
-0.0053	-0.222	-0.0008	0.1882	105.2
-0.0038	-0.165	0	0.1567	105.2
-0.0053	-0.2445	-0.0046	0.015	105.2
-0.0098	-0.1245	-0.0053	-0.1095	105
-0.0053	0.099	-0.0008	-0.1935	105.2
-0.0038	0.0195	-0.0053	-0.1958	105.1
-0.003	0.0525	-0.0053	-0.0181	105.3
0.0007	0.0607	-0.0068	-0.0368	105
0.0007	0.027	-0.0083	-0.1358	105
0.003	0.0592	-0.0038	-0.1628	105.2
0.003	0.0517	-0.0008	-0.0473	105.1
0.0052	0.0495	0.0067	0.039	105.2
0.009	0.0007	0.0112	-0.0158	105.2
0.009	0.0007	0.0135	0.009	105.2
0.009	-0.057	0.0135	-0.0181	105.3
0.0052	-0.0968	0.0097	0.0217	105.2
0.0052	-0.0203	0.0082	0.0555	105.3
0.0052	0.0307	0.0082	0.048	105.3
0.003	0.0315	0.0045	0.057	105.2
0.0007	0.0487	0.003	0.0592	105.4
0.0015	0.12	0.0007	0.1935	105.2
0.0045	0.0997	-0.003	0.3592	105.4
0.006	0.0165	-0.0053	0.3877	105.2
-0.0008	0.0202	-0.0128	0.1635	105.2
-0.006	0.054	-0.015	-0.0338	105.2
-0.0046	-0.0278	-0.0083	-0.1088	105.1
-0.0046	-0.1628	-0.0105	-0.0525	105.3
-0.0053	-0.1013	-0.0068	0.054	105.3
-0.0091	0.0007	-0.0068	-0.2438	105
-0.0158	-0.0225	-0.0098	-0.375	105.1
-0.0165	-0.0083	-0.003	-0.3293	105.1
-0.0143	-0.0075	-0.0008	-0.4418	105.1
-0.0143	-0.0788	-0.0046	-0.3368	105.1
-0.0128	-0.1583	-0.0053	-0.1095	105.3
-0.0068	-0.0893	-0.0038	0.0232	105.4
-0.0015	0.0075	0.0022	0.0307	105.3
0.0015	0.1095	0.0052	0.0847	105.5
0.0022	0.1695	0.0067	0.0945	105.2
0.0015	-0.0143	0.006	0.0997	105.3
0.0007	0.0082	0.0082	0.1095	105.2
-0.0015	0.0457	0.0075	0.0855	105.3
-0.0015	-0.003	0.0045	0.0742	105.3
-0.0015	0.078	-0.0015	0.0787	105.3
-0.0008	0.0525	-0.0075	0.1672	105.3
0.0015	0.0622	-0.0091	0.3105	105.4
0.0052	0.0097	-0.0053	0.4627	105.5
0.0112	-0.0668	0.0015	0.5497	105.4
0.012	-0.039	0.0082	0.324	105.2
0.003	-0.0233	0.0052	-0.2558	105.2
-0.0046	0.0225	0.0067	-0.4703	105.2
-0.0105	0.0412	0.009	-0.465	105.2
-0.012	-0.0046	0.0037	-0.5603	105.3
-0.0083	-0.0263	0.0052	-0.306	105.2
-0.0038	-0.0405	0.009	-0.162	105.4
0.0022	-0.0443	0.0067	-0.078	105.2
0.0052	0.0465	-0.0008	0.12	105.5
0.006	0.0525	-0.0083	0.0952	105.2
0.0045	0.084	-0.0165	0.0712	105.3
0.006	0.156	-0.0158	0.0877	105.3
0.0105	0.0345	-0.0075	0.2265	105.5
0.0142	-0.0683	-0.0046	0.2505	105.4
0.012	-0.033	-0.0068	0.057	105.5
0.0045	-0.0511	-0.0075	-0.0668	105.3
0.003	-0.192	-0.003	-0.1703	105.4
0.0037	-0.1125	0.003	-0.0465	105.3
0.0045	0.0082	0.0097	0.1012	105.5
0.0052	-0.0698	0.009	0.018	105.4
0.0045	0.0007	0.0075	-0.0615	105.2
0.0015	0.0487	0.0037	-0.1283	105.4
-0.0008	0.0105	-0.0038	-0.0623	105.4
-0.0015	-0.0105	-0.003	0.0652	105.3
-0.0008	-0.0203	-0.0008	0.084	105.3
-0.0015	0.0195	-0.003	0.0547	105.3
-0.0038	0.0075	-0.0053	-0.0053	105.3
-0.0046	0.0217	-0.006	0.0067	105.3
-0.003	0.0022	-0.0046	0.1215	105.4
-0.0023	-0.0053	0.0007	0.1372	105.4
-0.0015	0.0075	0.0015	0.1335	105.3
0.0007	0.0142	0.0022	0.1005	105.5
0.0007	0.0532	0.003	-0.0743	105.3
0	0.009	0.0022	-0.1815	105.4
-0.0008	-0.0091	-0.0015	-0.1823	105.2
-0.0015	0.003	-0.0038	-0.0608	105.5
-0.0008	0.003	-0.0015	0.06	105.5
0.0007	0.0067	0	0.0517	105.3
0.003	-0.0046	0.0022	0.0127	105.4
0.0037	0.0082	0	0.0082	105.3
0.0007	0.003	-0.0015	0.072	105.5
0.0007	-0.021	0.0052	0.1155	105.3
0.003	-0.0053	0.0082	0.0472	105.6
0.003	0.0352	0.009	-0.0233	105.4
0.003	0.0262	0.0082	0.0652	105.4
0.0015	-0.0105	0.0067	0.2107	105.4
0.0007	-0.0383	0.0075	0.1905	105.5
-0.0046	-0.0353	0.0022	-0.0615	105.4
-0.0143	0.0345	-0.0053	-0.2483	105.4
-0.0165	0.0937	-0.0083	-0.3083	105.3
-0.0143	0.0307	-0.0053	-0.3023	105.5
-0.0075	-0.0488	0.0007	-0.1793	105.5
-0.0015	-0.039	0.0007	-0.159	105.4
-0.0015	-0.0135	-0.0023	-0.1163	105.5
0.0007	0.0187	-0.0015	-0.0315	105.4
0.0045	0.0405	-0.0008	0.033	105.6
0.0045	0.048	-0.0053	0.0825	105.4
0.003	0.0555	-0.003	0.108	105.5
0.0015	0.075	0	0.1282	105.5
-0.0015	0.1087	-0.0015	0.0862	105.5
-0.003	0.0877	0.0022	0.0247	105.5
-0.0046	0.057	0.0045	-0.0046	105.5
-0.0046	0.0427	0.006	0.06	105.5
-0.003	-0.1006	0.0067	0.0615	105.5
-0.0015	-0.2558	0.0015	0.0802	105.5
-0.003	-0.249	-0.003	0.1365	105.7
-0.0023	-0.1785	-0.0023	0.096	105.5
0.0007	-0.0863	-0.0038	0.078	105.7
0.0015	-0.0046	-0.0046	0.0675	105.3
0.0007	0.042	-0.0091	0.0727	105.6
-0.003	0.048	-0.0135	0.0592	105.4
0.0007	-0.0046	-0.0046	0.0405	105.5
0.0037	0.0307	-0.0015	-0.024	105.6
0.0015	0.039	-0.0053	-0.1748	105.3
0.0015	-0.0263	0.003	-0.3023	105.4
0.0015	-0.0323	0.0045	-0.2273	105.5
-0.0008	-0.0128	0.0007	-0.0638	105.6
-0.0008	0.0517	-0.0008	-0.0346	105.5
-0.003	0.0292	0.0007	0.0465	105.6
-0.0023	-0.0046	0.0022	0.003	105.5
-0.0046	0.0382	-0.0008	-0.0338	105.5
-0.0015	0.0375	-0.0046	0.042	105.5
0	0.0472	-0.0046	0.024	105.8
-0.0015	0.0367	-0.0008	0.081	105.5
0.0007	0.0165	0.0022	0.1027	105.5
0.0007	0.018	0.003	0.1492	105.6
0.0015	0.0465	0.0037	0.2835	105.6
-0.0008	0.0495	0.0007	0.2377	105.5
-0.0023	0.003	0.0037	0.0157	105.3
0.0015	0.0052	0.006	-0.207	105.5
-0.0008	0.057	0.0015	-0.2821	105.5
-0.003	0.1342	-0.0008	-0.1898	105.6
-0.0008	0.135	-0.0023	-0.054	105.5
0.003	0.0757	-0.0008	0.0082	105.6
0.003	-0.0383	-0.0015	-0.0383	105.4
0.0045	-0.2745	0.0007	-0.0046	105.5
0.0052	-0.33	0.0045	0.024	105.5
0.0052	-0.1058	0.0045	0.003	105.6
0.0052	-0.0285	0.0067	0.0495	105.5
0.0045	-0.0856	0.006	0.1155	105.5
0.003	0.057	0.0015	0.222	105.4
-0.0015	0.1747	-0.0075	0.0892	105.3
-0.0083	0.0607	-0.0143	-0.1733	105.3
-0.0105	-0.0518	-0.0173	-0.3833	105.3
-0.0105	-0.0105	-0.0181	-0.369	105.5
-0.0053	-0.006	-0.0098	-0.0878	105.3
0.0022	-0.0046	-0.003	0.0562	105.7
0.0045	0.033	0.0007	0.1192	105.6
0.003	0.0232	0.0037	0.1252	105.6
0.0052	0.0667	0.003	0.0922	105.5
0.0067	0.0675	0.0067	0.1267	105.6
0.0105	0.024	0.012	0.1447	105.5
0.0097	-0.0308	0.0067	0.2587	105.6
0.003	-0.0615	-0.003	0.2242	105.5
-0.0008	-0.006	0.006	-0.0465	105.5
0.0037	-0.0293	0.015	-0.3053	105.2
0.006	-0.0608	0.0105	-0.4051	105.5
0.006	-0.0083	0.0067	-0.1441	105.4
0	0.0007	0.0007	0.0547	105.5
-0.0053	0.0187	0.0007	-0.0143	105.5
-0.0068	0.0232	-0.0015	-0.0368	105.4
-0.0068	-0.015	-0.0053	-0.0143	105.5
-0.0053	-0.024	-0.0023	0.021	105.5
-0.0053	-0.0315	-0.0023	0.018	105.4
-0.0053	0.012	-0.0015	0.006	105.3
-0.0053	0.0352	-0.0008	0.0525	105.4
-0.0068	-0.0008	-0.0008	0.063	105.3
-0.0068	-0.0091	-0.0015	0.1425	105.4
-0.0068	0.0277	-0.0053	0.1912	105.4
-0.0068	0.099	-0.0098	0.0802	105.4
-0.006	0.0735	-0.0075	0.009	105.4
-0.0015	-0.024	-0.0015	0.0165	105.6
-0.0008	-0.0428	-0.003	0.1365	105.3
0	-0.0308	0.0015	0.1477	105.4
0.0022	-0.0091	0.0045	-0.108	105.3
0.0015	0.024	0.0022	-0.2325	105.3
0.0022	-0.0015	0	-0.1965	105.4
0.0015	0.0052	-0.0015	-0.1313	105.3
0.0037	0.0585	-0.0008	0.0112	105.5
0.0045	0.0367	-0.0023	0.0735	105.3
0.003	-0.0203	-0.0008	0.0832	105.5
0.0082	-0.0908	0.0067	-0.0128	105.4
0.009	-0.078	0.0045	-0.0765	105.4
0.0082	0.0937	0	0.024	105.4
0.006	0.129	-0.003	0.1177	105.3
0.003	0.0427	-0.006	0.138	105.3
0.0015	0.0315	-0.0053	-0.0143	105.3
0.0022	0.0172	-0.0046	-0.1463	105.2
-0.0015	-0.0293	-0.0068	-0.108	105.3
-0.0015	-0.186	-0.0083	-0.0443	105
0.0007	-0.156	-0.0091	-0.027	105.3
0.003	0.06	-0.0105	0.0127	105.2
0.0052	0.024	-0.0083	0.0615	105.2
0.009	-0.015	0.0007	0.0187	105.4
0.009	-0.0195	0.0015	-0.0278	105.2
0.0045	-0.0615	0	-0.0053	105.4
0.0037	-0.0165	0.0045	-0.0256	105.2
0.0022	0.0232	0.009	-0.0608	105.2
0	0.0352	0.0067	0.0052	105.3
-0.0008	0.018	0.003	0.105	105.2
-0.0023	0.0307	-0.0015	0.0937	105.3
-0.003	0.0165	0.0022	0.0007	105.2
-0.0008	-0.0008	0.0082	-0.0983	105.2
-0.0008	0.0315	0.003	-0.1598	105.2
-0.0015	0.048	0.003	-0.1426	105.1
-0.0038	-0.0158	0.003	-0.039	105.3
-0.0083	-0.1193	-0.0015	0.0195	105
-0.0075	-0.0436	-0.0015	0.0247	105.4
-0.0068	0.0562	0.0015	0.0802	105.2
-0.0068	0.039	0.0022	0.1327	105.3
-0.0083	0.0577	0.003	0.3067	105.3
-0.0068	0.0225	0.0067	0.4297	105.3
-0.0046	-0.0046	0.0052	0.2265	105.3
-0.0083	0.0112	0.0022	-0.1598	105
-0.0105	-0.0398	0.0015	-0.444	105.2
-0.0083	-0.0908	-0.0023	-0.4275	105.2
-0.0068	-0.075	-0.0068	-0.2528	105.1
-0.0046	0.009	-0.0053	-0.0856	105.2
-0.0008	0.0165	-0.0053	0.039	105.3
0.0007	0.0247	-0.0083	0.0772	104.9
-0.0015	0.045	-0.0091	0.063	105.3
-0.0015	0.0367	-0.0075	0.0397	105
-0.0015	0.0502	-0.0053	0.0255	105.4
-0.003	0.0142	-0.0046	0.0037	105.3
0	0.0255	-0.003	0.0075	105.2
0.003	0.0742	-0.0023	0.066	105.5
0.0052	0.0532	-0.0008	0.147	105.2
0.0067	0.0105	0.0007	0.258	105.6
0.0067	0.0127	0.0022	0.273	105.2
0.0045	-0.0053	0.0022	0.0495	105.2
0.0015	-0.12	-0.0046	-0.189	105.2
0.0022	-0.1995	-0.0075	-0.114	105.4
0.0052	-0.048	-0.0091	0.1042	105.4
0.0067	0.0697	-0.0068	0.2025	105.2
0.0127	-0.0256	-0.003	0.0517	105.3
0.0135	-0.0975	0.0022	-0.084	105.3
0.0127	-0.1208	0.0052	-0.0128	105.2
0.0097	-0.0615	0.006	-0.0181	105.3
0.0045	-0.0218	0.0075	-0.2213	105
-0.0008	0.0082	0.0045	-0.4163	105.2
-0.0015	0.0195	0.0082	-0.303	105.3
0.0007	0.0135	0.0105	-0.18	105.2
-0.0015	0.111	0.009	-0.078	105.5
-0.003	0.0975	0.0097	0.0292	105.3
-0.0053	0.0765	0.0007	0.0502	105.5
-0.0075	0.0892	-0.0046	0.0967	105.2
-0.0075	0.0765	-0.0068	0.1305	105.3
-0.0068	0.1027	-0.0105	0.2475	105.3
-0.0068	0.0375	-0.0113	0.2902	105.3
-0.0091	-0.0503	-0.012	0.1635	105.2
-0.0105	-0.0465	-0.0105	-0.0578	105.4
-0.0068	0.1042	-0.0068	-0.1688	105.1
-0.003	0.033	-0.003	-0.1133	105.4
-0.003	-0.186	-0.0008	-0.1756	105.2
-0.0015	0	0.0045	-0.1313	105.4
-0.0008	0.087	0.0067	0.0277	105.4
-0.0023	0.0555	0.0022	0.0802	105.3
-0.003	0.1102	-0.0008	0.1747	105.6
-0.0023	0.0592	-0.0053	0.1875	105.3
-0.0015	0.0547	0	0.0622	105.4
0.0015	-0.0285	0.003	-0.084	105.3
0.0007	-0.114	0.0052	-0.0188	105.3
-0.0015	-0.135	0.003	0.0555	105.4
-0.0083	-0.1838	-0.0038	-0.105	105.3
-0.0098	-0.1365	-0.0053	-0.0825	105.2
-0.0075	-0.1335	-0.0113	-0.0623	105.3
-0.0075	-0.1238	-0.0091	-0.0338	105.3
-0.0053	0.0547	-0.0083	0.0232	105.4
-0.0083	0.0345	-0.0091	0.0007	105.3
-0.003	0.0157	-0.0008	0.0712	105.5
0.0015	0.0705	0	0.0277	105.5
0.0037	0.018	0.003	-0.003	105.4
0.0052	0.0367	0.0045	0.0412	105.6
0.006	-0.0046	0.0052	0.1237	105.3
0.009	-0.0075	0.0112	0.1777	105.6
0.0097	-0.0008	0.0082	0.0742	105.2
0.0075	0.0007	0.0015	-0.0346	105.5
0.0015	0.036	-0.0023	-0.0458	105.3
0.0007	0.0007	-0.0053	0.012	105.4
-0.0015	-0.021	-0.0068	0.0187	105.3
-0.0008	-0.0158	-0.0046	-0.003	105.4
0.0007	0.042	-0.003	-0.1013	105.3
0	0.0682	0.0022	-0.1545	105.5
0.003	0.0795	0.0045	-0.114	105.3
-0.0008	0.063	0.0037	-0.09	105.5
-0.0015	0.0067	0.0022	-0.0593	105.3
0.0015	0.0142	0.003	-0.003	105.4
0.0045	0.0322	0.0045	0.0817	105.6
0.003	0.0202	-0.0008	0.0525	105.4
-0.0023	0.0045	-0.0023	0.003	105.6
0.0007	0.0015	0.003	-0.0046	105.4
0.003	-0.0353	0.0037	0.0015	105.5
0.0015	-0.0503	0.0015	0.0232	105.4
0.0007	-0.0443	-0.0008	0.0742	105.5
-0.0015	-0.0375	-0.006	0.1237	105.4
-0.0015	0.0135	-0.0053	0.1162	105.5
-0.0023	-0.0015	-0.003	-0.1155	105.3
-0.003	-0.0083	-0.006	-0.3743	105.5
-0.0015	0.042	-0.003	-0.2565	105.3
0.0015	0.0337	0	-0.084	105.6
0.003	0.0787	0	0.066	105.4
0.003	0.1672	0.0015	0.3232	105.7
0.0067	0.189	-0.0008	0.4575	105.5
0.0067	0.186	-0.0053	0.3142	105.5
0.003	0.1447	-0.0068	0.0727	105.3
0.0007	0.015	-0.0068	-0.1628	105.3
0.0015	-0.1613	-0.0008	-0.318	105.4
0.0045	-0.2603	0.0082	-0.3998	105.3
0.0007	-0.321	0.0097	-0.3285	105.6
0.0015	-0.207	0.0135	-0.039	105.5
0	-0.0533	0.0142	0.027	105.4
-0.003	-0.1898	0.0142	0.0067	105.5
0.0007	-0.2348	0.0165	-0.0405	105.5
0	-0.1508	0.009	-0.0405	105.5
0.0007	-0.0346	0.0015	0.0562	105.7
-0.0008	0.0997	0.0007	0.1372	105.4
-0.0015	0.099	-0.003	0.3517	105.7
-0.0015	0.0727	-0.0053	0.4417	105.5
-0.0015	0.0375	-0.0091	0.3697	105.4
-0.0053	0.0555	-0.0195	0.096	105.3
-0.0105	0.1252	-0.0203	-0.2603	105.1
-0.0083	0.2032	-0.0128	-0.4553	105.4
-0.0038	0.207	0.0007	-0.4193	105.3
0	0.0877	0.0082	-0.2415	105.5
0	-0.0555	0.0067	-0.09	105.5
0.0015	-0.2078	0.0112	0.0352	105.5
0.003	-0.195	0.012	0.09	105.6
-0.0008	-0.0436	0.0052	0.1282	105.5
-0.003	0.0577	-0.006	0.1267	105.4
-0.0008	0.078	-0.0083	0.1747	105.5
0.0052	0.0645	-0.0068	0.2385	105.4
0.0082	0.072	-0.0083	0.3315	105.5
0.0067	0.048	-0.0046	0.4927	105.5
0.0067	0.0382	-0.0015	0.3405	105.6
0.0052	-0.0158	0.003	-0.0863	105.4
-0.0038	-0.0803	0.0015	-0.3525	105.4
-0.0068	0.021	0.0015	-0.5063	105.4
-0.0083	0.033	0.0022	-0.4785	105.3
-0.0068	-0.0383	0.0045	-0.4193	105.5
-0.003	0.0135	0.0097	-0.336	105.3
-0.0008	-0.015	0.009	-0.0315	105.6
-0.0008	0.009	0.0067	0	105.5
0.0007	0.0547	0.0037	0.0787	105.7
0	-0.0165	-0.0015	0.1192	105.6
-0.0023	-0.0015	-0.0015	0.0892	105.5
-0.0008	0.027	-0.0046	0.1357	105.3
0.0007	0.0442	-0.0053	0.1417	105.7
0.0015	0.042	-0.0023	0.315	105.6
0.0045	0.0045	-0.0023	0.342	105.7
0.003	-0.0143	-0.0053	0.1522	105.4
0	-0.0698	-0.0053	-0.0675	105.7
-0.0046	-0.0706	-0.0053	-0.18	105.4
-0.0068	-0.0165	-0.0075	-0.2745	105.4
-0.0083	-0.0135	-0.003	-0.2333	105.5
-0.003	-0.0083	0.0052	-0.0758	105.4
0.0007	0.0045	0.006	0.0015	105.5
0.0007	-0.0113	0.003	0.027	105.5
-0.0008	-0.0256	0.003	0.0277	105.6
-0.0008	-0.027	0.0007	0.0487	105.7
-0.003	-0.0181	-0.0046	0.039	105.5
-0.003	0.0457	-0.003	0.1185	105.7
-0.0015	0.1402	-0.0015	0.2047	105.6
0.0015	0.2137	-0.0015	0.2805	105.5
0.0015	0.1702	-0.0038	0.2482	105.7
0	0.0757	-0.0053	0.0345	105.3
-0.0008	-0.0346	-0.0083	-0.1448	105.5
-0.003	-0.2138	-0.0091	-0.222	105.4
-0.0038	-0.165	-0.0075	-0.1155	105.5
-0.0015	-0.0188	-0.003	0.0165	105.5
0.0022	-0.0315	0.006	-0.0075	105.5
0.0052	-0.1125	0.0097	-0.231	105.6
0.0037	-0.108	0.0082	-0.3458	105.4
0.0045	0.0465	0.0045	-0.1313	105.6
0.0075	0.0802	0.0007	0.0675	105.5
0.0045	0.0217	-0.003	0.1815	105.8
0.0007	-0.0046	-0.0068	0.2092	105.6
0.0015	-0.0638	-0.0023	0.141	105.6
0.0015	-0.1673	-0.0015	-0.0105	105.5
0.0015	-0.1125	0	-0.0668	105.7
-0.0008	0.0495	0.006	-0.0503	105.4
0.0007	-0.0105	0.0052	-0.0645	105.6
0	-0.0458	0.0015	-0.0135	105.5
0.0022	-0.0443	0.0015	-0.0473	105.5
0.0067	-0.0046	0.0037	-0.0878	105.6
0.0052	0.063	0.0067	-0.048	105.5
0.0037	0.0405	0.003	-0.0413	105.6
0.0015	0.0877	-0.0015	0.003	105.5
0.0037	0.0502	-0.0053	0.0397	105.6
0.0037	0.0427	-0.0098	0.078	105.5
0.0037	0.033	-0.0075	0.177	105.7
0.0045	-0.0135	-0.0015	0.1837	105.6
0.0015	-0.0091	0.0007	0.105	105.6
0	-0.0361	0.0045	0.0225	105.6
-0.0053	0.012	0.003	-0.0218	105.7
-0.0113	0.0517	0.0007	-0.0488	105.5
-0.012	0.0937	0.003	-0.0938	105.8
-0.0105	0.108	0.0007	-0.1478	105.5
-0.0091	0.0142	0.0007	-0.165	105.7
-0.0046	0.0105	0.009	-0.0915	105.6
-0.003	0.0405	0.0105	0.0502	105.8
-0.0046	-0.0203	0.0045	0.1957	105.7
-0.0046	-0.0638	0	0.21	105.6
-0.0053	-0.0443	-0.0053	0.1252	105.8
-0.0053	0.0705	-0.0128	-0.0128	105.5
-0.0046	0.123	-0.0143	-0.0638	105.6
-0.0008	0.0135	-0.0113	0.0292	105.5
-0.0008	-0.0833	-0.0105	0.1237	105.5
-0.0008	-0.1343	-0.0023	0.0255	105.7
0.0007	-0.0938	0.003	-0.1838	105.6
-0.0008	-0.024	0.0037	-0.2483	105.5
0	-0.0443	0.0105	-0.3383	105.7
0.003	-0.0278	0.0135	-0.294	105.6
0.0052	0.0172	0.012	-0.0008	105.8
0.0067	0.03	0.009	0.1582	105.5
0.0045	0.12	0.0045	0.1155	105.7
0.0015	0.1192	0.0007	0.108	105.8
0.0015	-0.0015	-0.003	0.1237	105.7
0.003	-0.039	-0.0023	0.288	105.8
-0.0008	-0.0428	-0.0075	0.3352	105.5
-0.0105	-0.0046	-0.015	-0.0015	105.7
-0.0143	0.0877	-0.0128	-0.2003	105.5
-0.0091	0.0525	-0.012	-0.4485	105.5
-0.0098	-0.0743	-0.012	-0.372	105.7
-0.003	0.0022	-0.0091	-0.0713	105.5
-0.0023	-0.0091	-0.0105	-0.0765	105.5
-0.0023	-0.1545	-0.0053	0.036	105.8
0.003	-0.1403	0.0015	0.0667	105.5
0.0037	-0.0608	0.0022	0.0817	105.7
0.009	0.024	0.0052	0.114	105.6
0.0097	0.078	0.0015	0.1237	105.8
0.0082	0.1537	-0.0038	0.0712	105.7
0.0105	0.102	-0.0046	0.0877	105.7
0.0142	0.0255	0.0045	0.3292	105.9
0.015	0.0037	0.0067	0.396	105.6
0.009	-0.0068	-0.003	0.1507	105.7
-0.0015	0.057	-0.0128	-0.1095	105.5
-0.0105	-0.024	-0.012	-0.2235	105.7
-0.0053	-0.1635	-0.0015	-0.3203	105.5
0.0007	-0.15	0.006	-0.2385	105.6
0.0007	-0.0938	0.0082	-0.1733	105.7
-0.0023	-0.1545	0.0075	-0.1118	105.6
-0.003	-0.0165	0.009	-0.1118	105.5
0.0007	0.1327	0.0112	-0.108	105.7
-0.0008	0.0045	0.0075	0.0105	105.5
-0.0015	0.0157	0.0075	0.0172	105.8
-0.0008	0.0817	0.003	0.108	105.7
-0.003	0.1102	0.0007	0.1177	105.8
-0.0015	0.195	0.0007	0.1822	105.8
-0.0015	0.195	-0.0008	0.249	105.7
-0.003	0.1005	0.0015	0.2137	105.8
-0.0023	0.051	0.0007	0.1515	105.7
-0.0023	-0.0788	0.0007	0.0285	105.7
0.0007	-0.4485	0.0052	-0.1245	105.7
-0.0015	-0.354	-0.0008	-0.2423	105.8
-0.0053	0.072	-0.0053	-0.1283	105.6
-0.0046	0.0412	-0.0053	-0.0053	105.6
0	0.057	-0.003	0.1005	105.6
0.003	0.0427	0.0045	0.105	105.7
0.003	-0.0765	0.0052	0.024	105.7
0.0037	-0.0046	0.0052	0.0142	105.8
0.003	0.0105	0.009	-0.0593	105.5
0.003	0.0645	0.009	-0.0495	105.8
0.0037	0.0967	0.012	-0.084	105.7
0.003	0.0802	0.0105	-0.0803	105.7
0.0022	0.057	0.0045	-0.0256	105.8
-0.0015	-0.0218	-0.0038	-0.0983	105.6
-0.0046	-0.0765	-0.0105	-0.0353	105.8
-0.003	-0.075	-0.0165	0.0877	105.4
-0.0053	-0.0293	-0.0173	0.0967	105.7
-0.0053	0.0045	-0.0128	0.0442	105.6
-0.0046	0.0442	-0.0068	-0.03	105.7
-0.003	0.03	-0.0015	-0.1088	105.6
-0.0015	0.021	0.0037	-0.054	105.7
0.0007	0.0247	0.0067	0.0367	105.7
-0.0008	-0.0015	0.0045	0.027	105.7
-0.0008	-0.0113	0.0067	0.0345	105.7
0.0007	-0.0203	0.006	0.0225	105.8
0	0.024	-0.0008	0.024	105.7
-0.003	0.0502	-0.0068	0.0667	105.8
-0.0068	0.0292	-0.0181	0.0255	105.6
-0.0098	-0.0053	-0.0203	-0.0563	105.5
-0.0091	-0.03	-0.0128	0	105.7
-0.003	-0.0405	-0.0083	0.1665	105.7
0.0015	-0.0465	-0.0038	0.2212	105.7
0.003	0.0367	0	0.15	105.7
0.0015	0.1087	0.003	-0.0413	105.8
0.0007	0.0667	0.0045	-0.3503	105.5
0.0015	-0.1013	0.0045	-0.4103	105.5
0.003	-0.108	0.0082	-0.1448	105.8
0.0052	0.045	0.0067	-0.0128	105.8
0.0045	0.0592	0	-0.0091	105.5
0.0045	0.138	-0.0015	0.0315	105.8
0.003	0.1312	-0.0038	0.1185	105.8
0.003	0.0937	-0.0046	0.2692	105.8
0.0022	0.0525	-0.003	0.3022	105.7
-0.0015	-0.1823	-0.0075	0.2385	105.7
-0.0098	-0.1898	-0.0143	-0.0046	105.5
-0.015	-0.0788	-0.0135	-0.2933	105.5
-0.0105	-0.0683	-0.006	-0.3045	105.7
-0.0053	-0.0436	-0.0008	-0.168	105.6
-0.0023	-0.0038	0.006	-0.0983	105.7
0.0015	0.0862	0.0075	-0.0143	105.7
0.0045	0.2025	0.0075	0.0967	105.8
0.0067	0.2745	0.0097	0.1222	105.9
0.009	0.1987	0.009	0.216	105.8
0.0097	0.0277	0.0082	0.201	105.7
0.0097	-0.1763	0.0082	-0.0533	105.7
0.012	-0.4238	0.006	-0.2265	105.5
0.0112	-0.3413	0.003	-0.1065	106
0.012	-0.0135	0.0022	0.4312	106
0.0097	-0.0398	-0.0008	0.5512	106
-0.0053	-0.0593	-0.0158	-0.0015	105.7
-0.0143	0.0217	-0.0203	-0.3855	105.6
-0.0105	0.0105	-0.0098	-0.5385	105.7
-0.0046	0.1147	0.0022	-0.1711	105.6
-0.0008	0.0037	0.006	0.0907	105.8
0.0007	-0.1268	0.0052	-0.042	105.7
0.0022	0.0082	0.0037	-0.126	105.8
0.0015	0.0532	0.0045	-0.24	105.7
0.0015	0.0502	0.0052	-0.207	105.7
0	0.0975	0.003	-0.0713	105.8
0.0007	0.048	0.003	0.1087	105.7
0.0007	0.0007	0.0015	0.0727	105.7
0	-0.0113	0.003	0.084	106.1
0.0015	0.0015	0.0045	0.2332	105.7
0.0007	0.0067	-0.0038	0.2475	105.8
-0.003	0	-0.003	0.12	105.8
0	0.0262	0.003	-0.0795	105.7
0.0037	0.003	0.0052	-0.0181	105.8
0.0037	0.0255	0.0067	0.0787	105.7
0.0022	0.012	0.0082	-0.0436	105.8
-0.0008	-0.033	0.0045	-0.1335	105.6
-0.006	0.0022	-0.003	-0.1718	105.7
-0.0038	-0.0083	-0.006	-0.1275	105.8
-0.0038	0.0022	-0.0075	0.033	105.8
-0.0038	0.03	-0.0075	0.1117	105.8
-0.0023	0.054	-0.0053	0.1215	105.8
-0.003	0.0787	-0.0068	0.1095	105.6
-0.0046	0.0555	-0.0068	0.0577	106
-0.006	0.033	-0.0053	0.0442	105.7
-0.0053	0.0105	-0.0008	0.1312	106
-0.0015	0.039	0.0007	0.255	105.8
-0.0015	0.072	-0.0015	0.216	105.7
-0.003	0.0637	-0.003	0.0697	105.7
-0.0068	0.0217	-0.0068	-0.1193	105.6
-0.0105	-0.09	-0.0046	-0.306	105.7
-0.0068	-0.2026	0.0067	-0.1643	105.7
-0.0008	-0.2011	0.015	-0.1823	105.7
0.0007	-0.0181	0.0142	-0.2761	105.7
0.003	0.105	0.0082	-0.12	105.8
0.0015	0.0855	-0.0023	0	105.8
0.0022	0.0435	-0.0038	0.1327	105.8
0.003	-0.003	-0.0046	0.138	105.8
-0.0008	-0.027	-0.0068	0.0855	106
-0.003	-0.1613	-0.0015	0.0105	105.7
-0.0008	-0.1575	0.0015	-0.0518	105.8
-0.0008	-0.0105	0	-0.0158	105.8
0.003	-0.012	0	0.1462	106
0.0007	0.039	-0.0046	0.2137	105.8
-0.003	0.0862	-0.0083	0.165	105.7
-0.0015	0.057	-0.0113	0.1335	105.8
-0.0023	0.0195	-0.0113	0.0442	105.7
-0.0015	-0.0375	-0.0083	-0.0181	105.8
-0.003	-0.0023	-0.0091	-0.222	105.6
-0.003	0.063	-0.0053	-0.3428	105.8
-0.0008	0.1215	0.0007	-0.2108	105.9
0.0022	0.1845	0.0052	-0.0053	105.9
0.0067	0.1515	0.006	0.1582	106.1
0.0075	0.06	0.0015	0.1545	106
0.0052	0.0495	0.0015	0.108	105.8
0.0082	-0.0293	0.0082	-0.012	105.8
0.0082	-0.3765	0.0067	-0.1335	105.8
0.0045	-0.5123	0.003	-0.1043	106
0.0037	-0.1913	0.0015	-0.1238	105.7
-0.0008	-0.0488	-0.0015	-0.2881	105.7
-0.0023	0.0037	0.0007	-0.1463	106
0.003	0.1837	0.003	0.06	105.8
0.0037	0.1702	-0.0008	0.159	106.1
0.0022	0.123	-0.0053	0.2692	105.8
0.0037	0.0847	-0.003	0.1387	106
0.0037	0.075	0	0.063	106
-0.0008	0.0885	0	-0.0203	105.8
-0.0038	-0.015	0.0075	-0.0383	106
-0.0023	-0.063	0.006	-0.09	105.7
-0.0038	-0.012	0.003	-0.192	105.9
-0.003	-0.0285	0.006	-0.084	106
-0.0023	-0.006	0.0045	-0.0458	105.8
-0.0023	0.0217	0.0022	0.0157	106
-0.0015	-0.0533	-0.003	0.0202	105.7
-0.0046	-0.0511	-0.0068	-0.0195	105.9
-0.0053	-0.0091	-0.0038	0.0285	105.9
-0.0046	0.0697	-0.003	0.1177	105.8
-0.0008	0.0832	-0.0053	0.261	106.1
0.0037	0.0607	-0.0023	0.3112	106
0.0067	0.1065	-0.0008	0.1785	105.9
0.0045	0.0045	0	-0.0495	105.7
0.003	-0.135	0.0022	-0.1898	105.8
0.0022	-0.1006	-0.0008	-0.1538	105.8
0.0007	-0.0008	-0.0068	-0.1598	105.8
-0.0015	-0.0143	-0.0083	-0.1928	105.8
0.0007	-0.045	-0.0008	-0.0615	105.9
0.0015	-0.0038	0.0082	0.012	105.8
0.0007	0.0277	0.0097	0.1177	106.1
0.003	0.0592	0.009	0.1477	105.9
0.0015	0.0532	0.0052	0.0877	106
0.0007	0.0352	0.0037	0.0465	105.8
-0.0023	0.0465	0.0045	0.0922	105.9
-0.003	0.0015	0.0045	0.2182	106
-0.0038	-0.0818	0.0045	0.1507	105.8
-0.0068	-0.1193	-0.0015	0.1627	106.1
-0.012	-0.1396	-0.0068	0.0757	105.7
-0.0143	-0.1688	-0.0075	-0.1748	105.9
-0.0113	-0.1238	-0.0008	-0.2648	105.7
-0.0083	-0.0128	0.0045	-0.2768	105.8
-0.0083	0.1027	0.0015	-0.2295	105.8
-0.0113	0.231	-0.003	-0.2933	105.8
-0.012	0.204	-0.0068	-0.2108	105.7
-0.0068	0.0255	-0.003	-0.0495	105.9
-0.0038	0.0007	-0.0015	-0.0046	105.8
-0.0008	0.0292	-0.0046	0.0502	106
0.0052	-0.0053	-0.0015	0.0285	105.8
0.0067	0.024	0	0.0637	106
0.0075	0.0637	0.0007	0.0375	105.9
0.006	0.1042	-0.0023	0.0615	106
0.003	0.0847	-0.003	0.2032	106.1
0.006	0.0232	-0.0015	0.276	105.9
0.0082	-0.0068	-0.0038	0.1905	106.1
0.0007	-0.1328	-0.0068	-0.0833	105.8
-0.0023	-0.2235	-0.0038	-0.15	105.8
0.0022	-0.054	0	-0.0315	106.1
0.003	0.054	-0.0015	0.126	106
0.003	-0.0263	0.0007	0.174	105.8
0.003	0.0007	0.0007	-0.0578	105.8
0.0045	0.0165	-0.0008	-0.108	105.9
0.0052	0.0367	0.0022	-0.048	105.8
0.0015	0.012	-0.0046	-0.1515	105.7
0	-0.0503	-0.0091	-0.237	105.9
0.0015	-0.078	-0.0105	-0.1088	105.8
0.0067	-0.1418	-0.0135	0.12	106
0.0082	0.0142	-0.0128	0.4635	106.1
0.0105	0.075	-0.0068	0.7972	106.2
0.009	-0.0075	-0.0046	0.5625	106
0.0022	0.0382	-0.0098	-0.0173	105.7
-0.0083	-0.054	-0.0158	-0.4253	105.7
-0.0128	-0.111	-0.0023	-0.6008	105.8
-0.0075	-0.006	0.012	-0.5843	105.7
-0.0053	0.0067	0.0157	-0.4365	105.9
-0.0015	0.0307	0.0187	-0.324	105.8
-0.0015	0.0607	0.021	-0.1193	105.8
-0.0015	0.0255	0.0217	0.003	106
-0.0008	0.0555	0.018	-0.0068	105.9
-0.0008	0.0757	0.012	0.054	106.2
-0.0023	0.12	0.003	0.069	106
-0.0053	0.144	-0.0008	0.1747	106
-0.003	0.1552	-0.0053	0.336	106
-0.003	0.1785	-0.0068	0.414	105.9
0.0007	0.0795	-0.0046	0.288	106
0.0052	0.0232	-0.0091	0.0607	105.8
0.0045	-0.0668	-0.0158	-0.0008	106
0.0082	-0.3795	-0.0091	0.1477	105.8
0.0112	-0.5288	-0.0008	0.1342	105.9
0.0045	-0.2633	0	-0.156	105.8
-0.003	-0.0233	0.0015	-0.4208	105.8
-0.0091	-0.0128	0.0007	-0.4388	105.8
-0.0068	0.0285	0.006	-0.1958	106
-0.003	0.0667	0.009	-0.0405	105.9
-0.0046	0.1335	0.0075	0.018	106.1
-0.0015	0.2527	0.009	-0.0143	105.8
-0.0015	0.2145	0.0052	0.0255	106
-0.0008	0.1117	0.0037	0.1005	105.8
0.0007	0.0367	0.0007	0.09	105.9
0.0007	-0.0158	-0.003	0.1012	106.1
0.0007	-0.0885	-0.0023	0.0675	105.9
0.0007	-0.1058	0.0007	0.0802	106.1
0.003	-0.033	0.0015	0.0277	105.8
0.0045	0.0082	0.0022	-0.0143	106
0.0052	-0.0743	0.003	0.0045	106
0.0052	-0.168	-0.0008	0.0247	105.9
0.0045	-0.003	-0.0015	0.135	106
0.0037	0.0352	-0.0023	0.186	105.9
0.0037	-0.039	-0.0015	0.255	106
0.0015	0.0007	-0.003	0.219	106
-0.0038	-0.0008	-0.0083	-0.093	105.7
-0.006	0.0465	-0.006	-0.306	105.9
-0.0053	0.033	-0.0046	-0.249	105.7
-0.0023	0.0277	-0.0015	-0.0683	106
-0.0008	0.0217	0.0037	-0.0675	105.9
0.0007	-0.0225	0.0052	-0.0788	106
-0.0015	-0.0098	0.0037	0.0157	105.9
-0.0023	-0.0173	0.0015	0.0547	105.9
-0.003	-0.0053	0.003	0.0832	106.1
-0.0053	-0.003	0.0022	-0.0046	105.9
-0.0053	0.0195	0.0022	-0.0361	105.9
-0.0053	0.0547	0.0007	-0.03	105.9
-0.006	0.0352	-0.0046	-0.033	105.9
-0.006	0.009	-0.0046	0.0352	106
-0.0046	0.0112	-0.0015	0.0315	105.9
-0.0015	0.0232	-0.0038	0.0045	106
-0.0008	0.0277	-0.0046	0.0112	106.1
-0.0023	0.027	-0.0053	0.0802	105.8
-0.0015	-0.0075	-0.0053	0.1837	106.2
0	-0.042	-0.003	0.2565	106
0.0007	-0.0256	-0.003	0.24	106
-0.003	0.039	-0.0105	0.0105	106
-0.0053	0.069	-0.012	-0.1575	105.8
-0.0015	0.045	-0.0091	-0.1898	106.1
-0.0038	0.0525	-0.0105	-0.162	105.8
-0.0046	0.0705	-0.0053	-0.0346	106.1
0.003	0.0442	0.003	-0.0023	106
0.0067	-0.0578	0.003	-0.0735	105.9
0.006	-0.1426	0.0007	-0.1028	105.9
0.0022	-0.0743	-0.003	-0.093	106
-0.0008	0.0367	-0.0053	-0.2565	105.8
-0.0046	0.0765	-0.0053	-0.297	105.9
-0.0038	-0.012	-0.0015	-0.0615	105.9
0.0007	-0.1343	0.0007	0.0697	106.1
-0.0008	-0.0405	0.0022	0.0367	105.9
0	-0.0368	0	-0.0413	106.1
0.0015	-0.084	0.0015	-0.0653	106
0.003	0.057	0.0045	0.0585	105.9
0.0045	0.033	0.0045	0.2137	106.2
0.0015	0.0015	0.0045	0.1267	105.9
0.0015	0.0105	0.0045	-0.0158	106.2
0.0007	0.006	0.0067	-0.0353	106
0.0007	0.0667	0.006	-0.003	106.1
0.0007	0.0337	0.0052	0.0487	106
0.0022	0.018	0.0015	0.0165	106
0.0015	-0.0398	-0.0015	0.1087	106.1
0.006	-0.1463	-0.0015	0.3345	106.2
0.0052	-0.1711	-0.0053	0.3052	106
0.0007	0.0165	-0.0053	0.0255	106
0.0007	0.1957	-0.0068	-0.2175	105.7
0.0007	0.0465	-0.0046	-0.0098	106.2
0.0037	-0.0181	-0.0008	0.1687	106
0.0022	-0.039	-0.0046	-0.1133	105.8
0.0007	-0.0706	-0.0038	-0.2355	106
0.003	0.0397	0.0037	-0.2535	105.8
0.003	0.0555	0.006	-0.2881	106
0.003	0.132	0.0037	-0.165	106
0	0.153	0.0007	-0.0188	106
-0.0015	0.051	0	0.033	106
-0.0015	0.0607	0.0045	0.1267	106
0.0007	-0.0263	0.0082	0.2085	106.2
0.0045	-0.1823	0.0067	0.1957	106.1
0.0045	-0.15	0.0037	0.0975	105.9
0.0007	0.0322	0.003	-0.084	106
-0.0046	0.0787	0.003	-0.1238	105.8
-0.0068	0.027	0.0052	0.0007	106.1
-0.0068	-0.0533	0.0052	0.0195	105.9
-0.006	-0.1853	0.003	-0.0405	105.9
-0.006	-0.0495	0.0015	-0.048	106.1
-0.0068	0.0487	-0.0015	-0.0278	106.1
-0.0068	0.0007	-0.0068	0.0202	106.1
-0.006	0.018	-0.0091	0.1005	105.8
-0.0023	-0.0293	-0.0105	0.1927	106.1
0	0.024	-0.0091	0.195	106
-0.0008	0.0232	-0.0053	0.2362	106.1
0.0007	-0.0075	-0.0038	0.303	106.1
-0.0015	0.03	-0.0046	0.2032	106.1
-0.0038	0.0532	-0.0015	-0.0158	106
-0.0015	0.0637	0.0045	-0.5385	105.8
-0.0023	-0.063	0.0052	-0.7275	105.9
-0.0008	-0.0383	0.0052	-0.3195	106.1
0.0007	0.0292	0.006	-0.1298	106
-0.0008	-0.0413	0.006	0.0277	106.1
0.0007	0.0105	0.006	0.1215	106.2
0.0007	0.0667	0	0.0802	106
-0.0008	0.0345	-0.0015	0.0802	106.1
0.0007	0.0052	0	0.0952	106
0.003	0.03	0.003	0.1485	106.1
0.0052	-0.0023	0.0037	0.1162	106
0.0037	-0.0825	0.0015	0.0915	106.1
0	-0.0691	-0.0046	0.0037	106.1
-0.0038	-0.042	-0.0083	-0.1013	105.7
-0.003	-0.0173	-0.0083	-0.0721	105.9
-0.0038	-0.0008	-0.0068	-0.012	105.9
0.0007	-0.0443	0	0.0487	106.1
0.0045	-0.0825	0.0015	0.0142	105.9
0.0037	-0.057	-0.0008	-0.126	105.8
0.003	0.0705	0.0037	-0.1065	106.2
0.0007	0.141	0.0015	0.0555	106
0.003	0.0765	-0.0015	0.1275	106.2
0.0007	0.0607	-0.0038	0.1035	106.1
-0.0015	0.0937	-0.003	0.0412	106
-0.0008	0.0765	-0.0038	-0.0008	106.1
-0.0015	-0.024	-0.0046	0.0667	105.9
0.0007	-0.1043	-0.003	0.105	106
-0.0015	-0.0323	-0.0091	0.0352	105.8
-0.0046	0.0637	-0.0128	-0.021	105.8
-0.0046	0.024	-0.0046	-0.0885	106.1
0.0007	-0.0083	0.0022	-0.1328	105.8
0.0052	0.0217	0.0045	-0.1553	105.9
0.0067	-0.0278	0.0082	-0.0983	106
0.0105	-0.15	0.009	0.0592	106
0.0097	-0.135	0.0045	0.0705	106
0.006	-0.0091	-0.0015	0.0015	105.9
0.0015	0.012	-0.0008	0.0382	106.1
0.0007	0.039	0.0015	0.0637	105.9
-0.0008	-0.0053	-0.0008	0.0097	105.9
-0.0046	0.0007	-0.0023	0.0195	106.1
-0.0038	0.096	0.0007	0.0457	105.9
-0.0038	-0.021	0.0007	0.0712	106.1
-0.0046	-0.0765	0	0.0832	105.8
-0.0038	-0.0083	0.0022	0.0375	106
-0.0038	0.0135	-0.003	-0.0975	105.8
-0.0068	-0.075	-0.006	-0.2295	105.9
-0.003	-0.0308	-0.0015	-0.1426	106.2
0	0.0735	-0.0008	-0.0128	105.9
0.0022	-0.0128	0	0.042	106
0.0007	0.0007	-0.0046	0.0847	105.9
-0.0015	0.0705	-0.0053	0.03	106
-0.003	0.1057	-0.003	0.024	106.1
0.0007	0.084	0.0045	0.1995	105.9
0.003	0.0345	0.0052	0.1642	105.9
-0.0015	0.0532	0.0007	0.003	106.1
-0.003	0.063	0.006	-0.0691	105.8
-0.0015	-0.0691	0.0075	-0.1478	106.1
0	-0.2295	0.0075	-0.0511	105.8
-0.0008	-0.1553	0.0037	-0.0263	106
-0.0023	-0.075	-0.0015	-0.084	106
0.0015	-0.0338	-0.0015	-0.0181	106
0.0007	0.033	-0.003	0.0637	106.2
0.0007	-0.0218	-0.0023	0.0817	106.1
0.0037	-0.0098	0.003	0.006	105.9
0.0075	-0.024	0.0052	0.0562	105.9
0.0045	-0.0518	0.0015	0.0705	106.1
-0.0008	0.0427	-0.0038	-0.03	106.1
-0.0046	0.117	-0.0046	-0.1973	105.8
-0.0038	0.2115	-0.003	-0.2745	106
-0.0015	0.1215	-0.003	-0.078	105.8
-0.0038	-0.0143	-0.003	-0.0105	105.9
-0.0038	0.0502	-0.0015	-0.0248	105.9
-0.003	0.0292	-0.0015	-0.063	105.9
-0.0038	0.012	0.0015	-0.111	106.1
-0.0038	0.024	0.003	-0.0015	106.1
-0.003	-0.0068	0.0015	0.0322	106
-0.0015	-0.0075	0.0015	0.0495	106
-0.0008	-0.0405	-0.0015	0.0952	105.9
-0.0008	-0.0428	-0.003	0.1522	106.2
0	-0.027	-0.0015	0.1875	106
0.0007	-0.0075	-0.003	0.0937	105.9
0.0007	0.0187	-0.0015	0.0142	106
0.0015	0.0127	-0.0008	0.0742	105.9
0	0.0195	-0.0008	0.246	106.2
0.0015	0.033	-0.0008	0.1552	106
0.0015	0.0607	-0.0023	-0.111	106
0.0007	0.0495	-0.0023	-0.1741	106
0.0022	-0.0495	-0.0008	-0.1155	105.9
0.0022	-0.0788	0	0.0525	106.1
0.0037	-0.0233	-0.003	0.0442	105.8
0	-0.0706	-0.0091	-0.063	106.1
-0.0008	-0.1298	-0.0091	-0.0653	105.8
-0.0008	-0.0788	-0.0068	-0.156	106
-0.0008	-0.021	-0.0015	-0.18	106
0.0007	0	0.0037	-0.1583	105.8
0.0045	0.021	0.0067	-0.0428	105.9
0.0067	0.0667	0.0022	0.078	106.1
0.0015	0.0885	-0.0038	0.129	106
-0.0046	0.0367	-0.0046	0.1665	105.9
-0.0068	0.0105	0.0007	0.0217	106
-0.0046	0.0217	0.0037	-0.1006	105.9
-0.003	-0.012	0.0007	-0.1785	105.9
-0.0038	-0.0473	-0.0015	-0.123	106
-0.0008	0.0142	-0.0038	0.1042	106.1
0.0007	0.1027	-0.0068	0.2415	105.8
-0.0008	-0.048	-0.0046	0.2295	106.2
0.0007	-0.1133	0.0007	0.102	105.9
-0.0015	-0.012	-0.0015	-0.0068	105.9
-0.0053	-0.0863	-0.0068	-0.105	106
-0.0046	-0.1515	-0.0023	-0.0443	106
0.0007	-0.0923	0.003	0.1222	106.2
0.003	-0.0075	0.006	0.1447	106.1
0.003	-0.0083	0.0067	0.1245	106.1
-0.0023	0.045	0.0045	0.0322	106
-0.0083	0.0855	0.0022	-0.1335	105.8
-0.0083	0.0757	-0.0015	-0.303	105.8
-0.0068	0.0855	0.0007	-0.3323	105.8
-0.003	0.0697	0.0052	-0.1478	105.9
0.0022	0.078	0.0082	0.1102	106.1
0.003	0.0375	0.0082	0.3037	106.1
-0.0008	0.0067	0.006	0.3622	106.1
-0.0068	-0.0023	0.0015	0.2497	106.1
-0.0083	-0.0278	-0.003	-0.0803	106.1
-0.0068	-0.0533	-0.0008	-0.3885	105.8
-0.0038	-0.1238	0.0045	-0.4425	105.7
0	-0.1103	0.0067	-0.354	106.1
0.0015	0.0315	0.009	-0.156	105.8
0.0037	0.0082	0.0097	-0.0578	106
0.0067	-0.0256	0.0105	-0.0428	106.1
0.0082	0.0457	0.0105	0.1387	106.2
0.0075	0.0315	0.003	0.1822	106.1
0.0067	0.072	-0.0046	0.0937	105.9
0.0052	0.0975	-0.0083	0.0817	106.1
0.0052	0.0847	-0.0068	0.2947	106.2
0.0067	0.0127	-0.0046	0.5257	106
0.0082	-0.048	-0.0091	0.513	106.2
0.0082	0.0105	-0.012	0.3412	105.9
0.0015	0.0217	-0.0173	-0.2115	105.8
-0.0091	0.0465	-0.024	-0.6578	105.6
-0.0128	0.0255	-0.0188	-0.6555	105.8
-0.0091	-0.0638	-0.0053	-0.2955	106
-0.003	-0.1193	0.0022	0.0375	105.8
0	-0.084	0.0045	0.1027	106.1
0.0007	-0.0578	0.0045	0.1402	106.1
0.0007	-0.0428	-0.0015	-0.0338	106
0.0007	0.003	0	-0.0691	105.9
0.003	0.0675	0	0.0217	106.2
0.0052	0.204	-0.0008	0.2932	106.1
0.0052	0.1695	0.003	0.4087	106
0.0007	0.1252	-0.003	0.1042	105.9
-0.0008	-0.021	-0.0038	-0.1568	105.9
0.0015	-0.369	0	-0.2685	105.8
0.0067	-0.372	0.0045	-0.1103	106.1
0.0067	-0.099	0.0007	-0.078	105.8
-0.0008	0.0495	-0.0091	-0.1823	105.8
-0.0068	0.0765	-0.0075	-0.2198	106.1
-0.0075	0.0967	-0.0008	-0.1035	105.9
-0.0053	0.063	0.0022	0.009	106.1
-0.0053	0.0502	-0.0008	0.0247	105.8
-0.003	0.0375	-0.0023	0.0735	106.1
-0.0023	0.0277	0.003	0.1125	106
-0.0008	0.0457	0.0067	0.267	106.1
0.0007	-0.0068	0.006	0.3727	106.1
0	0.0082	0.0052	0.2782	106.1
-0.0038	0.0405	0.0015	0.0427	106.1
-0.0098	0.048	-0.0015	-0.0938	106
-0.0128	0.0855	0.0007	-0.063	105.9
-0.0105	0.0195	0.0045	-0.156	106
-0.0046	-0.1103	0.0052	-0.1838	105.8
-0.003	-0.108	0.0007	-0.15	106.1
-0.003	-0.0105	0.0015	-0.0893	106.1
0.0007	0.0015	0.003	0.0495	106.1
0.0045	0.009	0.0037	0	106.1
0.006	0.0615	0.0045	0.0067	105.9
0.0082	0.0765	0.0052	0.1552	106.2
0.009	0.09	0.0075	0.2032	106.1
0.009	0.0502	0.0037	0.0922	106.2
0.0067	-0.075	0.0007	0.0405	106.1
0.0022	-0.2145	0.0007	0.0705	106.1
0.0045	-0.2708	-0.003	0.009	106.1
0.0015	-0.1426	-0.0053	-0.2123	105.9
-0.0008	0.0352	0	-0.2558	105.9
0.003	0.1312	0.003	-0.237	106.1
0.0015	0.1125	0.0015	-0.1575	106.1
-0.0008	0.0015	-0.0015	0.0067	106.2
0.0007	0.012	-0.0053	-0.0518	105.9
0.0007	0.0225	-0.0083	0.027	106.3
0.0022	0.0052	-0.006	0.0952	106.1
0.0045	0.0457	0.0045	0.2235	106.2
0.0052	0.048	0.003	0.303	106.1
0.003	0.072	-0.0068	0.1507	105.9
0.0007	0.0952	-0.0105	0.078	106
-0.0008	0.1117	-0.0091	-0.0428	106.1
-0.0015	0.123	-0.0068	-0.1718	106
-0.0046	0.15	-0.0105	-0.1658	106
-0.0068	0.0052	-0.0128	-0.1635	105.9
-0.0046	-0.3135	-0.0046	-0.153	106.1
-0.0015	-0.3173	0.0007	-0.0405	106.2
-0.0015	-0.09	0.0015	0.009	106.1
-0.0015	-0.0368	0.0067	0.087	106.3
-0.0008	0.0375	0.009	0.1147	106.1
-0.0038	0.1005	0.0045	0.0157	106.2
-0.006	0.0382	0.0007	-0.039	106.1
-0.0075	0.0592	-0.0008	0.0195	106.3
-0.006	0.0405	-0.003	0.1987	106.2
-0.0053	-0.0195	-0.0038	0.237	106.2
-0.003	-0.0233	-0.0046	0.075	106.2
-0.0046	0.012	-0.0053	-0.1148	106.1
-0.0046	-0.0181	-0.0046	-0.1658	106.2
0	-0.0436	-0.0008	-0.0953	106.1
0.003	-0.0128	0.0015	-0.0893	106.1
0.003	-0.0143	0.0022	-0.1148	106.3
0.0015	-0.0135	0.0007	-0.1245	106.1
0.0015	-0.0053	0.0015	-0.0945	106.4
0.0015	0.0457	0.0022	0.0232	106.1
0.0015	0.0495	0.0022	0.114	106.3
0.0015	0.0255	0.006	0.141	106.2
0.0022	0.0157	0.0052	0.1425	106.3
0.0015	0.003	-0.0015	0.15	106.4
-0.0008	0.0292	-0.0068	0.1455	106.3
0.0015	-0.0091	-0.0083	-0.0068	106.1
0.0007	-0.0195	-0.0098	-0.1163	106.1
-0.0008	0.0517	-0.012	0.009	106.3
0.0007	0.0097	-0.0083	0.2017	106.3
0.0045	-0.0473	-0.0008	0.126	106.2
0.0022	0.0165	0.0015	-0.258	106.2
-0.0053	0.1012	-0.0008	-0.4103	106.2
-0.0075	0.0592	0.0052	-0.3653	106.1
-0.006	-0.1741	0.015	-0.1125	106.4
-0.0023	-0.2078	0.0187	0.1522	106.4
-0.003	-0.0525	0.0157	0.1695	106.4
-0.0023	-0.0293	0.0135	0.1725	106.4
-0.0015	0.0112	0.0105	-0.003	106.2
-0.0075	0.009	0.0015	-0.1073	106.4
-0.0038	0.0442	0.003	-0.081	106.3
0.0007	0.0892	0.0022	0.0405	106.6
-0.0015	0.0637	-0.0015	0.102	106.3
-0.003	0.0817	-0.0015	0.0802	106.4
0.0007	0.0427	-0.003	0.1237	106.4
0.0015	0.0165	-0.0023	0.0607	106.4
0.003	0.0045	-0.0015	0.0052	106.4
0.0067	0.042	0	-0.0046	106.4
0.0037	0.0127	-0.0008	-0.0788	106.4
0	-0.09	-0.003	-0.0788	106.5
-0.0015	-0.0706	-0.0038	0.135	106.4
-0.0038	-0.1043	-0.0068	0.2362	106.4
-0.0046	-0.0653	-0.0068	0.1275	106.4
-0.0053	0.0817	-0.0091	-0.1365	106.2
-0.0083	0.1402	-0.0113	-0.2873	106.4
-0.0083	0.144	-0.0091	-0.243	106.2
-0.0053	0.021	-0.0015	-0.21	106.5
-0.0023	-0.1073	0.0022	-0.0165	106.3
0.0015	-0.1815	0.0037	0.0345	106.4
0.0045	-0.2011	0.0082	-0.0293	106.4
0.006	-0.012	0.009	-0.0165	106.2
0.0052	0.0735	0.006	-0.0165	106.4
0.0045	0.0292	0.003	0.0442	106.4
0.006	0.1027	0.0022	0.0322	106.4
0.0082	0.0442	0.0015	0.0577	106.5
0.0097	-0.0203	-0.0053	0.0937	106.4
0.0052	0.0435	-0.0098	0.0652	106.5
0.0045	0.0952	-0.012	0.0457	106.4
0.0045	-0.0653	-0.0128	0.015	106.4
0.0037	-0.1643	-0.0098	0.0495	106.5
0.0037	0.033	-0.0068	0.0705	106.5
0.0045	-0.0608	-0.0068	0.0405	106.4
0.006	-0.129	-0.0068	0.0187	106.4
0.0052	-0.0135	-0.0015	-0.0008	106.6
0.0052	-0.015	0.0007	0.0292	106.5
0.0082	0.0277	0.0007	0.1057	106.5
0.0082	0.042	0.0015	0.12	106.6
0.006	0.057	0	0.0307	106.5
0.0045	0.0097	0.0007	-0.0105	106.5
-0.0008	-0.0195	-0.0015	-0.0053	106.5
-0.0015	0.0667	-0.003	0.027	106.5
0.0015	0.123	0.0015	-0.0038	106.6
0.0007	0.108	0.0022	0.0045	106.4
-0.0015	0.0765	0.0022	0.1665	106.6
-0.0068	0.0465	0.003	0.0915	106.5
-0.0083	-0.0615	0.0037	-0.1088	106.4
-0.0105	-0.1726	0.003	-0.3083	106.4
-0.0143	-0.0818	-0.0008	-0.3683	106.4
-0.0173	0.0952	-0.0038	-0.1726	106.7
-0.0143	0.0352	-0.0038	-0.0555	106.4
-0.0105	0.0075	-0.0075	0.0307	106.5
-0.0068	-0.003	-0.0083	0.171	106.4
-0.003	-0.0706	-0.0008	0.2362	106.6
-0.0015	-0.0181	0.0037	0.1545	106.4
-0.0046	0.0157	0.0007	-0.039	106.6
-0.0068	0.069	0.0037	-0.1711	106.6
-0.0008	0.045	0.012	-0.147	106.5
0.003	0.0067	0.0195	0.0052	106.5
0.0052	-0.0068	0.0187	0.1095	106.6
0.0022	-0.045	0.0105	0.0817	106.6
-0.0023	0.0375	0.0075	0.1597	106.6
0	0.1425	0.006	0.108	106.5
-0.0038	0.1267	-0.0008	-0.1485	106.5
-0.0053	0.0292	-0.0015	-0.2498	106.6
-0.0015	-0.0623	0.0007	-0.222	106.4
0.0015	-0.2273	-0.0023	-0.0098	106.7
0.0067	-0.297	-0.0015	0.21	106.6
0.0067	-0.1463	0.0007	0.147	106.6
0.0015	0.069	0.0015	0.0397	106.7
-0.0038	0.2362	-0.003	-0.1013	106.6
-0.0068	0.2205	-0.0046	-0.1898	106.4
-0.0046	0.156	-0.003	-0.0218	106.4
-0.0046	-0.0721	-0.0046	0.093	106.6
-0.003	-0.3375	-0.0053	0.141	106.7
0.0015	-0.2295	-0.0098	0.135	106.4
0.003	-0.0555	-0.012	-0.1373	106.6
0.0022	-0.0488	-0.0135	-0.2768	106.2
0.0015	-0.0083	-0.012	-0.1545	106.6
0.0052	0.0315	-0.0053	-0.0893	106.5
0.0075	0.0082	-0.003	0.0315	106.6
0.0082	0.0622	-0.0015	0.1395	106.6
0.0075	0.0802	0.003	0.1402	106.6
0.0052	0.054	0.0015	0.1237	106.6
0.0015	0.0367	0.0007	0.0532	106.5
-0.0008	0.0172	0.0007	0.1312	106.6
0	0.057	0.0007	0.1837	106.6
-0.0008	0.0555	-0.0008	0.135	106.7
-0.0008	0.0637	-0.0008	0.0255	106.6
-0.0008	0.0907	-0.0008	-0.1913	106.5
0.0007	0.0307	0.0007	-0.2573	106.4
0.0022	-0.0893	0.0037	-0.2618	106.5
0.0052	-0.1485	0.0082	-0.15	106.5
0.0075	-0.078	0.0082	-0.048	106.7
0.0045	-0.0195	0.0045	-0.0083	106.6
0.0045	-0.0105	0.0037	0.108	106.6
0.0045	-0.0015	0.003	0.1342	106.8
0.003	0.039	0.003	0.1567	106.6
0.0015	0.1125	0.0007	0.0967	106.8
-0.003	0.1132	-0.0038	0.0015	106.5
-0.006	0.0607	-0.0053	0.0855	106.7
-0.003	-0.039	-0.003	0.273	106.6
-0.0008	-0.123	-0.0015	0.2745	106.8
-0.0038	-0.0968	-0.0068	0.0382	106.6
-0.0113	0.0037	-0.0091	-0.2288	106.3
-0.012	0.108	-0.0053	-0.438	106.5
-0.0075	0.1057	-0.0008	-0.2761	106.6
-0.0008	0.0532	0.0015	0.0315	106.5
-0.0008	-0.042	0.0045	0.1635	106.7
-0.0008	-0.0728	0.006	0.15	106.6
-0.0008	0.015	0.0015	-0.0278	106.6
-0.003	-0.0203	-0.003	-0.1373	106.4
-0.0023	-0.084	-0.0046	-0.1148	106.5
-0.0008	-0.0293	0.0015	-0.0308	106.6
0.0015	0.066	0.0075	-0.048	106.5
0.0015	0.171	0.0082	-0.0105	106.6
0.0015	0.1897	0.0067	-0.0788	106.4
0	0.0427	0.0112	-0.1013	106.6
0.0015	-0.0938	0.0135	0.0345	106.5
0.0015	-0.2205	0.009	0.0135	106.6
0.0022	-0.3653	0.0067	0.078	106.6
0.0007	-0.2408	0.003	0.1035	106.6
-0.0023	0.066	-0.0023	0.1087	106.4
-0.0046	0.1837	-0.0091	0.057	106.6
-0.006	0.0915	-0.0105	0.0082	106.4
-0.0038	-0.0465	-0.0105	0.033	106.6
-0.003	0.0615	-0.012	0.0697	106.4
0.0007	0.1665	-0.0068	0.1267	106.7
-0.003	0.093	-0.0128	0.0105	106.5
-0.0098	0.1552	-0.0158	-0.0443	106.5
-0.0105	0.1522	-0.0083	0.0105	106.6
-0.0075	0.114	-0.0015	-0.0098	106.5
-0.0038	-0.021	0.0045	-0.0346	106.6
0.0007	-0.3653	0.0045	0.0255	106.6
0.006	-0.4853	0.0022	0.1582	106.7
0.0045	-0.1853	-0.0015	0.1237	106.6
0.0015	0.0952	-0.0046	0.0232	106.6
0.0015	0.0615	0.0015	-0.0465	106.6
0.0022	0.0367	0.0045	-0.1553	106.6
0.0022	0.033	0.0037	-0.1373	106.4
0.0007	0.0142	0.0052	-0.1958	106.6
0.0015	0.0165	0.0052	-0.1673	106.4
0.0037	0.0165	0.0045	-0.0563	106.6
0.003	0.0697	0.0045	-0.0278	106.5
0.0022	0.0532	-0.0008	-0.0053	106.6
0.0007	0.0517	-0.0023	-0.0263	106.6
0.0007	0.0667	-0.0015	0.0127	106.6
0	0.0555	-0.0068	0.012	106.5
-0.0008	0.0735	-0.0083	0.0877	106.4
-0.0015	0.0787	-0.0083	0.222	106.6
-0.0008	0.12	-0.006	0.282	106.4
0.0045	0.1027	-0.0075	0.207	106.5
0.0037	0.0435	-0.0105	0.0802	106.4
0.0022	0.057	-0.0091	0.0795	106.4
0.0045	-0.042	-0.0053	0.0442	106.5
0.0082	-0.1711	0.0015	0.0337	106.6
0.009	-0.123	0.0082	0.0067	106.4
0.0075	-0.1118	0.012	-0.0555	106.6
0.0045	-0.159	0.012	-0.1538	106.4
0	-0.0256	0.0105	-0.3893	106.5
-0.0008	-0.0128	0.0097	-0.5918	106.4
0	-0.1711	0.009	-0.504	106.4
-0.0008	-0.0983	0.012	-0.0968	106.6
-0.0023	0.0172	0.0105	0.0367	106.4
-0.0053	0.0217	0.0007	0.0592	106.6
-0.0075	0.027	-0.003	0.1567	106.5
-0.0083	0.0457	-0.0053	0.1237	106.6
-0.0046	0.0825	-0.0046	0.1357	106.6
-0.0023	0.1117	-0.0083	0.0765	106.6
-0.003	0.0825	-0.0091	0.072	106.5
-0.003	0.0082	-0.0053	0.045	106.6
-0.003	-0.0585	-0.0053	0.0135	106.6
-0.003	-0.0668	-0.0015	0.093	106.7
-0.0023	0.0345	-0.0008	0.0825	106.5
-0.003	0.0802	-0.0046	0.0427	106.7
0	0.054	-0.0023	0.066	106.5
0.0015	0.0502	-0.0008	0.099	106.6
0.0052	-0.0368	0.0007	0.0915	106.4
0.0082	-0.1388	0.0015	0.1335	106.6
0.0052	-0.1193	0.0022	0.129	106.6
0.003	-0.078	-0.0008	0.1177	106.5
0.003	-0.0803	-0.0068	0.108	106.4
0.0007	-0.024	-0.0091	-0.1148	106.4
0.0007	0.1042	-0.003	-0.2205	106.5
0.003	0.168	0.0007	-0.1178	106.4
0.0015	0.0307	-0.0015	-0.024	106.6
0.0015	0.036	0.003	0.0765	106.4
0.003	0.1215	0.003	-0.0488	106.4
-0.0008	-0.033	0.003	-0.2093	106.4
-0.003	0.018	0.006	-0.186	106.6
-0.0053	0.0607	0	-0.1058	106.4
-0.0053	-0.0113	-0.0008	0.003	106.6
-0.0053	0.024	0.0007	0.039	106.4
-0.0053	0.0045	-0.0008	0.0832	106.6
-0.003	0.0142	0.0007	0.093	106.5
-0.0008	-0.003	0	0.132	106.5
0.0007	0.0817	0	0.1762	106.6
-0.0008	0.1245	0.0015	0.0952	106.4
-0.0015	0.0052	0.0037	0.0067	106.5
-0.0038	-0.0053	0.0015	-0.0383	106.5
-0.006	-0.0315	-0.0023	-0.0008	106.4
-0.0053	-0.081	0.0007	0.0067	106.4
-0.0015	-0.0615	0.0052	-0.1283	106.6
0.003	0.1057	0.0052	-0.2175	106.6
0.003	0.1627	0.0045	-0.135	106.6
0.003	-0.1103	0.0045	0.0435	106.6
0.0015	-0.165	-0.003	0.1687	106.7
-0.0015	-0.0158	-0.0068	0.1687	106.3
0	-0.1396	-0.0091	0.021	106.6
-0.0015	-0.3195	-0.0083	-0.0743	106.6
-0.0015	-0.1935	-0.0015	0.0015	106.6
-0.0008	0.0615	0.0015	0.0412	106.6
-0.003	0.0517	0.0045	-0.0353	106.5
-0.0053	-0.0105	0.0045	-0.147	106.6
-0.0075	0.0367	0.0015	-0.2528	106.4
-0.0091	0.0427	-0.0053	-0.2348	106.4
-0.0098	0.0442	-0.0068	-0.057	106.6
-0.0053	0.0135	-0.0046	-0.0233	106.5
-0.003	0.0187	-0.0083	0.0277	106.5
-0.0015	0.0442	-0.0105	0.075	106.6
0	0.0345	-0.0075	0.0352	106.5
-0.0008	0.0517	-0.0046	0.0337	106.6
0.0045	0.048	-0.0015	0.024	106.5
0.006	0.0382	0.0015	0.12	106.7
0.0052	0.0315	0.0015	0.1777	106.5
0.006	0.0742	0.0007	0.1822	106.6
0.0045	0.1207	-0.003	0.1455	106.6
0.0007	0.093	-0.0083	0.0375	106.5
-0.0015	0.1117	-0.0083	0.051	106.6
0.0007	0.1785	-0.0038	0.111	106.6
0.006	0.1395	0.003	0.0472	106.6
0.0097	0.0307	0.0037	-0.0758	106.6
0.0082	-0.0278	0.0045	-0.2078	106.5
0.0067	-0.2798	0.0067	-0.2333	106.6
0.0067	-0.531	0.0052	-0.1411	106.7
0.006	-0.3383	0.003	-0.0863	106.7
0.006	-0.0488	-0.0008	-0.021	106.5
0.003	-0.0256	-0.003	0.0495	106.6
0	0.0007	-0.0053	0.1087	106.7
-0.0015	0.0045	-0.0053	0.222	106.6
0.0015	-0.1006	0.0007	0.1815	106.7
-0.0015	-0.0195	-0.0008	-0.0195	106.5
-0.0046	0.063	-0.0023	-0.099	106.6
-0.0053	0.0825	0.0007	-0.0953	106.6
-0.0053	0.0855	0.0015	-0.06	106.5
-0.0046	0.0705	0.003	-0.0465	106.8
-0.003	0.0877	0.0045	-0.0668	106.4
0.0007	0.0525	0.0052	-0.0158	106.6
0.003	0.0652	0.0052	0.033	106.6
0.003	0.0367	0.0052	0.0105	106.6
0.0015	-0.033	0.0015	0.0532	106.6
-0.0015	-0.033	-0.0046	0.141	106.5
-0.0046	0.0052	-0.0046	0.0577	106.6
-0.0068	0.0217	-0.0046	-0.0968	106.6
-0.003	0.0105	-0.003	-0.1545	106.6
0	0.0142	0	-0.0405	106.7
0.0037	0.0217	0.0045	0.1027	106.6
0.0075	0.0465	0.0052	0.1072	106.7
0.0045	-0.039	0.003	0.126	106.7
0.003	-0.0181	0.0015	0.1957	106.6
0.0015	0.063	-0.0023	0.135	106.8
-0.0015	-0.0653	-0.0053	0.0465	106.6
0	-0.0871	0.0007	0.0232	106.6
-0.003	-0.0346	-0.0008	-0.18	106.6
-0.0083	0.0127	-0.0053	-0.3023	106.6
-0.0105	0.036	-0.0015	-0.3315	106.6
-0.0091	-0.0173	0.003	-0.2715	106.6
-0.003	-0.0256	0.0067	-0.0893	106.7
-0.0008	-0.033	0.0015	-0.075	106.6
-0.0015	0.0165	0.0045	-0.027	106.8
-0.0008	0.114	0.0075	0.054	106.8
-0.0015	0.204	0.0022	0.132	106.6
-0.003	0.1485	0.0007	0.0937	106.8
-0.0015	-0.0068	0.003	0.0142	106.6
0.0007	0.0667	0.006	-0.0053	106.8
0.0015	0.057	0.0022	0.0135	106.7
0.0007	0.0105	-0.0008	0.0832	106.8
-0.0023	0.0765	-0.0053	0.105	106.6
-0.003	-0.0128	-0.0053	0.276	106.6
0.0007	-0.0871	-0.0008	0.2917	106.7
0.0007	-0.0871	-0.0068	0.117	106.6
-0.003	-0.0023	-0.012	-0.0833	106.4
-0.0015	-0.0375	-0.012	-0.2423	106.6
-0.003	-0.1006	-0.0091	-0.2145	106.6
-0.0015	-0.0008	-0.006	-0.1726	106.7
0.0015	-0.042	-0.0053	-0.0653	106.8
-0.0008	-0.1298	-0.0091	-0.1193	106.5
-0.0023	-0.1598	-0.0083	-0.0083	106.9
0.0015	-0.0706	0	0.2415	106.6
0.006	-0.0135	0.0067	0.2295	106.8
0.0037	0.0045	0.006	0.189	106.7
0.0022	0.0757	0.0052	-0.0091	106.7
0.0015	-0.0188	0.0075	-0.2273	106.7
0.0022	-0.0181	0.0067	-0.2175	106.6
0.0045	0.0157	0.0052	-0.1058	106.7
0.0045	0.027	0.0007	-0.054	106.9
0.0015	0.105	-0.0023	0.018	106.6
-0.0008	0.06	0.0007	-0.0158	106.7
-0.0015	0.0382	0.0007	-0.0398	106.8
-0.0008	0.0277	-0.0008	0.009	107
0	0.0202	-0.0008	0.0705	106.7
0.0015	0.0217	0.0022	0.1575	106.8
0.0007	-0.0008	0.0037	0.1365	106.7
0.003	0.054	0.0045	0.1282	106.7
0.0045	0.0705	0.0037	0.1185	106.9
0.0052	0.0727	0.0022	0.0705	106.6
0.003	0.0195	-0.0008	-0.0593	106.8
-0.0046	-0.1523	-0.0113	-0.1898	106.6
-0.0068	-0.2295	-0.0105	-0.1898	106.6
-0.006	-0.1726	-0.0068	-0.1065	106.9
-0.0046	-0.0315	-0.0038	-0.0683	106.6
-0.0046	0.0292	-0.0015	-0.0181	106.9
-0.0046	0.0217	-0.0015	0.0345	106.7
-0.0023	0.0502	0.0015	0.039	106.8
-0.003	0.0262	0.0007	0.1005	106.8
-0.0015	0.0217	-0.0015	0.1275	106.8
0	0.0285	-0.0015	0.114	106.8
0.003	0.0465	-0.0015	0.1147	106.9
0.0075	0.0712	0.0015	0.1987	106.8
0.009	0.0405	0.0022	0.4102	107.1
0.0112	-0.0458	-0.0008	0.6067	106.7
0.009	-0.027	-0.0068	0.4237	106.8
0.0082	0.063	-0.006	0.0097	106.5
0	-0.0158	-0.0046	-0.6038	106.5
-0.0091	-0.09	0	-0.9938	106.6
-0.006	-0.0615	0.0075	-0.6196	106.5
-0.003	0.009	0.012	-0.324	106.8
-0.003	0.0112	0.0142	-0.1103	106.8
-0.0046	-0.0135	0.0172	0.0412	106.7
-0.0023	0.009	0.018	0	106.9
-0.0053	0	0.0082	-0.0405	106.7
-0.0098	0.0825	0.0007	-0.0915	106.9
-0.012	0.114	-0.0015	-0.0091	106.7
-0.0098	0.0675	-0.0015	0.0277	106.8
-0.006	0.0472	-0.0023	0.0937	106.8
-0.0083	-0.033	-0.0083	0.0757	106.7
-0.0068	-0.099	-0.0091	-0.0091	107
-0.0046	-0.0893	-0.0068	0.0277	106.6
0	-0.0638	-0.006	0.0592	106.8
0.0015	-0.0683	-0.003	0.0817	106.7
0.0045	-0.0256	0.003	0.1057	106.7
0.0067	-0.012	0.0045	0.0637	106.8
0.0067	-0.0083	0.0037	0.0817	106.7
0.0067	0.012	0.0052	0.1237	106.7
0.006	-0.0038	0.0052	0.1462	106.8
0.003	0.0045	-0.0008	0.1575	106.8
0.0015	-0.0173	-0.0046	0.0202	106.6
0.0007	-0.0181	-0.0046	-0.0735	106.6
0.0015	0.0255	-0.0068	-0.0405	106.9
0.003	0.0202	-0.0083	-0.0173	106.6
0.0045	0.015	-0.0091	0.0067	106.8
0.0045	0.0315	-0.0098	0.0172	106.8
0.0052	0.0255	-0.0038	0.0135	106.9
0.0067	0.024	-0.0023	0.0187	106.9
0.0052	0.0232	-0.0015	0.0105	106.7
0.0052	0.0127	-0.0008	0.0142	106.8
0.0052	0.0127	-0.0023	0.015	106.9
0.006	0.0015	-0.0015	0.0097	106.8
0.0037	0.0052	-0.0023	0.0142	106.8
0.0022	0.0052	-0.003	0.006	106.7
0.0022	0.003	-0.0023	-0.0038	106.7
-0.0015	0.0067	0.0007	-0.0203	106.7
-0.0023	-0.003	0.0037	-0.0315	106.6
-0.003	-0.0038	0.0037	-0.0278	106.9
-0.0053	-0.0008	0.0037	-0.0203	106.7
-0.0053	0	0.0022	-0.0158	107
-0.0053	-0.0008	0.0022	-0.0113	106.7
-0.0053	-0.0046	0.0037	-0.0128	106.6
-0.0023	-0.0053	0.0022	-0.015	106.7
-0.0015	-0.0053	0.0015	-0.0128	106.7
-0.0008	-0.0015	0.0007	-0.0091	106.8
0.0007	0	0	-0.0068	106.6
0.0015	0	-0.0008	-0.0068	106.9
0.0007	0.0007	-0.0008	-0.0053	106.6
-0.0008	0.0007	0	-0.0046	106.9
-0.0023	0.0007	-0.0008	-0.003	106.7
-0.0023	0.0007	-0.0008	-0.0008	106.9
-0.003	0.0007	-0.0008	-0.0015	106.9
-0.003	-0.0008	0.0007	-0.003	106.8
-0.003	-0.0008	-0.0008	-0.0023	106.7
-0.0023	-0.0015	0.0022	-0.0008	106.8
-0.0015	0	0.0022	-0.0015	106.7
-0.0008	0.0007	0.0007	-0.0023	106.9
-0.0023	0.0007	-0.0008	-0.0015	106.9
-0.0015	0.0007	0.0007	-0.0015	106.6
-0.0046	0.0015	0.0007	0	106.9
-0.0053	0.003	-0.0038	0.0015	106.6
-0.006	0.0015	-0.0053	0.0037	106.9
-0.0068	0.0015	-0.0053	0.0067	106.6
-0.0053	0.0015	-0.0046	0.0052	106.9
-0.0046	0.0007	-0.0015	0.003	106.9
-0.0046	-0.0015	-0.0015	0	106.8
-0.0046	-0.0023	-0.0015	-0.003	106.9
-0.0046	-0.0023	-0.0008	-0.0068	106.8
-0.0015	-0.003	-0.0023	-0.0068	106.9
0.0007	-0.0053	-0.003	-0.0075	107
0.003	-0.0083	-0.0038	-0.0105	106.7
0.006	-0.0091	-0.0023	-0.0091	107
0.0067	-0.0075	0.0007	-0.0091	106.7
0.0067	-0.012	0.0052	-0.012	106.9
0.0067	-0.0181	0.0097	-0.012	106.7
0.003	-0.0143	0.0112	-0.0091	106.6
0.0007	-0.0068	0.0105	-0.003	106.7
0	-0.003	0.0082	0.0015	106.9
-0.0015	0.0037	0.0082	0.0045	106.8
-0.0008	0.0127	0.0037	0.0105	106.7
-0.0008	0.018	-0.0053	0.0142	106.7
0	0.0172	-0.0068	0.0127	106.8
0	0.0112	-0.0053	0.009	106.7
-0.0008	0.0045	-0.003	0.0045	107
-0.0015	0.003	0	0.0015	106.8
-0.0023	0.0052	-0.0008	0.0007	106.8
-0.0046	0.0022	-0.003	0.0007	107
-0.0053	0.0007	-0.0038	-0.0015	106.8
-0.006	-0.0023	-0.0008	-0.006	107
-0.006	-0.003	0.0015	-0.0023	106.8
-0.0046	-0.0008	0.0037	0.0075	106.8
-0.003	-0.003	0.003	0.0315	106.9
-0.0015	-0.0053	0.0015	0.0832	106.8
0.0022	-0.0098	0.0015	0.1155	106.8
0.003	-0.0293	0.0007	0.0855	106.7
0.003	-0.0413	-0.0015	0.0142	106.7
0.0022	-0.0083	-0.0038	-0.0668	106.6
0.0007	0.015	-0.003	-0.156	106.8
-0.0008	0.0105	-0.0046	-0.1958	106.7
-0.0008	0.0195	-0.0008	-0.1193	106.6
0.0007	0.012	0.0037	-0.045	106.8
0.0022	0.0037	0.0052	-0.012	106.8
0.0015	0.006	-0.0008	0.0142	106.6
0.0015	0.0082	-0.0053	0.0187	106.6
0.0007	0.0135	-0.0068	0.027	106.5
-0.0015	0.0105	-0.0091	0.0255	106.6
-0.0015	0.0105	-0.0068	0.0247	106.6
-0.0008	0.0052	-0.0075	0.024	106.5
-0.0008	0.0052	-0.0068	0.024	106.7
-0.0015	0.0052	-0.0038	0.0232	106.5
-0.0008	0.0007	-0.003	0.0195	106.8
0.0007	0.0007	-0.0015	0.0165	106.5
0.0015	-0.0023	-0.0023	0.012	106.7
0.003	-0.0008	-0.0046	0.0127	106.6
0.0045	-0.003	-0.0053	0.012	106.6
0.0045	-0.003	-0.0046	0.012	106.6
0.0015	-0.0015	-0.0053	0.012	106.5
0.003	-0.003	-0.006	0.0105	106.4
0.0045	-0.003	-0.0068	0.0112	106.6
0.006	-0.0053	-0.0053	0.0075	106.4
0.0082	-0.0038	-0.0046	0.0067	106.6
0.0082	-0.0046	-0.0046	0.0045	106.4
0.0082	-0.0053	-0.003	0.0007	106.6
0.0082	-0.0038	-0.0015	0.0007	106.5
0.0075	-0.003	-0.0015	-0.0008	106.5
0.0052	-0.0008	-0.003	0	106.5
0.0045	0.0007	-0.003	0.0052	106.4
0.0037	-0.003	-0.0023	0.0165	106.5
0.003	-0.0053	-0.0015	0.024	106.3
0.0022	-0.0008	0.0037	0.015	106.5
0.0015	0	0.0075	-0.012	106.3
-0.0008	-0.0023	0.0142	-0.0443	106.3
-0.0023	-0.0046	0.0187	-0.0578	106.3
-0.003	-0.0083	0.0195	-0.042	106.2
-0.003	-0.0053	0.018	-0.0165	106.1
-0.0038	0	0.0142	-0.0053	106.3
-0.003	0.0022	0.009	0.0007	106.2
-0.003	0.0022	0.0045	0.0015	106.3
-0.003	0.0015	0.0045	0.0007	106
-0.0023	0.003	0.0037	0.0037	106.1
-0.0015	0.0022	0.0022	0.0045	106.2
0.0007	0.003	0.0015	0.0067	106.1
-0.0008	0.0037	-0.0015	0.0097	106.1
-0.0023	0.0045	-0.0015	0.009	105.9
-0.0015	0.003	-0.003	0.012	106.1
0	0.0022	-0.0053	0.0142	106
0.003	0.003	-0.0068	0.0127	105.8
0.003	0.003	-0.0075	0.0105	105.9
0.003	0.003	-0.0075	0.0067	106
0.003	0.0007	-0.0046	0.0045	105.8
0.0007	-0.0008	-0.0015	0.003	105.9
0.0015	-0.0008	0.0007	0.0007	105.8
-0.0008	-0.0008	0.0045	0.0007	106.1
-0.0015	-0.0008	0.0082	-0.0008	105.8
-0.0008	0	0.006	-0.003	105.8
-0.0015	0.0015	0.0045	-0.003	105.9
-0.0008	0	0.003	-0.0053	105.8
0.0015	0	0.0015	-0.0046	105.8
0	0	0.0022	-0.0046	105.7
-0.0023	-0.0008	0.0015	-0.0046	105.7
-0.0015	-0.0015	0.0015	-0.003	105.7
-0.003	-0.0015	0.0007	-0.0015	105.7
-0.003	0	-0.0015	0.0007	105.6
-0.0008	0.0015	-0.0046	0.003	105.6
-0.0008	0.0015	-0.006	0.003	105.6
-0.0008	0.0007	-0.0083	0.003	105.6
0	0	-0.0068	0.0022	105.3
-0.0015	-0.0008	-0.0098	0.0015	105.6
-0.0023	0.0007	-0.012	0.003	105.3
-0.003	0.0007	-0.003	0.0022	105.6
-0.0038	0	0.0097	0.0007	105.3
-0.003	0.0015	0.0157	-0.0008	105.3
-0.0015	0.0007	0.0187	-0.0008	105.4
-0.003	-0.0008	0.0135	-0.0015	105.3
-0.0053	-0.0008	0.0022	0.0015	105.3
-0.0038	-0.0008	-0.003	0.0045	105.2
-0.0015	0.0007	-0.006	0.0045	105.2
-0.0023	0.0007	-0.0105	0.0045	105.1
-0.0008	0	-0.0128	0.0037	105.1
0.0007	0.0007	-0.0143	0.0022	104.9
-0.0038	0.0007	-0.0143	0	105
-0.0046	0.0007	-0.012	-0.0053	104.8
-0.0038	-0.0008	-0.0091	-0.0083	105
-0.003	-0.003	-0.0075	-0.0098	104.8
-0.0015	-0.0083	-0.0083	-0.012	104.9
-0.0015	-0.0105	-0.0083	-0.0083	104.8
0	-0.0023	-0.0083	-0.003	104.7
0.0045	0.0037	-0.0083	-0.0008	104.6
0.0082	0.0045	-0.0091	0.0015	104.5
0.009	0.009	-0.0105	0.0022	104.8
0.0097	0.0067	-0.0083	-0.0008	104.5
0.012	0.0007	-0.003	-0.0046	104.6
0.0127	-0.0046	0.003	-0.0075	104.6
0.012	-0.0046	0.0075	-0.006	104.4
0.012	0.0007	0.0112	-0.0046	104.4
0.0112	-0.0015	0.0127	-0.0046	104.4
0.009	-0.003	0.009	-0.003	104.4
0.0067	0	0.009	0.0007	104.4
0.003	-0.003	0.009	-0.0015	104.2
0	-0.0105	0.009	-0.0046	104.4
0	-0.0105	0.0105	0.0007	104.1
-0.0015	-0.0083	0.0127	0.0015	104.1
-0.0053	-0.0113	0.003	0.0015	104.2
-0.0053	-0.0046	-0.0068	0.0097	103.9
-0.0046	0.009	-0.0105	0.0142	104.1
-0.0068	0.0127	-0.0203	0.0165	103.7
-0.0083	0.0135	-0.0203	0.0142	103.9
-0.0135	0.0105	-0.0181	0.0067	103.8
-0.0203	0.0052	-0.015	-0.0015	103.7
-0.024	0.0007	-0.0091	-0.0068	103.8
-0.0256	-0.0008	-0.0091	-0.0105	103.6
-0.024	-0.0053	-0.0023	-0.0158	103.6
-0.021	-0.0098	0.0007	-0.0218	103.5
-0.0165	-0.0105	-0.0008	-0.0203	103.3
-0.012	-0.0083	0.003	-0.012	103.5
-0.0053	-0.0015	0.0045	-0.0038	103.2
-0.003	0.0007	0.0082	-0.0008	103.4
0.0007	0.003	0.0082	0.0015	103.3
0.0045	0.003	0.009	0.003	103.1
0.0045	0.0007	0.0127	0.0045	103.2
0.009	0.003	0.012	0.006	103
0.0135	0.003	0.0112	0.0045	103
0.0142	0.003	0.012	0.0037	102.7
0.015	0.0037	0.009	0.0067	102.6
0.0142	0.0015	0.0067	0.0082	102.8
0.0127	0.0037	0.0067	0.0105	102.5
0.012	0.0037	0.0045	0.0112	102.6
0.0105	0.003	0.0015	0.0105	102.4
0.0082	0.003	-0.0008	0.0082	102.5
0.006	0.0015	-0.0023	0.0037	102.4
0.0037	0.0015	-0.0015	0.0007	102.3
0.0052	-0.0015	-0.003	-0.003	102.1
0.0067	-0.0023	-0.0046	-0.0068	102.2
0.0037	-0.0023	-0.003	-0.0098	102.1
0.0007	-0.0015	-0.0015	-0.0053	102.2
-0.0053	0	-0.0015	-0.0008	101.8
-0.0091	-0.0015	-0.0015	0.0007	102.1
-0.0113	-0.0023	-0.003	0	101.7
-0.015	-0.003	-0.0038	0	101.9
-0.015	-0.0015	-0.0023	0	101.7
-0.0135	-0.0015	0	-0.0046	101.6
-0.012	-0.0053	0.0015	-0.0105	101.7
-0.0128	-0.0105	0.0067	-0.0158	101.5
-0.012	-0.0158	0.0112	-0.0143	101.5
-0.0083	-0.0091	0.0105	-0.0053	101.4
-0.0053	-0.0008	0.0097	0.0037	101.3
-0.006	0.0037	0.0075	0.0112	101.3
-0.006	0.0067	0.0067	0.0127	101.2
-0.0015	0.006	0.006	0.0097	101.1
0.0015	0.0067	0.0052	0.0097	100.8
0.0022	0.0067	0.0007	0.0075	100.9
-0.0008	0.003	-0.0008	0.0015	100.9
-0.0023	0.0015	-0.0008	-0.0008	100.7
-0.0038	0.0052	-0.0046	0	100.6
-0.0046	0.0067	-0.0068	-0.0015	100.4
-0.0038	0.0015	-0.0053	-0.0038	100.4
-0.0008	0	-0.0053	-0.006	100.5
0.0037	-0.0015	-0.0046	-0.0053	100.1
0.0105	-0.003	-0.0008	-0.0038	100.2
0.015	-0.006	-0.0008	-0.0068	100.2
0.015	-0.0075	0	-0.0053	100
0.0127	-0.0053	0.0007	-0.0038	99.9
0.0105	-0.0023	-0.003	-0.0015	99.7
0.0082	0.0022	-0.0083	0.0045	99.8
0.0075	0.0045	-0.0083	0.0052	99.4
0.0067	0.009	-0.0075	0.0067	99.4
0.0045	0.0075	-0.0075	0.0052	99.2
0.003	0.006	-0.0068	0.0067	99.1
0.0045	0.0067	-0.0083	0.006	99.1
0.0045	0.0015	-0.0091	0.0007	98.8
0.0052	-0.0015	-0.0098	-0.0008	98.9
0.0097	-0.0015	-0.0075	-0.0008	98.7
0.0075	-0.003	-0.0038	-0.0023	98.6
0.0067	-0.0053	-0.0046	-0.003	98.5
0.0075	-0.003	-0.0053	-0.0015	98.2
0.0075	0.0015	-0.0053	0.0015	98.2
0.0105	0.0007	-0.0075	0.0037	98.2
0.0127	0.0022	-0.0083	0.003	97.8
0.0157	-0.0015	-0.0083	0.0015	97.9
0.0157	-0.0038	-0.0068	0.0045	97.6
0.0127	0	-0.0068	0.0067	97.5
0.0105	0.0007	-0.0053	0.0082	97.6
0.0112	0.0022	-0.0008	0.0067	97.2
0.0105	0.0022	0.003	0.003	97.3
0.009	-0.0015	0.0045	0.0015	97
0.0112	-0.003	0.0022	-0.0015	97.1
0.015	-0.0053	0.0022	-0.0091	96.8
0.0165	-0.012	0.003	-0.0195	96.7
0.0172	-0.0158	0.0045	-0.021	96.4
0.018	-0.0158	0.0067	-0.024	96.3
0.0127	-0.0195	0.0082	-0.027	96.3
0.0097	-0.0173	0.006	-0.021	95.9
0.0045	-0.0105	0.0052	-0.0173	95.9
-0.0015	-0.0053	0.0052	-0.012	95.8
-0.0068	0.0067	0.0015	-0.0015	95.7
-0.0158	0.0157	-0.003	0.003	95.6
-0.0195	0.0157	-0.0015	0.0045	95.5
-0.0188	0.0165	-0.0008	0.0075	95.2
-0.0195	0.0157	-0.0015	0.0082	95.3
-0.0165	0.0142	0	0.012	94.9
-0.0143	0.012	0.0045	0.0082	95.1
-0.0165	0.0067	0.0052	0.0045	94.7
-0.0218	0.003	0.0052	0.0045	94.7
-0.021	0.003	0.0052	0.0037	94.7
-0.0203	0.0022	0.0015	0.003	94.3
-0.0158	0	-0.0015	-0.0015	94.4
-0.0143	-0.0023	-0.0008	0	94
-0.0181	-0.0023	0.0022	0.0007	93.9
-0.0173	-0.003	0.0052	0.003	93.9
-0.0181	-0.003	0.006	0.0037	93.6
-0.015	-0.0053	0.0067	0.0007	93.6
-0.0128	-0.0091	0.0067	0	93.4
-0.0135	-0.006	0.0045	0.0015	93.2
-0.012	-0.003	0.0015	0.0015	93.2
-0.0128	-0.0015	0.0022	-0.0015	92.9
-0.0128	0.0007	0.003	-0.0015	92.8
-0.0143	0.0052	0.003	-0.003	92.6
-0.0098	0.0045	0.0022	-0.0046	92.4
-0.0038	0.0015	0.0045	-0.003	92.3
0.0015	0.0007	0.0037	-0.003	92.1
0.0052	-0.0015	0.0022	-0.003	92
0.009	-0.003	0.0015	-0.0015	91.8
0.0097	-0.0008	-0.0008	-0.0008	91.8
0.0105	0.0007	-0.0023	-0.0008	91.5
0.0127	-0.0008	-0.0046	-0.0008	91.4
0.0135	-0.0008	-0.006	-0.0008	91.2
0.012	-0.0008	-0.0083	0.0015	90.9
0.009	-0.0008	-0.0113	0.0045	90.8
0.0075	-0.0008	-0.0113	0.0045	90.6
0.0082	0	-0.0105	0.0022	90.5
0.009	-0.0008	-0.0083	0.0007	90.5
0.009	-0.0015	-0.0053	0.0015	90.2
0.0082	-0.0008	-0.0053	0.0015	90.2
0.0067	-0.0008	-0.0046	0.003	89.9
0.003	0	-0.0046	0.0015	90
0.0007	0	-0.0046	0.0007	89.7
-0.0023	0.0015	-0.0068	0.0015	89.4
-0.003	0.0015	-0.0075	0.0015	89.5
-0.0046	0.0007	-0.0053	0.003	89
-0.0053	-0.0015	-0.0053	0.0007	89.1
-0.0023	-0.0008	-0.0008	0.0007	88.9
0	0.0015	0.003	0.0007	88.7
-0.003	-0.0008	-0.0008	0.0007	88.6
-0.0075	0	-0.0008	0.0015	88.6
-0.0098	0.0007	0.0015	0.0007	88.1
-0.0083	-0.0008	0	0.0007	88.1
-0.0038	-0.0015	0.003	-0.0008	87.8
-0.0008	-0.0023	0.0045	-0.0046	87.7
0.0015	-0.0023	0.0015	-0.0075	87.5
0.003	-0.0008	0.0045	-0.0068	87.4
0.006	-0.0008	0.0052	-0.006	87.2
0.0075	-0.0015	0.0067	-0.0053	86.9
0.0052	0	0.0097	-0.0015	87
0.0015	0	0.009	0.003	86.6
0.0052	-0.0008	0.0105	0.0045	86.7
0.0082	0.0007	0.0045	0.0045	86.3
0.0105	0.0015	0	0.003	86.1
0.0075	0.0007	-0.0038	0.0022	86
0.0037	0	-0.0053	0.0015	85.7
0.0022	-0.0015	-0.0068	0.0015	85.5
0.0022	-0.003	-0.0068	0.0007	85.5
0.0037	-0.0038	-0.0038	-0.0015	85.3
0.003	-0.0038	-0.0068	-0.0015	85.1
0.0007	-0.003	-0.0053	-0.0008	84.9
-0.0046	-0.0023	-0.0083	0.0007	84.6
-0.006	-0.0008	-0.0098	0.0037	84.4
-0.0046	0.0007	-0.0091	0.0052	84.2
-0.0046	0.0007	-0.0091	0.0045	84.1
-0.0038	-0.0008	-0.0046	0.003	83.7
-0.0015	-0.0015	-0.0046	0.003	83.9
-0.0008	-0.0015	-0.0023	0.0022	83.5
-0.0008	-0.0038	0.0022	-0.0015	83.4
0.0007	-0.0068	0.0045	-0.0046	83.2
0.003	-0.0091	0.0082	-0.0068	83.1
0.003	-0.012	0.012	-0.012	82.9
0.0067	-0.015	0.0112	-0.0098	82.8
0.0052	-0.0075	0.006	0.0052	82.4
0.0037	0.006	-0.0008	0.015	82.4
0.0022	0.0075	-0.0015	0.0157	81.9
0.0022	0.0067	-0.0015	0.0157	82
0.003	0.0112	-0.0015	0.0127	81.5
0.003	0.009	0.003	0.0052	81.4
0	0.0015	0.0097	-0.0046	81.3
-0.0015	-0.0023	0.0112	-0.0158	81
-0.0023	-0.003	0.012	-0.0218	80.9
-0.0015	0.0045	0.0067	-0.0158	80.5
-0.0015	0.0082	0.003	-0.0053	80.6
-0.0015	0.0082	0.003	0.0007	80.3
-0.0015	0.0105	0.0015	0.006	80
0	0.0105	0.0007	0.0067	79.7
0	0.0082	-0.003	0.0075	79.7
-0.0023	0.0075	-0.0068	0.0105	79.4
-0.0053	0.006	-0.0075	0.0142	79.2
-0.0068	0.009	-0.0083	0.0172	78.9
-0.0091	0.009	-0.0046	0.0142	78.9
-0.0091	0.0075	-0.0038	0.012	78.6
-0.0105	0.0052	-0.0015	0.0067	78.5
-0.012	0.0015	0	0.003	78.3
-0.0158	-0.0008	0.0015	0.0015	77.9
-0.0165	-0.0015	0.003	0.0007	77.9
-0.0195	-0.0008	0.0022	-0.003	77.4
-0.0158	-0.0046	0.0045	-0.0068	77.5
-0.0105	-0.006	0.006	-0.0091	76.9
-0.0098	-0.0053	0.0067	-0.0091	76.9
-0.0098	-0.0053	0.0045	-0.0091	76.7
-0.0075	-0.0038	0.003	-0.0083	76.4
-0.0068	-0.0046	0	-0.0068	76.3
-0.0046	-0.0053	0.0007	-0.0053	76.2
-0.0008	-0.0053	0.0022	-0.0038	75.8
0.0045	-0.003	0.0015	0	75.7
0.0075	-0.0015	-0.0008	0.0007	75.5
0.009	-0.0015	-0.0015	-0.0008	75.1
0.012	-0.0008	-0.0053	-0.0023	75.1
0.0157	-0.0008	-0.0075	-0.0046	74.8
0.0165	-0.0008	-0.0105	-0.0015	74.6
0.0195	0.0007	-0.012	0	74.2
0.0202	-0.0015	-0.0128	0.0007	74.1
0.0217	-0.003	-0.0158	0.0015	74
0.0255	-0.0015	-0.0173	0.0022	73.6
0.0292	-0.003	-0.0173	0.0015	73.6
0.0307	-0.0046	-0.0195	-0.0038	73.3
0.0307	-0.0046	-0.021	-0.0046	73.1
0.03	-0.0046	-0.0195	-0.0023	73
0.0277	-0.0046	-0.0135	-0.0015	72.6
0.0292	-0.0046	-0.0046	-0.0015	72.6
0.0255	-0.0053	0.0015	-0.0015	72.2
0.0202	-0.0053	0.0037	-0.0023	72.1
0.0157	-0.0015	0.0097	0.0007	71.9
0.0075	-0.0008	0.0112	0.003	71.7
-0.0015	0	0.0105	0.0045	71.5
-0.0128	0.0007	0.009	0.0045	71.2
-0.0195	0.0022	0.0067	0.0052	71.1
-0.0278	0.0052	0.0045	0.0052	70.8
-0.0346	0.0045	-0.0008	0.003	70.7
-0.033	0.0022	-0.0008	0	70.6
-0.0368	0.0015	-0.0015	-0.0008	70.3
-0.039	0.0015	-0.0008	-0.0015	70.2
-0.039	0.0015	0.0015	-0.0008	70
-0.0398	0.0015	0.0007	0.0015	69.7
-0.0353	0.0015	0.0007	0.0007	69.7
-0.03	0.0015	0.0015	0.0022	69.3
-0.024	0.0022	0.003	0.003	69.3
-0.0181	0.0007	0.0015	0.0045	69
-0.0165	0.0015	0.0015	0.0037	68.8
-0.0128	0.0015	0.0007	0.003	68.8
-0.0105	-0.0015	0.0015	0.0007	68.3
-0.0068	-0.0015	0.0007	-0.0008	68.3
-0.0038	-0.0008	0	-0.003	68
-0.0008	-0.003	0.0037	-0.0038	67.7
0.0022	-0.0015	0.003	-0.003	67.6
0.0045	-0.0015	0.0045	-0.0008	67.4
0.0067	-0.0008	0.0007	0	67.1
0.009	0.0007	0.0015	0	67
0.009	0	0.006	-0.0008	66.7
0.012	0.0007	0.0052	0	66.6
0.0142	-0.0008	0.0045	-0.0008	66.3
0.0172	-0.0015	0.0037	-0.0008	66.2
0.018	-0.0008	0.0052	0.0007	65.8
0.0195	0	0.0052	-0.0008	65.6
0.0262	-0.0008	0.0045	-0.0015	65.7
0.0315	-0.0023	0.0067	-0.0015	65.1
0.0345	-0.0008	0.0067	-0.0015	65.2
0.0367	0.0007	0.0082	0.0015	64.8
0.0367	-0.0008	0.0045	0.0015	64.7
0.0322	-0.0008	0.006	0.003	64.7
0.0307	-0.0008	0.0082	-0.0008	64.1
0.0232	-0.003	0.006	-0.003	64.1
0.0165	-0.0046	0.0067	-0.0038	63.9
0.0127	-0.0038	0.0022	-0.0046	63.7
0.0105	-0.003	0.0015	-0.0053	63.5
0.0105	-0.0015	-0.0008	-0.0068	63.3
0.0105	-0.0008	-0.0015	-0.0053	63.1
0.0142	-0.0008	-0.0008	-0.003	62.8
0.0135	0.0015	-0.003	-0.0015	62.6
0.0112	0.0007	-0.0053	-0.0015	62.5
0.0105	-0.0008	-0.0091	-0.0023	62
0.0097	-0.003	-0.0113	-0.0015	62
0.0082	-0.0046	-0.0158	-0.003	61.7
0.0067	-0.0046	-0.0143	-0.0046	61.4
0.003	-0.0046	-0.0105	-0.0053	61.4
-0.0015	-0.0046	-0.0105	-0.0038	61.1
-0.003	-0.0023	-0.0105	-0.0046	61
-0.0075	0.0045	-0.0135	0.0015	60.5
-0.0135	0.0097	-0.0158	0.0067	60.4
-0.0233	0.0157	-0.0195	0.009	60.3
-0.0308	0.0172	-0.0203	0.0112	60.1
-0.0315	0.0165	-0.0181	0.0105	59.8
-0.03	0.015	-0.0181	0.0105	59.7
-0.0263	0.0097	-0.0203	0.0105	59.4
-0.0256	0.003	-0.0203	0.0097	59.4
-0.0225	-0.0038	-0.015	0.006	58.9
-0.024	-0.0083	-0.0105	0.0022	58.9
-0.027	-0.0053	-0.0083	0.0007	58.5
-0.027	0	-0.0046	-0.0008	58.4
-0.0308	-0.0015	0.0007	-0.0038	58.2
-0.0315	-0.0015	0.006	-0.0091	58
-0.0368	-0.0008	0.0075	-0.0105	57.9
-0.039	0.0037	0.009	-0.0091	57.5
-0.0405	0.0097	0.0112	-0.0053	57.3
-0.0383	0.009	0.0105	-0.0038	57
-0.0346	0.0045	0.012	-0.003	56.9
-0.0315	0.0015	0.012	0	56.7
-0.0293	0.0015	0.0112	0	56.5
-0.027	-0.0015	0.009	-0.0008	56.2
-0.0195	-0.0015	0.0075	-0.0015	56.1
-0.0143	-0.0008	0.0082	-0.0053	55.8
-0.0113	-0.003	0.0082	-0.0046	55.7
-0.0053	-0.0015	0.012	-0.0008	55.5
0.0007	-0.0015	0.0105	0.003	55.3
0.0067	-0.0015	0.0067	0.0045	55.1
0.0112	-0.0038	0.0075	0.003	54.7
0.0142	-0.003	0.0067	0.0045	54.7
0.0172	-0.0046	0.0067	0.009	54.4
0.021	-0.0075	0.0075	0.0007	54.2
0.0232	-0.0068	0.0067	-0.0068	54.2
0.0255	-0.0038	0.0067	-0.0083	53.9
0.0255	0.0007	0.003	-0.006	53.6
0.0277	0.0045	0.0015	0.0075	53.5
0.0292	0.0105	0.0007	0.0142	53.3
0.033	0.009	-0.003	0.0082	53.1
0.036	0.0007	-0.0023	0.0067	52.9
0.0345	0	-0.0038	0.0045	52.7
0.033	0	-0.0038	0.0045	52.5
0.0307	-0.0038	-0.0046	0.0045	52.3
0.0307	-0.0038	-0.0053	0.0015	52.2
0.0292	-0.0038	-0.0046	0.0007	51.9
0.0262	-0.0038	-0.0053	-0.0008	52
0.0255	-0.0046	-0.0046	-0.0008	51.7
0.027	-0.0046	-0.003	-0.0008	51.5
0.027	-0.003	-0.0053	-0.0008	51.4
0.0232	-0.003	-0.0053	-0.0015	51.1
0.0157	-0.003	-0.0053	-0.0008	51
0.0105	-0.003	-0.0046	-0.0023	50.8
0.006	-0.0015	-0.0046	-0.0008	50.8
0.0022	-0.0015	-0.006	-0.0008	50.4
-0.003	-0.0038	-0.0053	-0.003	50.4
-0.0068	-0.003	-0.0068	-0.0015	50.2
-0.0105	-0.0008	-0.0068	-0.003	49.9
-0.0143	-0.0008	-0.0046	-0.0015	49.6
-0.015	-0.0008	-0.0023	-0.0008	49.8
-0.0165	-0.0015	0.0007	-0.0023	49.5
-0.021	0.0007	0.0037	-0.003	49.4
-0.0248	0.0015	0.0045	-0.0023	49.2
-0.0278	0.0022	0.0052	0	49.1
-0.0278	0.0045	0.0037	0	49
-0.027	0.0045	0.003	0.0007	48.6
-0.0256	0.0015	0.003	0.0007	48.8
-0.024	0	0.0015	-0.0015	48.5
-0.024	0.0007	0.0022	-0.0015	48.4
