File Name: marcha_2.log
Channel 4: 'Recto Femoral', 43665 values, engineering units: mV, no filters.
Channel 5: 'Biceps Femoral', 43665 values, engineering units: mV, no filters.
Channel 6: 'Vasto Medial', 43665 values, engineering units: mV, no filters.
Channel 7: 'EMG Semitendinoso', 43665 values, engineering units: mV, no filters.
Channel 8: 'Flexo-Extension', 43665 values, engineering units: deg, no filters.

0.0067	-0.021	0.0675	-0.0195	4.7
-0.0053	-0.0368	0.1372	-0.0225	4.9
-0.0053	0.003	0.1365	-0.0143	4.8
-0.0046	0.0082	0.135	-0.003	4.7
-0.0015	0.0127	0.1365	0.0052	4.9
-0.0008	0.012	0.1312	0.012	4.8
0.0015	0.018	0.1305	0.0067	4.7
-0.0008	0.0105	0.1275	0.0105	4.8
-0.0008	0.0052	0.1207	0.0187	4.9
0.0015	0.024	0.1072	0.0082	4.7
0.0007	0.0165	0.09	-0.0135	4.7
0	0.0082	0.0742	-0.0256	4.8
-0.0008	0.0127	0.057	-0.0248	4.8
-0.0015	-0.0023	0.039	-0.0203	4.8
-0.0015	-0.0361	0.0202	-0.0015	4.6
-0.0015	-0.0683	0.0052	0.0195	4.8
-0.0015	-0.0743	-0.0083	-0.0015	4.4
-0.003	-0.042	-0.024	-0.015	4.9
-0.0046	0.003	-0.0368	0.024	4.6
-0.0038	0.0075	-0.0495	0.0367	4.7
-0.0008	0.0157	-0.0638	0.0427	4.6
-0.0015	0.027	-0.0803	0.0352	4.7
-0.0015	0.0165	-0.0998	0.0022	4.6
-0.0008	0.0165	-0.1148	-0.003	4.6
-0.0023	0.0165	-0.1185	0.0112	4.7
-0.0046	0.0232	-0.1058	0.0337	4.8
-0.0091	0.0105	-0.0788	0.024	4.8
-0.0083	0.003	-0.048	0.0157	4.6
-0.0068	0.0007	-0.0135	0.003	4.7
-0.0075	-0.0046	0.0195	-0.0165	4.9
-0.0083	0.0052	0.051	-0.0203	4.6
-0.0098	0.0105	0.0817	-0.0233	4.7
-0.0091	0.018	0.1155	0.0142	4.7
-0.0091	0.0105	0.141	0.0292	4.9
-0.0128	0.0015	0.15	0.0097	4.7
-0.0143	-0.0105	0.1575	-0.0143	4.8
-0.0143	-0.0158	0.1672	-0.033	4.8
-0.0173	-0.0046	0.1702	-0.0173	4.8
-0.0165	0.0007	0.1672	-0.0008	4.8
-0.0158	0.003	0.1672	0.0067	4.7
-0.0165	0	0.171	-0.0008	4.8
-0.0181	0.0045	0.1762	0.0045	4.7
-0.0203	0.0142	0.1882	0.0232	4.7
-0.0203	0.0165	0.201	0.0217	4.9
-0.0195	0.0052	0.2092	0.0142	4.7
-0.0181	-0.0015	0.2137	-0.003	4.7
-0.0143	-0.0015	0.2145	-0.0203	4.7
-0.0128	-0.003	0.21	-0.0203	4.7
-0.0113	-0.0023	0.1987	-0.0046	4.7
-0.0068	-0.0038	0.186	0.003	4.9
-0.003	-0.003	0.1695	0	4.8
-0.0008	-0.0023	0.144	0.0045	4.9
0.0007	-0.0015	0.1155	0.003	4.7
0.0022	-0.0023	0.0892	0.0045	4.9
0.003	-0.003	0.0667	0.0045	4.9
0.003	-0.0023	0.0442	0.0022	5
0.0037	-0.0023	0.0255	0	4.8
0.0045	-0.0015	0.006	-0.0008	5.1
0.0052	-0.0023	-0.0105	0.0007	4.8
0.0045	-0.0008	-0.027	0	5
0.0045	-0.0008	-0.0368	0	4.9
0.003	-0.003	-0.0383	-0.003	5
0.0015	-0.0015	-0.0375	-0.0015	5
0.0015	0	-0.0361	0.0015	4.9
0.0007	-0.0008	-0.0353	0.0007	5.2
-0.003	0	-0.027	0.0075	4.9
-0.0053	0.0075	-0.0188	0.0082	5
-0.0068	0.0045	-0.0143	0.0007	4.9
-0.0075	-0.0008	-0.0091	-0.0015	5.1
-0.006	-0.0008	-0.0068	0.0015	5
-0.003	-0.0008	-0.0091	0.0067	5.3
-0.003	0.0045	-0.0158	0.012	5
-0.0008	0.003	-0.021	0.0105	5.3
-0.0015	0.003	-0.0293	0.0165	5.3
0.003	0.0045	-0.0346	0.0292	5.3
0.0105	0.0015	-0.039	0.0217	4.9
0.0142	-0.0008	-0.0458	-0.003	5.1
0.0165	-0.0053	-0.0495	-0.0308	5.3
0.018	-0.0091	-0.0555	-0.042	5.3
0.0202	-0.0083	-0.0593	-0.0346	5.2
0.018	-0.003	-0.0645	-0.0158	5.2
0.018	-0.0023	-0.0713	-0.0128	5.3
0.021	-0.0008	-0.0803	-0.0105	5.3
0.0195	0.0045	-0.0923	0.003	5.3
0.0202	0.0015	-0.1006	0.0067	5.3
0.0195	0.0045	-0.1028	0.0187	5.3
0.0195	0.0082	-0.1043	0.018	5.3
0.0135	0.0045	-0.1028	0.0015	5.3
0.0082	0.0022	-0.0968	0.0007	5.4
0.0067	-0.0008	-0.0863	-0.0015	5.3
0.003	0.0015	-0.0728	-0.0015	5.4
0.003	0.0015	-0.0623	-0.0046	5.4
-0.003	-0.0023	-0.0533	-0.0098	5.3
-0.0053	-0.0015	-0.0443	-0.0053	5.3
-0.0046	-0.0023	-0.0383	0.0007	5.4
-0.0053	-0.0008	-0.033	0.0067	5.3
-0.006	-0.0008	-0.03	0.0052	5.4
-0.0075	0.0015	-0.033	-0.0023	5.3
-0.0091	0	-0.033	-0.0158	5.4
-0.0105	-0.0046	-0.0368	-0.0158	5.3
-0.0105	-0.003	-0.0428	-0.0158	5.3
-0.0105	-0.0046	-0.0503	-0.0256	5.5
-0.0098	-0.0038	-0.0638	-0.0143	5.3
-0.0068	0	-0.0721	0.003	5.4
-0.0075	0.0022	-0.0743	0.0052	5.2
-0.0091	0.0015	-0.0743	-0.0015	5.5
-0.0091	0.0007	-0.0706	-0.0158	5.2
-0.0091	0.0015	-0.0638	-0.0233	5.3
-0.0075	0.003	-0.0578	-0.0158	5.5
-0.0068	0.0007	-0.0488	-0.0091	5.4
-0.006	0.0015	-0.0398	-0.0075	5.3
-0.0023	0.0052	-0.0353	-0.0068	5.3
-0.0015	0.0052	-0.0346	-0.0023	5.6
-0.0038	0.0067	-0.0315	0.0067	5.3
-0.0023	0.0045	-0.0285	0.0127	5.3
-0.0008	-0.0008	-0.0285	0.0135	5.2
0.0015	-0.0098	-0.0285	-0.003	5.5
-0.0015	-0.0181	-0.0293	-0.024	5.2
-0.0046	-0.012	-0.0293	-0.0278	5.5
-0.0023	-0.0053	-0.027	-0.0098	5.3
-0.0015	0.0007	-0.0248	0.0217	5.3
0.0007	0.0082	-0.0203	0.0367	5.3
-0.0008	0.009	-0.0165	0.0247	5.5
0.0007	0.0097	-0.0128	0.0165	5.3
0.003	0.0142	-0.0046	0.0082	5.3
0.0015	0.0135	0.009	0.0052	5.4
0.0052	0.0082	0.0217	0.0142	5.3
0.0052	0.0045	0.027	0.0075	5.3
0.003	0	0.0337	0.0067	5.3
0.0045	0.0007	0.0405	0.0067	5.5
0.003	0.0007	0.0457	0.003	5.2
0.003	-0.0015	0.045	0.0037	5.2
0.0015	-0.0008	0.0435	0.0015	5.3
0.0022	-0.0015	0.045	0.0022	5.3
0.0022	-0.0023	0.0427	0.0007	5.2
0.003	-0.003	0.0412	0.0015	5.3
0.0015	-0.0053	0.0405	0.0015	5.1
0.0007	-0.0053	0.0435	0.0007	5.1
0.003	-0.0046	0.045	0.0015	5.2
0.003	-0.0046	0.0457	0.0015	5.3
0	-0.0038	0.0427	0.0015	5.2
-0.0008	-0.003	0.0382	0.0007	5.1
-0.003	-0.0015	0.0367	0.003	5.2
-0.003	-0.0015	0.0337	0.0015	5.3
-0.0008	-0.0015	0.0277	0.0015	5
0.0007	-0.003	0.0105	0.0022	5
0.0007	-0.0038	-0.0135	0.0007	5
-0.0008	-0.0038	-0.0248	0.0007	5.2
-0.0015	-0.0053	-0.021	-0.0008	5
0	-0.0046	-0.0203	0	5.1
-0.0008	-0.0015	-0.015	0.0015	5.1
0.0007	0.0015	-0.0113	0.0015	5.2
0.0007	0.0015	-0.0091	-0.003	5.1
-0.0008	-0.0015	-0.006	-0.0068	5.2
-0.0008	-0.0015	-0.0053	-0.0068	5.1
-0.0008	-0.0023	-0.0053	-0.0046	5.2
0	0.0007	-0.0053	-0.003	5.2
0.0007	0.003	-0.003	-0.003	5.3
0.0015	0.0015	0.0007	-0.0015	5.3
0.0015	0.0037	0.0045	-0.0023	5.2
0.0015	0.0015	0.006	-0.0023	5.3
0.0022	0.0015	0.009	-0.0015	4.9
0.0015	0.0022	0.0127	-0.003	5.3
0.0007	0.0007	0.0165	-0.0015	4.9
0.0015	0.0007	0.0195	0.0007	5.3
-0.0008	0.0015	0.0202	0.0015	5
0.0015	0.0015	0.0217	0.003	5.3
0.0007	0.0015	0.0217	0.0022	5.1
-0.0015	0.0007	0.024	0	5.2
-0.0008	0.0015	0.0232	0.0015	5
-0.0015	0.0015	0.024	0.0022	5.1
-0.0015	0.0015	0.0255	0.0015	5.2
0.0007	0.0015	0.0255	0.0022	5.2
-0.0008	0.0022	0.0217	0.0007	5.2
-0.0038	0.003	0.0165	0	5.1
-0.003	0.0007	0.0082	0	5.1
-0.003	0	-0.0008	0	5.1
-0.0053	0.0007	-0.0053	0.0007	5.2
-0.0053	-0.0008	-0.0091	0	5
-0.0046	-0.0015	-0.0105	0.0007	5.1
-0.0008	-0.0023	-0.012	0.0007	5.1
0.0007	-0.0015	-0.0128	0.003	5
0.0007	0.0007	-0.0143	0.0015	5.2
0.0007	0	-0.0173	-0.0008	5
0	0.0007	-0.0181	-0.0015	5.1
-0.003	0.0015	-0.0165	-0.0068	5
-0.006	0.003	-0.0143	-0.0068	5.2
-0.0053	0.0015	-0.0128	-0.0068	5
-0.0046	0	-0.012	-0.0068	4.9
-0.0038	0	-0.0091	-0.0046	5.1
-0.0023	0.0007	-0.0083	-0.003	5.1
-0.0023	0.0022	-0.0068	-0.0046	5.2
-0.003	0.0007	-0.0068	-0.0046	5.1
-0.0008	0	-0.0083	-0.0046	5.2
0.0007	-0.0008	-0.0098	-0.003	5.1
-0.0015	0	-0.0091	-0.0038	5.1
-0.0008	0.0007	-0.0083	-0.0015	5.1
-0.0008	0.0007	-0.0105	-0.003	5.3
-0.0023	-0.0008	-0.0128	-0.0015	5
0.0015	0.0007	-0.0143	0.0007	5.2
0.003	0	-0.0165	-0.0008	5.1
0.0037	-0.0008	-0.0203	0.0007	5.2
0.0045	0.0007	-0.0233	0	5.2
0.0037	0.0015	-0.0256	0.0015	5.2
0.003	0.0015	-0.0293	0.003	5.3
0	0.0022	-0.033	0.003	5.3
-0.0008	0.0022	-0.033	0.003	5.3
0.0007	0	-0.0346	0.003	5.1
-0.0008	-0.0008	-0.033	0.0015	5.3
0	0	-0.0315	0.0015	5.3
0.0015	0.0007	-0.03	0.0045	5.3
0.0015	0.0015	-0.0263	0.0037	5.2
0.0007	0.0007	-0.0233	0.0015	5.5
0.0022	0.0007	-0.0218	0.0015	5.2
0.0022	0	-0.0203	0.0015	5.5
0.0007	0.0007	-0.0188	-0.0008	5.3
-0.0008	-0.0008	-0.0143	-0.0015	5.5
-0.003	0.0007	-0.0091	-0.0008	5.3
-0.0053	0.0007	-0.0068	0.0007	5.6
-0.0053	0.0007	-0.003	-0.0008	5.5
-0.0015	-0.0015	0.0015	0.0007	5.6
-0.0008	-0.0015	0.0037	0.0015	5.7
-0.0015	-0.0008	0.0052	0.0015	5.6
-0.0053	-0.003	0.003	0.0022	5.8
-0.0143	-0.003	0	0.0015	5.5
-0.0128	-0.003	-0.003	0.0015	5.8
-0.0075	-0.0023	-0.0075	0.0015	5.6
-0.0083	-0.0008	-0.0105	0.0015	5.8
-0.0053	-0.0015	-0.012	0.0007	5.7
-0.0053	-0.0008	-0.0143	-0.0008	5.8
-0.0053	-0.0008	-0.0181	0.0007	5.8
-0.0038	-0.0008	-0.0195	0.0007	5.8
-0.003	-0.0008	-0.024	0.0007	6
-0.0015	0.0015	-0.0293	-0.0015	5.8
0.0015	0.0022	-0.0293	-0.0008	5.8
0.0007	0.0022	-0.0308	0.0015	6
0.0007	0.0037	-0.0308	0.0015	6.1
0.0015	0.0045	-0.03	0	5.8
0.0015	0.0037	-0.027	-0.0008	6.1
0.0037	0.003	-0.0225	0	6.1
0.0052	0.0022	-0.0188	0.0007	6.2
0.0037	0.003	-0.0143	0.0007	6.3
0.0015	0.0045	-0.0128	0.003	6.1
0.0015	0.0037	-0.012	0.0045	6.3
0.003	0.0045	-0.0091	0.0045	6.2
0.0045	0.006	-0.006	0.0037	6.5
0.0022	0.0037	-0.0023	0.0052	6.4
0.0052	0.0037	0	0.0052	6.6
0.0052	0.0022	0.003	0.0052	6.4
0.0045	0.0015	0.0082	0.0052	6.7
0.0045	0.0037	0.0135	0.0045	6.7
0.0022	0.0015	0.018	0.003	6.6
0.0022	0.0015	0.0232	0.0037	6.6
0.0022	0.0007	0.027	0.0022	6.9
0.0007	0.0007	0.0307	0.0007	6.8
0.0007	0	0.033	0.0015	6.8
-0.0015	-0.0008	0.0322	0.0015	6.9
-0.0008	-0.0023	0.0315	0.003	6.9
-0.0008	-0.0038	0.0337	0.003	7.1
-0.003	-0.0023	0.0367	0.0015	6.8
-0.003	-0.0023	0.036	0.0015	7.1
-0.0023	-0.0023	0.0345	0.0015	7
-0.0023	-0.0008	0.0337	0.0007	7.2
-0.0053	-0.0015	0.0352	0	7
-0.0083	-0.003	0.039	0	7.3
-0.0068	-0.0046	0.0412	-0.0008	7.2
-0.0068	-0.003	0.0442	-0.0008	7.5
-0.0068	-0.003	0.0495	-0.0008	7.4
-0.0038	-0.003	0.0532	0	7.5
-0.0046	-0.003	0.057	0	7.3
-0.0046	-0.003	0.0615	0	7.4
0.0007	-0.0023	0.063	-0.0008	7.7
0.0007	-0.0023	0.0652	-0.0008	7.6
-0.0008	-0.0015	0.0637	-0.0008	7.8
0.0015	-0.0015	0.0615	-0.0015	7.6
0.0022	-0.0015	0.0607	-0.0008	7.8
0.003	-0.0015	0.057	-0.0015	7.8
0.0015	-0.0008	0.0495	-0.0015	7.8
0.0007	-0.0008	0.0442	-0.0015	7.8
0.0015	0.0007	0.0397	-0.0008	8.1
0.003	0.0015	0.0337	-0.0008	8
0.0045	0.0022	0.027	0	8.1
0.0045	0.0015	0.0232	0.0015	8.1
0.003	0	0.018	0.0007	8.2
-0.0008	0.0015	0.0157	-0.0015	8.3
-0.0046	0.0015	0.0142	-0.0008	8.3
-0.003	0.0015	0.0097	0.0007	8.5
-0.0015	0.0007	0.0082	-0.0008	8.3
-0.0015	-0.0008	0.009	-0.0008	8.7
0.0007	0.0007	0.0067	0.0007	8.6
0.0045	-0.0008	0.0045	0.0007	8.7
0.0007	-0.0008	0.0015	0	8.7
-0.003	-0.0008	-0.0038	0.0007	8.8
-0.0046	-0.0008	-0.0091	0.003	8.9
-0.0046	-0.0015	-0.012	0.0052	8.9
-0.0015	-0.0008	-0.0135	0.0045	8.9
-0.0008	0.0007	-0.0158	0.003	9.1
0.0007	0	-0.0173	0.0007	9.1
0.0015	-0.0008	-0.0165	0	9.2
0	0	-0.0181	0	9.4
-0.0015	-0.0008	-0.0203	-0.0015	9.3
0	-0.0008	-0.0218	-0.0015	9.4
0.0015	0.0007	-0.0233	-0.0008	9.5
0.0007	0.0007	-0.0248	0.0007	9.6
0.0007	-0.0008	-0.027	0.0015	9.5
0.0022	-0.0015	-0.0293	0.0007	9.6
0.0007	-0.0015	-0.0308	0.0007	9.9
-0.0015	-0.0008	-0.0323	0.0007	9.8
-0.0023	-0.0015	-0.0315	0.0015	10
-0.0008	-0.003	-0.033	0.0007	10
-0.0015	-0.0008	-0.0346	0	10.2
-0.0015	-0.0015	-0.0308	-0.0008	10.3
0	-0.0015	-0.0248	-0.0008	10.4
0	-0.0008	-0.0165	-0.0008	10.3
0.0007	0.0007	-0.0075	0	10.6
0.0007	0.0007	0.0015	0.0007	10.6
0	0.0015	0.009	0	10.7
-0.0008	0.0015	0.015	-0.0008	10.7
0	-0.0008	0.0165	-0.0023	10.7
0.003	-0.0008	0.0172	-0.0015	10.9
0.0022	0.0007	0.0187	0	11
-0.0008	0.003	0.0157	-0.0008	11.2
0	0.0037	0.0135	0.0007	11.2
0.0015	0.0045	0.0082	0.0007	11.4
0.003	0.0052	0.0022	-0.0008	11.3
0.003	0.0037	-0.0015	0	11.6
0.0022	0.0037	-0.0053	0.0007	11.5
0.0007	0.0015	-0.0083	0	11.7
0	0.0022	-0.0128	0.0007	11.7
-0.0008	0.003	-0.0173	0.0022	12
-0.003	0.0015	-0.021	0.0015	11.9
-0.0023	0.0015	-0.0248	0	12.1
-0.003	-0.0008	-0.027	-0.0008	12.4
-0.0046	0.0007	-0.0308	0	12.6
-0.0068	0.0007	-0.0338	0.0007	12.6
-0.006	-0.0008	-0.0368	0.0015	12.6
-0.003	-0.0008	-0.0368	0.0037	12.9
-0.0015	0.0007	-0.033	0.003	12.8
0.0007	0.0015	-0.0293	0.0015	13.3
-0.0008	-0.0008	-0.024	0.0015	13.2
-0.003	-0.0008	-0.0165	0.0015	13.3
-0.0053	0.0007	-0.0075	-0.0008	13.5
-0.0083	-0.0008	0.0015	-0.0015	13.7
-0.006	-0.0008	0.012	0.0007	13.9
-0.003	0.0007	0.0217	0	13.9
-0.0015	0	0.03	-0.003	14.2
-0.0008	0.0022	0.033	-0.0038	14.2
-0.0008	0.0015	0.0352	-0.0046	14.4
0.0007	-0.0015	0.0382	-0.0053	14.4
-0.0015	0	0.042	-0.0023	14.6
-0.0008	0.0015	0.048	-0.0023	14.8
0.0015	-0.0015	0.051	-0.0023	15
0.0007	-0.0015	0.0555	-0.0023	15.1
0.0022	-0.0008	0.06	-0.0023	15.3
0.0022	-0.0015	0.063	-0.0015	15.4
0.0015	-0.0008	0.0735	-0.0015	15.6
0.003	0	0.0802	-0.0015	15.7
0.0082	-0.0008	0.0825	-0.0015	16.1
0.0127	-0.0023	0.0862	-0.0023	16.2
0.0097	-0.0008	0.09	0.0007	16.2
0.0052	0.0007	0.0975	0.0015	16.6
0.0045	0.0007	0.0997	0.0007	16.5
0	0.0007	0.0967	0.0015	16.8
0.0015	0.0007	0.0892	0.0015	17
0.003	0	0.0772	0.0022	17.1
-0.0008	0.0007	0.0675	0.0022	17.3
-0.0023	0.0007	0.057	0.003	17.3
-0.0008	0.0007	0.0495	0.0022	17.6
-0.0023	0.003	0.039	0.0022	17.8
-0.003	0.0007	0.0277	0.0015	17.9
-0.003	0.0007	0.0217	0.003	18.1
-0.003	-0.0008	0.0135	0.0052	18.6
-0.0038	0	0.0067	0.003	18.5
-0.003	0.0007	-0.0008	0.003	18.9
-0.0038	0	-0.0053	0.0037	18.8
-0.003	0.0015	-0.0083	0.0052	19.2
-0.0015	0.0015	-0.012	0.0045	19.3
-0.0015	0.0007	-0.0128	0.0015	19.8
-0.0023	0.003	-0.015	0.003	19.8
-0.0008	0.0022	-0.015	0.0052	20.1
0.0007	0.003	0.0097	0.006	20.4
-0.0008	0.003	0.0855	0.003	20.6
-0.0038	0.0015	0.1882	0	21
-0.0053	0.0037	0.2647	0.0007	21
-0.006	0.0037	0.309	0.0015	21.4
-0.006	0.003	0.3345	0.0045	21.4
-0.0046	0.003	0.3427	0.0052	21.9
-0.0046	0.0022	0.327	0.0037	21.9
-0.0023	0.0015	0.288	0.0007	22.5
-0.0015	0.0015	0.2265	-0.0008	22.5
-0.0008	0.0007	0.1485	0.0015	22.9
-0.0015	0.0007	0.063	0.0022	23
0	0.0015	-0.0323	0.0015	23.3
-0.0015	0	-0.1275	0.0022	23.6
-0.0068	0	-0.2026	0.0037	24.1
-0.0038	0.0015	-0.2505	0.0022	24.1
-0.0053	0.0007	-0.2851	-0.0015	24.4
-0.0053	0	-0.318	-0.0053	24.7
-0.003	0.0007	-0.3428	-0.0053	24.8
-0.0015	0.0015	-0.3548	-0.0053	25.4
0.0067	0.0015	-0.3713	-0.0053	25.5
0.0052	-0.0008	-0.3953	-0.0098	26
0.0045	-0.0015	-0.4043	-0.0105	26.1
0.0052	-0.0015	-0.4081	-0.0068	26.4
0.0037	-0.0015	-0.4193	-0.0053	26.7
0.0067	0	-0.4013	-0.003	26.9
0.0052	0.0007	-0.3713	-0.0023	27.2
0.003	0.0007	-0.3443	-0.0038	27.3
0.0007	0.0015	-0.324	-0.0046	27.8
0.0007	0.0015	-0.3113	-0.003	27.9
0.0015	0.0007	-0.2881	-0.0015	28.3
0.0037	0.0007	-0.2693	-0.003	28.5
0.009	0.0007	-0.2445	-0.0015	28.9
0.0105	0.0007	-0.2213	-0.0008	29
0.009	-0.0008	-0.207	-0.0008	29.4
0.009	-0.0023	-0.1965	0	29.6
0.009	-0.0023	-0.1845	0.0007	29.7
0.0105	-0.0038	-0.1643	0.0007	30.1
0.009	-0.003	-0.1418	-0.0015	30.2
0.0075	-0.0015	-0.1178	-0.0023	30.7
0.0067	-0.0023	-0.0953	-0.0015	30.8
0.0075	-0.0015	-0.0765	-0.0015	31
0.0135	0.0007	-0.057	-0.0023	31.2
0.0157	0.0007	-0.0263	-0.0015	31.6
0.012	-0.0008	0.024	0.0015	31.7
0.0082	0.0015	0.084	0.0015	31.9
0.0022	0.0015	0.1027	-0.0008	32.2
-0.0015	0.003	0.0727	0.0007	32.3
-0.0046	0.0045	0.0307	0.0015	32.7
-0.006	0.003	-0.021	-0.0008	32.7
-0.0046	0.0022	-0.0691	-0.0046	33
-0.0158	0.0015	-0.1103	-0.003	33.1
-0.0293	0.0015	-0.1418	-0.003	33.5
-0.0361	0.0015	-0.126	-0.0038	33.5
-0.024	0.0022	-0.0856	0.0015	33.9
0	0.003	-0.033	0.0067	33.9
0.0172	0.003	0.0255	0.0067	34.3
0.0232	0.0015	0.0772	-0.0008	34.2
0.009	-0.0008	0.1297	-0.0113	34.7
-0.0053	-0.0038	0.18	-0.0181	34.6
-0.012	-0.003	0.2325	-0.0195	35
-0.0203	0.0007	0.2767	-0.0158	35.1
-0.0165	0.0022	0.3112	0.0045	35.3
-0.0053	0.0105	0.3322	0.0187	35.5
-0.0068	0.0165	0.3435	0.0105	35.5
-0.0128	0.012	0.348	-0.0008	35.6
-0.0135	0.0067	0.3442	-0.0008	35.9
-0.0113	0.006	0.3285	0.003	36.1
-0.0105	0.0045	0.3105	0.003	36
-0.0046	0.0007	0.294	0.006	36.4
0.0015	-0.0015	0.2632	0.009	36.3
-0.0008	-0.0068	0.2332	0.0112	36.7
-0.0053	-0.0083	0.1995	0.0127	36.6
-0.006	-0.0113	0.1672	0.009	36.9
-0.0046	-0.0128	0.1462	0.003	36.8
-0.0105	-0.0158	0.1327	-0.0038	37.3
-0.015	-0.0165	0.1252	-0.0053	37.3
-0.0218	-0.0165	0.1162	-0.0038	37.4
-0.027	-0.0195	0.1027	-0.0015	37.5
-0.0263	-0.0181	0.0847	0.0015	37.6
-0.0233	-0.0173	0.066	0.0037	38
-0.0143	-0.0173	0.0495	0.0067	38
-0.012	-0.0135	0.039	0.006	38.2
-0.0113	-0.0135	0.0345	-0.0053	38.4
-0.006	-0.012	0.0352	-0.0128	38.6
-0.0008	-0.0053	0.0367	-0.0046	38.7
0.0007	-0.0038	0.0307	-0.003	39
0.0007	-0.0046	0.03	-0.0053	39.1
-0.003	-0.0008	0.0277	0.0022	39.3
-0.0105	0.0022	0.0247	0.0045	39.6
-0.0173	0.0037	0.0345	0.0067	39.9
-0.0315	0.0037	0.0405	0	40
-0.0413	0.0022	0.036	-0.0053	40.2
-0.0465	0.0045	0.0285	0.0007	40.5
-0.0668	0.0052	0.0195	0.0015	40.6
-0.0691	0.0045	0.0007	0.0015	40.8
-0.0405	0.0052	-0.0308	0.0007	41.2
-0.0256	0.0052	-0.0555	0.003	41.4
-0.0128	0.0037	-0.0653	0.0045	41.8
-0.003	0.0045	-0.054	0.0052	42
-0.0068	0.0045	-0.0293	0.0067	42.3
-0.0075	0.0045	0.0037	0.0067	42.5
-0.0015	0.0037	0.0397	0.006	42.8
0.0037	0.0037	0.069	0.0052	43.1
0.0015	0.0045	0.0705	0.0075	43.4
0.009	0.0052	0.0532	0.009	43.7
0.0157	0.0045	0.042	0.0082	44.1
0.018	0.0045	0.0337	0.0082	44.4
0.018	0.0045	0.0277	0.0052	44.8
0.0187	0.0037	0.0157	0.0067	44.8
0.0195	0.003	0.0157	0.0082	45.5
0.012	0.003	0.0315	0.0067	45.7
0.009	0.003	0.0382	0.0082	46.1
0.012	0	0.0345	0.0082	46.3
0.012	0.0015	0.042	0.0067	46.7
0.0172	0.003	0.0622	0.0075	47.1
0.024	0.0015	0.075	0.009	47.1
0.0255	0.0015	0.06	0.009	47.6
0.0262	0.0022	0.0345	0.009	47.7
0.024	0.0015	0.0165	0.0097	48.1
0.0217	0.0022	-0.0105	0.0082	48.1
0.024	0.0022	-0.0436	0.0075	48.6
0.0247	0.0022	-0.075	0.0067	48.6
0.0277	0.003	-0.099	0.0082	49
0.0307	0.003	-0.114	0.0082	49.1
0.0277	0.0045	-0.1388	0.0067	49.4
0.0277	0.0037	-0.1928	0.0075	49.7
0.0277	0.0022	-0.2505	0.0045	49.9
0.03	0.0007	-0.2798	0.0052	50.1
0.03	0.0015	-0.2873	0.006	50.4
0.0322	0.0022	-0.291	0.0052	50.8
0.0337	0.0015	-0.303	0.0067	50.8
0.0285	0.003	-0.3203	0.0067	51
0.0232	0.0037	-0.324	0.0067	51.2
0.021	0.003	-0.3293	0.0052	51.3
0.0232	0.0022	-0.3233	0.0015	51.5
0.0217	0.0007	-0.2693	-0.0015	51.7
0.0217	0.0007	-0.222	-0.003	51.9
0.0225	0.0022	-0.186	-0.0038	51.9
0.0225	0.0015	-0.1365	-0.0046	52.1
0.0217	0.0015	-0.0758	-0.0046	52.4
0.0195	0.003	-0.0218	-0.0046	52.5
0.018	0.003	-0.0075	-0.0046	52.5
0.0067	0.0022	0.0067	-0.0068	52.8
-0.0023	0.0007	0.048	-0.0068	53.1
-0.0053	0	0.0817	-0.0091	53.1
-0.0105	0	0.1237	-0.012	53.3
-0.0075	0.0022	0.1702	-0.0113	53.4
-0.0068	0.0015	0.2115	-0.012	53.6
-0.0053	0.0015	0.2445	-0.0128	53.6
-0.0053	0.0015	0.2557	-0.0128	53.8
-0.003	0	0.267	-0.0128	53.8
-0.0015	0.0015	0.2842	-0.0135	54.2
-0.0046	0.0007	0.2872	-0.015	54.2
-0.003	0	0.2655	-0.0158	54.4
-0.0008	0.0015	0.2422	-0.0181	54.4
0.0007	0.0015	0.2145	-0.0188	54.8
0.0015	0.0015	0.186	-0.0173	54.5
0.0067	0.0015	0.1575	-0.0158	54.9
0.0105	0.0015	0.1387	-0.0143	54.9
0.009	0.0007	0.1245	-0.0158	54.8
0.0105	0	0.1155	-0.0128	54.9
0.0112	0.0015	0.0952	-0.0143	54.9
0.0142	0.0007	0.0675	-0.015	55.1
0.0127	0	0.0615	-0.0128	55
0.0105	0.0015	0.033	-0.0128	55.4
0.009	-0.0008	0.0127	-0.012	55.2
0.0067	-0.0023	-0.0113	-0.012	55.6
0.006	-0.0015	-0.0675	-0.012	55.3
0.0052	-0.0023	-0.0908	-0.0083	55.6
0.009	-0.0008	-0.093	-0.0083	55.4
0.0082	-0.003	-0.1065	-0.0083	55.7
0.0052	-0.0015	-0.1013	-0.006	55.6
0.003	-0.0008	-0.0818	-0.0053	55.8
0.003	-0.0008	-0.0713	-0.003	55.4
0.006	0.0007	-0.0856	-0.0015	55.8
0.0022	0.0007	-0.1035	0.0007	55.8
0.003	0	-0.1065	0.0045	55.8
0.0007	0.0007	-0.129	0.0052	55.9
0.003	0.0007	-0.1253	0.0082	55.9
0.0067	0.0015	-0.0608	0.0105	56.1
0.0067	0.0022	0.0322	0.0112	56.1
0.006	0.0015	0.123	0.012	56.2
0.0022	0	0.1012	0.0112	56
-0.0023	0.0007	-0.0293	0.0105	56.1
-0.0053	0.0007	-0.0458	0.0105	56.1
-0.0075	0.0022	0.0742	0.0082	56.2
-0.0158	0.0015	0.1102	0.0067	56.2
-0.0248	0.0007	-0.0503	0.0052	56.2
-0.0256	-0.0008	-0.2138	0	56.4
-0.0263	-0.0008	-0.2745	-0.003	56.4
-0.024	0.0007	-0.183	-0.0046	56.4
-0.024	0	-0.0256	-0.0053	56.5
-0.0233	0.0022	-0.0083	-0.0083	56.5
-0.0248	0.0007	-0.0405	-0.0113	56.5
-0.0233	-0.0008	-0.078	-0.0128	56.5
-0.0195	-0.0008	-0.081	-0.0143	56.5
-0.0158	-0.0008	-0.06	-0.0165	56.4
-0.0128	0.0007	-0.0495	-0.0188	56.6
-0.0143	0.0007	-0.0458	-0.0203	56.5
-0.012	0.0007	-0.0511	-0.0203	56.5
-0.0075	0	-0.0361	-0.0218	56.6
-0.006	0.0015	-0.0465	-0.0233	56.7
-0.0015	0.0007	-0.0668	-0.0233	56.6
0.0015	-0.0008	-0.0743	-0.024	56.7
0.0015	0	-0.0788	-0.0233	56.5
-0.0023	-0.0008	-0.0983	-0.021	56.7
-0.0008	-0.0023	-0.1058	-0.0135	56.6
0.0037	-0.003	-0.0908	-0.006	56.6
0.0045	-0.0023	-0.0691	-0.0091	56.4
0	-0.0015	-0.0383	-0.012	56.3
-0.0046	-0.0015	-0.0181	-0.0098	56.7
-0.0038	-0.0023	0.012	-0.0105	56.4
-0.0023	0	0.0592	-0.0091	56.6
-0.0008	-0.0008	0.099	-0.0068	56.2
0.0007	0.0015	0.1005	-0.0023	56.5
0.0015	0.003	0.1042	0.009	56.2
-0.0008	0.0022	0.12	0.0577	56.4
-0.0023	0.0022	0.1177	0.0915	56.2
-0.0008	0.0007	0.1087	0.0577	56.2
0.0067	0.0007	0.108	0.0405	55.9
0.0127	0.0015	0.117	0.0352	56
0.0082	0.0015	0.1125	0.021	55.8
0.0045	0.0015	0.1012	0.0217	55.7
0.0015	0.0015	0.078	0.0105	55.7
0.0037	0.0015	0.0592	0.0105	55.6
0.0045	0.0015	0.054	0.009	55.6
-0.0023	0	0.0382	0.0015	55.1
-0.0053	-0.0023	-0.0053	0.009	55.4
-0.0053	-0.0023	-0.0443	0.0195	54.9
-0.0038	-0.0023	-0.0525	0.0217	55.2
-0.0008	-0.0015	-0.0691	0.0127	54.8
0.0015	-0.0015	-0.0803	0.012	54.9
0.003	-0.0015	-0.0953	0.0082	54.5
0.003	-0.0008	-0.1155	0.0052	54.5
0.0045	-0.0008	-0.129	0.0045	54.4
0.003	-0.0008	-0.1298	-0.003	54.2
0.0015	-0.0015	-0.12	-0.0075	54.2
0	-0.0015	-0.123	-0.0113	53.9
0	-0.0023	-0.1043	-0.0083	53.9
-0.0008	-0.003	-0.0668	-0.0023	53.7
-0.0046	-0.0015	-0.0405	0.012	53.5
-0.0075	0.0045	-0.0195	0.027	53.4
-0.0105	0.012	0.0172	0.0322	53.3
-0.0113	0.009	0.0352	0.0217	53.1
-0.012	0.0015	0.0465	-0.0008	52.8
-0.0105	-0.0008	0.069	-0.0046	52.8
-0.0075	-0.0015	0.084	-0.0046	52.5
-0.0091	-0.0015	0.1155	-0.0046	52.3
-0.0105	-0.003	0.1215	-0.0008	52.1
-0.0091	-0.0038	0.1192	0.0015	52.2
-0.015	-0.003	0.135	0.0007	51.7
-0.0143	-0.003	0.1447	-0.0015	51.8
-0.0105	-0.0008	0.1402	-0.0023	51.5
-0.0128	0.0007	0.1237	-0.0023	51.5
-0.015	0	0.126	-0.0046	51.1
-0.021	-0.0015	0.1417	-0.0046	50.9
-0.024	-0.0008	0.1462	-0.0053	50.8
-0.0225	-0.0008	0.1372	-0.0068	50.5
-0.0233	-0.0015	0.1372	-0.006	50.5
-0.0203	-0.0023	0.1365	-0.0053	50.1
-0.0188	-0.003	0.1252	-0.003	50.2
-0.0158	-0.003	0.1132	-0.003	49.7
-0.0158	-0.0023	0.0952	-0.0015	49.6
-0.0181	-0.0023	0.0802	0	49.3
-0.0143	-0.003	0.0637	0.0007	49.1
-0.0128	-0.0015	0.0495	-0.0008	48.8
-0.0105	-0.0008	0.0345	-0.0008	48.8
-0.0083	-0.0008	0.0247	0.0015	48.4
-0.003	-0.0008	0.0225	0.003	48.3
-0.0015	-0.0008	0.018	0.0045	48
-0.0015	-0.0015	0.0097	0.0052	47.9
-0.0046	-0.0008	0	0.003	47.6
-0.0075	0.0015	-0.0068	0.003	47.3
-0.0083	0.0022	-0.0143	0.0045	47.1
-0.0083	0.0007	-0.0218	0.003	46.9
-0.0068	0.0015	-0.027	0.0037	46.6
-0.0053	0.0015	-0.0315	0.0045	46.3
-0.0038	0.0007	-0.033	0.0052	46.1
-0.0046	0.0007	-0.0361	0.0045	45.9
-0.006	0.0007	-0.039	0.0045	45.6
-0.0046	0.0037	-0.0405	0.0052	45.6
-0.003	0.003	-0.0458	0.0037	45.2
-0.003	0.0015	-0.048	0.0037	45.1
-0.0023	0.0015	-0.0465	0.0045	44.6
-0.0023	0.003	-0.0495	0.0052	44.6
0	0.0015	-0.048	0.0052	44.1
0.0022	0.0015	-0.0458	0.0045	43.9
0.0052	0.0015	-0.0413	0.0045	43.7
0.015	0.003	-0.0353	0.006	43.4
0.0195	0.0045	-0.0285	0.0082	43.3
0.0142	0.0045	-0.0203	0.0075	42.9
0.0127	0.003	-0.0181	0.0052	42.8
0.009	0.0015	-0.0195	0.006	42.4
0.0052	0.0015	-0.0218	0.0082	42.2
0.0045	0	-0.027	0.0075	41.9
0.0067	-0.0023	-0.033	0.0067	41.6
0.0075	-0.0008	-0.042	0.0045	41.2
0.003	-0.0015	-0.0495	-0.003	41.2
0.0015	-0.0038	-0.0503	-0.0233	40.8
0.0015	-0.0023	-0.0488	-0.0346	40.6
-0.0008	0.0037	-0.0458	-0.0165	40.1
0.0007	0.0045	-0.0413	0.0022	40
0	0.0015	-0.0368	0.0022	39.6
0	0.0007	-0.0458	-0.0015	39.3
-0.0008	-0.0023	-0.0518	-0.0075	39
-0.0038	-0.003	-0.033	-0.0053	38.6
-0.0008	-0.0015	-0.0256	0	38.5
-0.0008	-0.003	-0.024	-0.0053	38.2
-0.0008	0.0007	-0.027	-0.003	38
-0.0008	0.0067	-0.0353	-0.0015	37.6
-0.0015	0.006	-0.0135	0.0007	37.3
-0.0008	0.0052	0.0015	0.0007	37.1
0	0.0015	-0.006	-0.0038	36.6
0.0015	0.0007	-0.0248	0.0037	36.3
-0.0008	0.0015	-0.0428	0.015	35.9
0	0.003	-0.0375	0.0255	35.8
0.0015	0.0082	-0.0195	0.0247	35.3
-0.0008	0.0052	-0.0015	0.0195	35.2
0.0007	0.0015	0.009	0.0195	34.9
0.0037	-0.0015	0.0112	0.0112	34.5
0.0045	-0.0053	0.0142	0.0082	34.3
0.003	-0.0075	0.0285	0.0165	33.8
0.0007	-0.0105	0.0382	-0.027	33.5
0.0007	-0.0143	0.0397	-0.0968	33
0.0015	-0.0083	0.0375	-0.078	32.8
0.0007	0.003	0.0322	-0.039	32.3
-0.003	0.009	0.0285	-0.0278	32.2
-0.003	0.0165	0.0127	0.0045	31.7
-0.0015	0.0112	-0.024	0.0052	31.4
-0.0015	0.0037	-0.0495	-0.0008	30.7
-0.0023	0.006	-0.0563	0.0007	30.7
-0.0008	0.0045	-0.0668	-0.0046	30.1
0	0.0007	-0.0728	0.0022	29.9
-0.0015	0.0007	-0.0743	0.0142	29.5
0	0.003	-0.0706	0.042	29.2
0.0007	0.0037	-0.0713	0.0547	28.8
-0.0015	0.0007	-0.0706	0.0427	28.4
-0.0046	-0.0053	-0.0668	0.0195	28.3
-0.0046	-0.012	-0.0638	-0.033	27.8
-0.0046	-0.0195	-0.0465	-0.1193	27.6
-0.0046	-0.0158	-0.0405	-0.1373	27.3
-0.0015	0.0097	-0.0361	-0.0165	27.1
-0.0008	0.024	-0.0233	0.0525	26.7
0.0007	0.0195	-0.012	0.0255	26.4
0.0015	0.012	-0.0015	0.0082	26.2
0.0015	-0.0008	0.0037	-0.042	25.8
0.0007	-0.0091	0.0075	-0.0968	25.6
0	-0.0143	0.0112	-0.1073	25.1
-0.0008	-0.0038	0.0195	-0.0256	25
-0.0015	0.0045	0.0195	0.0105	24.4
-0.0008	-0.0008	0.0232	-0.0278	24.2
-0.0008	0.0007	0.0195	-0.0008	23.9
-0.0008	-0.0023	0.0097	-0.006	23.6
-0.0008	-0.0015	0.0142	0.0045	23.4
-0.0008	-0.0008	0.0112	0.027	23
-0.0023	0	0.0157	0.027	22.6
-0.0015	0.0007	0.0232	0.0405	22.4
-0.0008	-0.0008	0.024	0.039	22.1
-0.0008	0	0.0255	0.048	21.8
-0.0008	-0.0015	0.0277	0.0397	21.6
-0.0008	-0.0015	0.033	0.039	21
-0.0008	-0.003	0.039	0.0262	20.8
-0.0008	-0.006	0.0405	0.003	20.3
0.0015	-0.0083	0.045	0.012	20.3
0.0022	-0.0068	0.0502	0.033	19.7
0.003	-0.0053	0.057	0.039	19.6
0.0015	-0.0053	0.0615	0.0322	19.3
0.0015	-0.0053	0.0675	0.0345	19.1
0.003	-0.0083	0.0742	0.0277	18.7
0.0015	-0.0053	0.078	0.0292	18.4
0.0037	-0.0053	0.078	0.0307	18.2
0.0052	-0.0023	0.078	0.0307	17.8
0.0037	0.0007	0.0795	0.0345	17.6
0.006	0.0045	0.081	0.0292	17.2
0.0045	0.0045	0.0825	0.0217	16.9
0.003	0.0007	0.0862	0.012	16.6
0.0015	0.0007	0.0847	0.0075	16.2
0.0007	-0.0015	0.0825	-0.003	16.1
0.0022	-0.0038	0.0832	-0.0105	15.7
0.0015	-0.003	0.0675	-0.0053	15.6
0.0015	0.0007	0.0465	0.0015	15.2
0.0045	0.003	0.0307	0.0007	15
0.0045	0.0015	0.0067	-0.0075	14.8
0.003	0.0007	-0.0188	-0.0143	14.3
0.003	-0.003	-0.0383	-0.024	13.9
0.0015	-0.0038	-0.0458	-0.0225	13.8
0	-0.003	-0.0511	-0.0105	13.5
0.0007	-0.0023	-0.0608	0.0015	13.3
0.003	0.0037	-0.0668	0.0255	13
0.0015	0.0105	-0.0691	0.027	12.7
0.003	0.0112	-0.0743	-0.0008	12.6
-0.0008	0.009	-0.0818	-0.0293	12.1
0.0015	0.009	-0.0856	-0.0488	12.1
0.0022	0.0067	-0.0885	-0.0465	11.7
0.0007	0.0045	-0.0938	-0.0353	11.7
0.0045	0.0052	-0.1013	-0.0233	11.2
0.006	0.009	-0.1013	-0.0135	10.9
0.0052	0.012	-0.0968	-0.0263	10.5
0.0015	0.012	-0.099	-0.0338	10.5
0.0015	0.003	-0.096	-0.0323	10.1
0.003	-0.0218	-0.09	-0.0315	9.8
0.003	-0.0413	-0.0863	-0.024	9.7
0.003	-0.0315	-0.0795	-0.0195	9.3
-0.0008	-0.0188	-0.0706	-0.0128	9.3
0	-0.0083	-0.057	0.003	8.9
-0.0015	0.0037	-0.048	0.0082	9
0	0.0052	-0.0368	0.0135	8.5
0	0.0127	-0.0195	0.0285	8.6
-0.0023	0.018	-0.0068	0.0345	8.5
-0.003	0.0202	0.0052	0.024	8.4
-0.0046	0.0202	0.012	0.0195	8.3
-0.0015	0.0217	0.012	0.015	8.3
-0.0015	0.0202	0.0067	0.0052	8.1
-0.0038	0.0082	-0.0015	-0.003	7.9
-0.0053	-0.0105	-0.0075	-0.012	7.9
-0.0046	-0.0105	0	-0.0128	7.9
-0.0038	-0.024	0.0045	-0.0098	7.8
-0.0023	-0.0578	0.0022	0.0015	7.9
-0.0046	-0.0488	0.0127	0.0112	7.6
-0.0015	-0.0233	0.0285	0.0097	7.6
0.0007	-0.0015	0.0337	0.0127	7.4
-0.0023	0.0127	0.0277	0.009	7.5
-0.0008	0.0217	0.0217	0.006	7.4
-0.0023	0.024	0.009	0.0007	7.6
-0.0053	0.018	-0.0046	-0.012	7.3
-0.0038	0.0127	-0.0173	-0.0143	7.2
0.0007	0.009	-0.0285	-0.003	7
0.0015	0.0067	-0.0353	-0.0008	7.2
0.0007	0.003	-0.0315	-0.0053	7
0.006	0.003	-0.0263	-0.0053	7.1
0.0172	-0.0038	-0.033	-0.0113	7.1
0.027	-0.0128	-0.0405	-0.012	7.1
0.021	-0.021	-0.0458	-0.012	6.8
0.0157	-0.0361	-0.0525	-0.0143	6.9
0.0105	-0.0323	-0.0525	-0.0105	7.1
0.0075	-0.0098	-0.048	-0.0046	6.9
0.009	-0.0008	-0.0495	-0.0023	7
0.0052	0.0007	-0.0525	-0.003	6.7
0.0045	0.0105	-0.0495	0.003	6.8
-0.0015	0.018	-0.0465	0.009	6.6
-0.003	0.0195	-0.0533	0.0172	6.9
-0.0053	0.0142	-0.0555	0.0195	6.7
-0.0083	0.0157	-0.033	0.0157	7
-0.0165	0.018	0.0307	0.0135	6.7
-0.0315	0.0142	0.0765	0.0082	6.8
-0.0405	0.0142	0.0427	-0.0046	6.7
-0.0495	0.0097	0.0472	-0.0083	6.7
-0.0503	0.0112	0.12	0.003	6.7
-0.0465	0.0082	0.3817	0.003	6.7
-0.0405	0	0.9637	-0.0105	6.9
-0.0308	-0.0068	1.4655	-0.0128	6.4
-0.027	-0.0038	1.4205	-0.0008	6.7
-0.0323	-0.0008	1.1775	0.009	6.4
-0.045	-0.0015	0.897	0.0067	6.7
-0.0195	0.0045	0.5542	0.009	6.4
0.0412	0.0045	0.3075	0.018	6.7
0.069	0.0097	0.1125	0.0255	6.4
0.0645	0.021	-0.0511	0.0367	6.5
0.0577	0.0315	-0.1711	0.042	6.4
0.042	0.0442	-0.3083	0.0307	6.5
0.033	0.0472	-0.3953	0.0075	6.6
0.027	0.0465	-0.4965	-0.0023	6.3
0.0255	0.0427	-0.5685	-0.0015	6.5
0.0322	0.033	-0.6428	-0.0015	6.5
0.0322	0.0165	-0.714	0	6.4
0.0277	-0.0083	-0.7733	0.0007	6.3
0.021	-0.012	-0.8198	0.0045	6.4
0.018	-0.0405	-0.831	-0.003	6.4
0.0142	-0.1275	-0.843	-0.0203	6.2
0.009	-0.1388	-0.8393	-0.0278	6.1
0.003	-0.0915	-0.8243	-0.03	6.1
-0.0015	-0.0555	-0.759	-0.0278	6.1
-0.0046	-0.0068	-0.7185	-0.0293	6.1
-0.0046	-0.0008	-0.756	-0.0323	6.2
-0.0038	0.0045	-0.8071	-0.027	5.8
-0.0075	0.012	-0.8693	-0.0135	6.1
-0.0113	0.0105	-0.8685	0.0037	5.6
-0.0181	0.0157	-0.7335	0.012	5.8
-0.021	0.015	-0.5108	0.024	5.9
-0.0218	0.027	-0.2175	0.0352	5.8
-0.0233	0.0315	0.0862	0.0315	5.7
-0.0203	0.0337	0.3525	0.0292	5.5
-0.0203	0.0285	0.5827	0.0172	5.6
-0.0181	0.0225	0.7785	0.0022	5.4
-0.0173	0.0217	0.9427	0.0022	5.5
-0.0165	0.0187	1.056	-0.0008	5.3
-0.0158	0.0127	1.1107	-0.0068	5.4
-0.0128	0.003	1.1182	-0.0128	5.2
-0.0068	-0.0023	1.083	-0.0158	5.1
-0.0075	-0.006	1.0125	-0.0173	4.9
-0.0068	-0.0083	0.9187	-0.0181	5
-0.0091	-0.0293	0.7905	-0.0195	4.7
-0.0105	-0.0563	0.6435	-0.0158	4.7
-0.0105	-0.0248	0.4852	0.0142	4.5
-0.0091	0.015	0.3202	0.0367	4.5
-0.0068	0.0142	0.1642	0.039	4.5
-0.0068	0.027	0.0142	0.0427	4.4
-0.0068	0.033	-0.129	0.0352	4.4
-0.0053	0.0382	-0.2565	0.0195	4.2
-0.0068	0.0397	-0.3608	0.0082	4
-0.0075	0.0277	-0.4298	0.0067	4.1
-0.0098	0.0307	-0.4703	0.009	4
-0.0098	0.0255	-0.4868	0.003	3.8
-0.006	0.0315	-0.4875	0.0045	3.8
-0.0053	0.0345	-0.4808	0.0142	3.8
-0.0068	0.0277	-0.4425	0.009	3.6
-0.0091	0.015	-0.39	-0.0083	3.6
-0.0158	-0.0346	-0.327	-0.0308	3.5
-0.0181	-0.0653	-0.2595	-0.0323	3.6
-0.0165	-0.054	-0.195	-0.0218	3.4
-0.0158	-0.0436	-0.114	-0.0383	3.6
-0.0135	-0.0165	-0.039	-0.0555	3.3
-0.0053	-0.0068	0.027	-0.042	3.4
0.0015	-0.021	0.09	-0.003	3.4
0.006	-0.0525	0.1402	0.027	3.3
0.0067	-0.1238	0.174	0.039	3.3
0.0037	-0.1381	0.2017	0.0457	3.1
0.0045	-0.0675	0.231	0.0382	3.3
0.0037	0.0045	0.2557	0.018	3.1
0.003	0.0142	0.2625	-0.0053	3.2
0.003	0.0202	0.2505	-0.0188	3.1
0.003	0.0307	0.243	-0.0165	3.2
0	0.0255	0.2265	0.0105	2.9
-0.0038	0.0322	0.1965	0.0382	3
-0.0023	0.0225	0.177	0.0315	2.8
0.0007	0.015	0.1552	0.0157	3
0.0075	0.0097	0.126	-0.0008	2.9
0.0142	0.0075	0.1005	-0.0233	2.9
0.0187	0.0045	0.075	-0.033	2.9
0.0195	-0.0038	0.0495	-0.033	2.7
0.0165	0.0052	0.0285	-0.0165	2.8
0.0127	0.0195	0.0127	0.012	2.6
0.0105	0.0277	-0.0023	0.024	2.9
0.015	0.0262	-0.0188	0.0345	2.6
0.0172	0.0232	-0.0218	0.0427	2.9
0.015	0.0195	-0.021	0.0405	2.7
0.0105	0.0127	-0.0256	0.036	3
0.009	0.009	-0.0233	0.0172	2.7
0.0112	0.0045	-0.0181	0	3.1
0.006	-0.0008	-0.0143	-0.006	2.9
0.0007	-0.0068	-0.0068	-0.03	3.2
-0.0046	-0.0046	0.003	-0.0383	3.2
-0.0053	0.0067	0.0165	-0.0173	3.3
-0.0053	0.0097	0.0307	-0.0083	3.3
-0.0053	0.0037	0.0427	-0.0083	3.5
-0.0046	0.0052	0.0525	-0.003	3.6
-0.0015	0.0127	0.0577	0.0067	3.6
-0.0015	0.009	0.0622	0.003	3.9
-0.0053	0.0045	0.0667	-0.003	4
-0.0068	0.0067	0.069	0.0045	4.1
-0.0098	0.0082	0.054	-0.0015	4.2
-0.012	0.0075	0.0397	0.0015	4.3
-0.012	0.0097	0.0232	0.0067	4.4
-0.0128	0.015	0.0015	-0.0091	4.4
-0.0105	0.0135	-0.0225	-0.0308	4.6
-0.0075	0.0037	-0.0383	-0.0368	4.5
-0.0068	-0.0008	-0.039	-0.024	4.9
-0.003	0.0015	-0.0511	-0.006	4.9
0.0007	0.003	-0.0743	0.0127	5
0.0022	0.0052	-0.0968	0.0315	5.3
0.006	0.0022	-0.1035	0.0352	5.2
0.0052	-0.003	-0.0953	0.024	5.3
0	-0.0053	-0.1013	0.0015	5.3
-0.0038	-0.0353	-0.1215	-0.0346	5.4
-0.0053	-0.0615	-0.132	-0.0743	5.4
-0.0075	-0.027	-0.135	-0.09	5.7
-0.0068	0	-0.1403	-0.0675	5.5
-0.0046	0	-0.1403	-0.0405	5.8
-0.0053	0.003	-0.1373	-0.0218	5.6
-0.0015	-0.0046	-0.1298	-0.012	5.8
0.0082	0.009	-0.12	0.0075	5.7
0.0165	0.0187	-0.1155	0.0487	6
0.0217	0.0135	-0.1088	0.0765	5.7
0.0255	0.0195	-0.1028	0.0712	5.8
0.0255	0.0202	-0.093	0.0457	5.7
0.0202	0.0135	-0.0788	0.0157	5.6
0.012	0.003	-0.0638	-0.0308	5.6
0.0007	-0.0105	-0.0383	-0.084	5.6
-0.0053	-0.0218	-0.0068	-0.096	5.8
-0.012	-0.0188	0.018	-0.0645	5.5
-0.0188	-0.0181	0.0367	-0.0375	5.7
-0.0181	-0.0256	0.054	-0.0278	5.4
-0.0181	-0.0143	0.069	-0.012	5.7
-0.0181	-0.0046	0.0825	0.0067	5.3
-0.0128	0.0045	0.0915	0.0352	5.5
0	0.0262	0.0997	0.0412	5.3
0.0225	0.018	0.1012	0.012	5.3
0.0352	0.009	0.093	-0.012	5.1
0.0262	0.0172	0.0825	-0.0113	5.1
0.0232	0.0217	0.0727	-0.003	5
0.0195	0.0165	0.0652	-0.021	4.9
0.0105	-0.0015	0.0577	-0.0443	4.9
0.0082	-0.0165	0.0555	-0.0361	4.8
-0.0015	-0.024	0.0472	-0.024	4.8
0	-0.0105	0.0277	-0.0293	4.7
0.0015	0.0075	0.012	-0.0113	4.6
0.0015	0.0105	-0.0091	0.0105	4.5
0.003	0.0015	-0.0225	0.0202	4.5
0.0022	-0.003	-0.0285	0.0255	4.3
0.0052	-0.0143	-0.042	0.0097	4.3
0.0082	-0.0195	-0.0503	0.006	4.2
0.012	-0.0128	-0.057	-0.006	4.1
0.009	-0.0091	-0.0691	-0.0233	4.2
0.0015	0.0007	-0.0825	-0.0233	4
-0.0023	0.0045	-0.0915	-0.0015	4.1
-0.0008	0.015	-0.093	0.0322	3.8
-0.0015	0.015	-0.0975	0.027	4
-0.0015	0.0052	-0.099	0.0165	4
-0.0008	0.0037	-0.096	0.0142	3.9
0.0022	-0.0015	-0.0893	0.0045	3.9
0.0037	-0.003	-0.084	0.0112	3.8
-0.0023	-0.0091	-0.0803	0.0195	3.8
-0.0068	-0.0188	-0.0706	0.0247	3.7
-0.0083	-0.0195	-0.0548	0.033	3.8
-0.0068	-0.0091	-0.0315	0.0382	3.8
-0.0038	-0.0023	-0.0173	0.036	3.9
-0.0038	0.0037	-0.0173	0.042	3.7
-0.003	0.0127	-0.0135	0.0427	4
-0.0046	0.0105	-0.003	0.0277	4
-0.0053	-0.0008	0.0015	0.0202	4
-0.0068	-0.006	0.012	0.027	4
-0.0075	-0.0008	0.0232	0.0337	4.1
-0.012	0.0015	0.024	-0.003	4
-0.0143	-0.0015	0.027	-0.0398	4.1
-0.012	-0.003	0.0367	-0.0353	4.2
-0.0143	-0.0046	0.0517	-0.0181	4.2
-0.0165	0	0.063	0.0075	4.3
-0.0173	0.0127	0.069	0.033	4.4
-0.0203	0.0135	0.075	0.0367	4.5
-0.0233	0.0075	0.0825	0.0157	4.5
-0.0218	0.0075	0.0937	-0.0315	4.4
-0.0165	0.0045	0.102	-0.0608	4.1
-0.0158	0.0045	0.099	-0.0308	4.4
-0.0158	0.0127	0.0825	-0.0015	4.1
-0.0135	0.0135	0.063	0.0247	4.2
-0.0158	0.0097	0.0442	0.0495	3.9
-0.012	0.0135	0.027	0.0382	4.2
-0.0068	0.0165	0.0127	0.027	4
-0.0053	0.018	0.0015	0.0127	3.9
-0.0008	0.027	-0.012	0.0105	3.8
0.0015	0.036	-0.0285	0.039	3.8
0.0015	0.0345	-0.0436	0.0555	3.8
0.0015	0.0255	-0.057	0.054	3.6
0.0007	0.009	-0.063	0.0405	3.8
-0.0015	-0.0278	-0.06	0.009	3.4
-0.0068	-0.0495	-0.057	-0.0233	3.6
-0.0098	-0.0308	-0.0638	-0.0615	3.2
-0.0091	-0.0113	-0.066	-0.057	3.5
-0.0091	0.0202	-0.0503	0.009	3.2
-0.0083	0.0202	-0.0113	0.0562	3.6
-0.0083	-0.0181	0.039	0.0727	3.3
-0.0091	-0.0443	0.0802	0.0412	3.4
-0.0075	-0.075	0.1065	-0.0218	3.2
-0.0083	-0.0615	0.0975	-0.075	3.2
-0.0098	-0.0135	0.0697	-0.1313	3.2
-0.0143	0.0232	0.0345	-0.0975	3.1
-0.0158	0.0442	-0.0046	-0.0135	3.1
-0.0091	0.0622	-0.042	0.0202	3
-0.0053	0.066	-0.126	0.0405	3.1
-0.0008	0.0397	-0.2003	0.0397	2.9
0.0007	0.012	-0.1958	0.0322	3.1
-0.0008	-0.0368	-0.1995	0.015	3.1
-0.0008	-0.063	-0.198	0.0255	3.1
-0.003	-0.0638	-0.1703	0.0352	3
-0.0023	-0.0818	-0.1538	-0.0083	3.1
-0.0015	-0.0856	-0.1245	-0.0233	3
0.0037	-0.0848	-0.0968	-0.0361	3
0.0082	-0.0488	-0.0758	-0.0968	3
0.006	-0.006	-0.054	-0.1125	3
0.0045	0.0345	-0.0315	-0.045	3.1
0.006	0.0667	-0.0015	-0.015	3.1
0.0105	0.0652	0.027	-0.0113	3
0.0127	0.0675	0.0465	0.0292	3.1
0.0142	0.042	0.0637	0.024	2.9
0.0135	-0.0143	0.0765	0.0105	3
0.0135	-0.093	0.0877	0.0142	3.1
0.0105	-0.108	0.1005	0.0157	3
0.0082	-0.021	0.108	-0.0083	3.1
0.009	0.012	0.1057	-0.0518	3.1
0.0075	0.0052	0.1005	-0.033	3.1
0.006	0.0277	0.1042	-0.0015	3
0.0075	0.0277	0.102	-0.0278	3
0.009	0.0232	0.0855	-0.0346	3.1
0.0082	0.0337	0.0667	0.0067	3.1
0.0052	0.039	0.0525	-0.0023	3.1
0.0015	0.0292	0.042	-0.0278	3
-0.0008	0.0142	0.0322	-0.0181	3.1
-0.0038	0.0127	0.0255	0.0007	3.1
-0.0023	0.0127	0.024	0.0457	3.2
0	0.012	0.0202	0.0742	3.1
0.0015	0.0202	0.015	0.0742	3.1
0.0045	0.0202	0.012	0.0465	3
-0.0015	0.0127	0.0135	0.0022	3.1
-0.0046	0.0127	0.0165	-0.0346	3
-0.0023	0.0105	0.0172	-0.0833	3
-0.003	0.018	0.021	-0.063	3
-0.003	0.0435	0.018	0.0195	3
-0.0038	0.0757	0.018	0.0652	3
0	0.0862	0.024	0.0892	3
0	0.0645	0.0285	0.0667	3.1
-0.0038	0.027	0.0382	-0.0256	2.7
-0.0046	-0.024	0.0412	-0.0983	3
-0.0091	-0.075	0.0345	-0.0938	3
-0.0195	-0.057	0.0427	-0.0428	2.8
-0.024	-0.003	0.0697	0.0165	3
-0.0135	-0.0225	0.09	0.0592	2.7
-0.0046	-0.0825	0.102	0.0675	2.7
-0.0023	-0.0885	0.1065	0.051	2.6
-0.003	0.0255	0.1162	0.0165	2.8
-0.0053	0.087	0.1222	-0.0346	2.8
-0.0038	0.069	0.1162	-0.024	2.6
-0.0015	0.084	0.1065	0.0105	2.6
0.0015	0.0712	0.084	0.009	2.9
0.0052	0.0637	0.0652	-0.0053	2.8
0.009	0.0517	0.0592	-0.0323	2.9
0.012	0.009	0.0517	-0.0653	2.6
0.0142	-0.054	0.042	-0.0923	2.6
0.0187	-0.1238	0.0285	-0.0593	2.6
0.015	-0.252	0.0165	0.0067	2.7
0.0142	-0.3008	0.0067	0.033	2.8
0.0127	-0.1928	-0.0038	0.0255	2.7
0.0105	-0.09	-0.0203	0.021	2.7
0.012	0.015	-0.0398	0.0277	2.5
0.0105	0.027	-0.0518	0.0195	2.8
0.0097	0.0255	-0.0638	0.0157	2.6
0.0082	0.0405	-0.078	0.012	2.8
0.0052	0.0352	-0.084	-0.0046	2.6
0.003	0.06	-0.084	-0.0256	2.9
0.0067	0.0435	-0.0885	-0.0405	2.7
0.009	-0.0015	-0.0923	-0.0563	2.8
0.0067	-0.048	-0.1013	-0.0368	2.6
0.0067	0.0292	-0.1103	0.0232	3
0.003	0.0787	-0.1163	0.0435	2.7
0.0007	0.057	-0.1223	0.0727	3
0.0007	0.0667	-0.1178	0.0705	2.7
0.0022	0.0457	-0.1088	0.0345	2.6
0.0015	0.0622	-0.093	0.0157	2.7
0.0015	0.06	-0.0773	-0.0098	2.6
0	0.0517	-0.0638	-0.0091	2.7
-0.0023	0.048	-0.0503	0.009	2.6
0.003	0.0352	-0.0428	0.0217	2.9
0.0045	0.0157	-0.0353	0.0112	2.6
0.003	-0.0368	-0.0278	-0.003	2.8
0.006	-0.0458	-0.0278	-0.0053	2.6
0.0052	-0.0105	-0.0263	0.0007	3
0.0022	0.003	-0.0195	0.0165	2.6
0.003	-0.0278	-0.0143	0.0232	2.8
0.0007	-0.0443	-0.0128	0.0345	2.6
-0.0068	-0.0068	-0.0105	0.033	2.8
-0.0046	0.0172	-0.0113	0.0135	2.6
-0.0008	0.0052	-0.0135	-0.0165	2.6
-0.0008	-0.0008	-0.0135	-0.0443	2.7
0.0015	-0.033	-0.0173	-0.0495	2.7
0.003	-0.084	-0.0256	-0.054	2.8
0.0007	-0.0668	-0.0368	-0.0653	2.7
-0.0053	-0.0068	-0.0533	-0.039	2.8
-0.0098	0.0082	-0.0713	-0.0053	2.7
-0.0075	0.0165	-0.09	0.003	2.8
-0.0091	0.0232	-0.1058	0.0307	2.8
-0.0068	0.0187	-0.1043	0.0555	3
-0.0015	0.0165	-0.0968	0.048	2.7
0.0007	0.0067	-0.0893	0.0352	2.9
0.0007	0.0052	-0.0765	0.0142	2.6
0.0007	-0.003	-0.0585	-0.0195	2.9
0.0015	-0.0023	-0.0443	-0.0046	2.8
-0.0023	0.0022	-0.0285	0.048	2.8
-0.0068	-0.0046	0.003	0.0495	2.9
-0.0075	-0.0143	0.033	0.012	2.7
-0.0068	-0.0195	0.0532	-0.0315	2.7
-0.0075	-0.0135	0.0712	-0.0915	2.6
-0.006	-0.006	0.087	-0.1268	2.6
-0.0023	0.0142	0.0975	-0.0938	2.7
-0.0023	0.0465	0.1057	-0.0023	2.7
0	0.0705	0.1117	0.0607	2.7
0.003	0.078	0.1147	0.06	2.7
0.0052	0.0697	0.1117	0.0292	2.6
0.0075	0.0307	0.1065	-0.015	2.6
0.0067	-0.0173	0.1027	-0.0218	2.6
0.0052	-0.0368	0.093	-0.0075	2.6
0	-0.039	0.0877	-0.0105	2.8
0.0015	-0.042	0.0855	0.0082	2.6
0.003	0.0007	0.084	0.042	2.6
0.0015	0.0607	0.078	0.0375	2.6
0.0022	0.0487	0.066	-0.0181	2.7
0.003	0.0292	0.0592	-0.024	2.6
0.003	0.0405	0.0547	0.009	2.5
-0.0008	0.048	0.0547	0.0277	2.7
-0.003	0.0442	0.06	0.0517	2.6
-0.0046	0.0292	0.0765	-0.0068	2.7
-0.0075	0.0172	0.0907	-0.0608	2.4
-0.0105	-0.0721	0.1035	-0.0375	2.7
-0.0113	-0.186	0.126	-0.015	2.6
-0.0046	-0.1553	0.15	0.0277	2.7
-0.0015	-0.0555	0.159	0.0712	2.5
-0.0015	-0.0068	0.1447	0.069	2.7
0.0015	-0.0046	0.1237	0.0292	2.5
0.003	0.003	0.0975	0.0015	3
-0.0008	0.0142	0.069	-0.0225	2.6
-0.0008	0.0352	0.0352	-0.048	2.7
0	0.057	0.0082	-0.0083	2.8
0.0037	0.0495	-0.0188	0.0045	2.6
0.0022	0.0442	-0.0615	-0.0338	2.8
-0.0008	-0.0225	-0.0923	-0.039	2.8
-0.0008	-0.1013	-0.1133	-0.0338	2.9
0.0015	-0.1568	-0.1335	0.0022	2.9
-0.0015	-0.1373	-0.1575	0.0472	3.1
-0.0083	0.0007	-0.1688	0.0547	2.7
-0.0105	0.0817	-0.1411	0.039	3.1
-0.0098	0.0615	-0.1043	0.051	3
-0.0091	0.033	-0.0706	0.0742	3.1
-0.0068	-0.0135	-0.0465	0.0525	2.8
-0.0075	-0.0825	-0.0353	0.0232	3.2
-0.0083	-0.0885	-0.0195	-0.0278	3
-0.012	-0.0346	-0.0008	-0.063	3.1
-0.0105	0.0292	0.024	-0.0248	3.2
-0.0098	0.0495	0.0495	0.039	3.2
-0.012	0.0457	0.0712	0.0757	3.2
-0.0083	0.0427	0.0862	0.0652	3.2
-0.0046	0.0345	0.099	0.0495	3.3
-0.0023	0.0097	0.1027	-0.0383	3.1
-0.003	-0.0256	0.0885	-0.183	3.2
-0.0046	-0.0053	0.066	-0.1665	3
-0.0046	0.0405	0.0495	-0.0143	3.5
0.003	0.0502	0.0435	0.0765	3.1
0.0067	0.0457	0.0307	0.0592	3.4
0.0045	0.0322	0.0195	-0.0248	3.2
0.0045	0.0255	0.0195	-0.1006	3.2
0.003	0.0592	0.0255	-0.1006	3.2
0.003	0.084	0.0367	0.0127	3.3
0.006	0.0592	0.0442	0.0765	3.3
0.0067	0.0142	0.042	0.0277	3.4
0.006	-0.0098	0.0315	0.0262	3.4
0.0045	-0.0181	0.0232	0.0015	3.4
-0.003	-0.015	0.0105	-0.024	3.4
-0.0053	0.0157	-0.0053	-0.0263	3.3
-0.006	0.0157	-0.0181	-0.042	3.3
-0.0091	0.0037	-0.0278	0.0052	3.4
-0.0083	0.0052	-0.0293	0.0495	3.6
-0.0068	-0.0203	-0.0278	0.0907	3.6
-0.0068	-0.0525	-0.0225	0.069	3.6
-0.006	-0.084	-0.0158	-0.0181	3.4
-0.0075	-0.0803	-0.0105	-0.093	3.4
-0.0075	-0.0465	-0.0083	-0.15	3.5
-0.0105	-0.0008	-0.0143	-0.09	3.6
-0.015	0.0045	-0.0203	-0.0308	3.7
-0.015	-0.0053	-0.0181	-0.0165	3.5
-0.0143	0.018	-0.0195	0.0105	3.6
-0.0165	0.0262	-0.0256	0.003	3.6
-0.0165	0.0382	-0.027	0.0157	3.7
-0.012	0.0292	-0.0315	0.0465	3.6
-0.0091	0.0142	-0.048	0.051	3.6
-0.0068	0.0052	-0.0713	0.0277	3.8
-0.006	-0.0128	-0.0856	-0.0023	3.6
-0.0053	-0.015	-0.0893	-0.012	3.9
-0.0053	0.0015	-0.0893	0.0045	3.6
-0.0046	0.024	-0.078	0.0292	3.8
-0.0046	0.039	-0.0555	0.0465	3.7
-0.0023	0.0675	-0.0361	0.0465	3.9
-0.0015	0.0952	-0.033	0.0142	3.7
-0.0008	0.0915	-0.0361	-0.0203	3.9
0.0007	0.0907	-0.0458	-0.0293	3.9
-0.0015	0.0915	-0.06	0.0007	4
0.0022	0.0675	-0.0653	0.0277	4
0.0045	0.0067	-0.0675	0.0157	3.9
0.0045	-0.0975	-0.0713	-0.015	3.9
0.0037	-0.1726	-0.081	-0.0075	4
0.0037	-0.2123	-0.078	0.078	4.1
0.0045	-0.3068	-0.0593	0.1177	3.9
0.006	-0.2806	-0.0443	0.0367	4
0.006	-0.0765	-0.0263	-0.0803	4
0.0037	-0.0068	-0.0105	-0.1785	4
0.0037	0.0097	-0.006	-0.1658	3.8
0.0007	0.0712	-0.0105	-0.0346	4.1
-0.0008	0.0675	-0.0181	0.0217	4
0.0015	0.0607	-0.024	-0.0143	4.1
0.0052	0.0465	-0.0308	-0.0128	4
0.006	0.0577	-0.0308	-0.0075	4
0.0052	0.0517	-0.027	-0.0218	4
0.0052	0.033	-0.0278	-0.0165	4
0.0052	0.0367	-0.0308	0.0135	4.1
0.0082	0.0277	-0.0346	0.0105	4.1
0.0075	0.0232	-0.0405	-0.0091	4.1
0.0067	0.015	-0.045	0.0082	4.1
0.0082	0.018	-0.0398	0.0075	4.2
0.0067	0.0157	-0.0368	0.0067	4.1
0.006	0.0217	-0.0323	0.0277	4.2
0.0045	0.027	-0.0195	0.0472	4.1
0.003	0.0142	-0.0046	0.057	4.4
0.0052	0.006	0.0112	0.042	4.2
0.003	0.006	0.0157	0.018	4.3
0.0045	-0.0008	0.0165	-0.0046	4.4
0.0037	-0.0098	0.0157	-0.0256	4.2
-0.0008	-0.0158	0.018	-0.063	4.3
0.003	-0.0143	0.024	-0.099	4.4
0.0075	-0.0075	0.0262	-0.0615	4.5
0.0052	0.0007	0.0247	0.03	4.4
0.003	0.0202	0.0247	0.0975	4.4
0.0037	0.0457	0.0457	0.1095	4.5
0.0097	0.0577	0.0675	0.0487	4.4
0.0142	0.0217	0.0735	-0.048	4.4
0.015	-0.0165	0.06	-0.0953	4.5
0.009	-0.0181	0.045	-0.0413	4.5
0.006	-0.0046	0.0337	0.042	4.4
0.0075	0.0052	0.018	0.0382	4.5
0.009	0.0067	0.0022	-0.0053	4.5
0.0052	0.0067	-0.0173	-0.0346	4.5
0.0007	-0.012	-0.0323	-0.0233	4.5
-0.0008	-0.0256	-0.0413	0.0172	4.6
0.0007	-0.0143	-0.0436	0.06	4.4
0.003	0.0045	-0.042	0.0465	4.6
0.0007	0.0165	-0.0428	-0.0075	4.5
-0.0015	0.0067	-0.0405	-0.0315	4.5
-0.0038	0.018	-0.0398	-0.0465	4.5
-0.0068	0.033	-0.0308	0.0067	4.6
-0.0053	0.0127	-0.021	0.0427	4.5
-0.0038	-0.0285	-0.015	0.0285	4.4
-0.0015	-0.0818	-0.012	0.012	4.7
-0.0023	-0.057	-0.015	-0.003	4.5
-0.003	-0.0218	-0.0188	0.0292	4.7
-0.0038	-0.0293	-0.0203	0.0382	4.5
-0.0015	0.006	-0.0203	0.042	4.7
0	0.0247	-0.0256	0.0135	4.4
-0.0008	0.0142	-0.0293	-0.0203	4.7
-0.0015	0.0157	-0.0278	0.0217	4.4
-0.0023	0.03	-0.0278	0.03	4.8
-0.0015	0.03	-0.0263	0.0067	4.5
-0.003	0.0105	-0.0128	-0.0113	4.6
-0.0038	-0.0218	0.0082	-0.0143	4.6
-0.0046	-0.0795	0.0277	0.0225	4.6
-0.0053	-0.0795	0.0427	0.015	4.8
-0.0091	-0.024	0.048	-0.0195	4.6
-0.0105	-0.0233	0.06	-0.0338	4.8
-0.0075	0.0015	0.0697	-0.0353	4.6
-0.0083	0.033	0.0682	-0.0128	4.8
-0.0083	0.0405	0.0652	0.03	4.7
-0.0105	0.0637	0.0585	0.0742	4.9
-0.0091	0.0547	0.0532	0.069	4.6
-0.0083	0.0607	0.0502	0.0427	4.7
-0.0091	0.054	0.0532	-0.0015	4.7
-0.0113	0.027	0.0495	-0.0548	4.8
-0.012	0.0082	0.0397	-0.048	4.7
-0.0091	0.012	0.0307	-0.0105	4.9
-0.0091	0.0052	0.0165	0.0075	4.8
-0.0068	-0.0488	-0.0008	0.009	4.8
-0.0046	-0.1013	-0.0181	0.0045	4.7
-0.0046	-0.1283	-0.03	-0.024	4.8
-0.006	-0.0953	-0.048	-0.039	4.8
-0.0098	-0.042	-0.0645	-0.0218	4.9
-0.0105	0.012	-0.0743	-0.0128	4.9
-0.0113	0.0105	-0.075	-0.033	4.9
-0.0098	-0.0046	-0.0691	-0.0533	4.7
-0.0091	0.0157	-0.0653	-0.0346	4.9
-0.0091	0.0097	-0.0615	0.012	4.9
-0.0075	0.024	-0.0555	0.0442	5.1
-0.0098	0.027	-0.0398	0.0457	4.9
-0.006	0.033	-0.0173	0.054	5.2
-0.0046	0.033	-0.003	0.0862	4.9
-0.0046	0.033	0.009	0.0772	5.1
-0.003	0.033	0.024	0.0007	5.2
-0.0008	0.015	0.0405	-0.0923	5.1
-0.0015	0.012	0.0592	-0.0818	5
-0.0046	0.0105	0.078	-0.012	5
-0.0038	-0.0053	0.09	-0.0285	4.9
-0.0008	-0.0315	0.0975	-0.0533	5.1
0.0015	-0.0368	0.1005	-0.0398	5.2
0.0015	-0.015	0.0997	0.0097	5
0.0007	0.0217	0.1005	0.0562	5.2
0.0022	0.0262	0.0975	0.042	5
0.003	0.0307	0.0892	0.0195	5.3
0.003	0.024	0.0712	-0.0053	4.9
0.0037	0.0045	0.0592	0.0165	5.3
0.0052	-0.0008	0.0502	0.0405	5
0.0067	-0.0046	0.0352	0.036	5.3
0.003	0.0045	0.027	0.024	5
0.0045	0	0.0187	-0.0135	5.2
0.0045	0.0007	0.0075	-0.0323	5.3
0.0015	-0.0008	-0.0008	-0.0218	5.3
0.0015	-0.0015	-0.0098	-0.0158	5.1
0.0007	-0.0046	-0.0158	-0.0203	5
0.0015	-0.0068	-0.0233	-0.0091	5.3
0.0075	-0.0046	-0.0323	-0.0091	5
0.0082	-0.0181	-0.0383	-0.012	5.2
0.009	-0.0218	-0.0458	-0.0068	5.1
0.0097	-0.0113	-0.0495	-0.0256	5.3
0.0082	-0.0091	-0.0458	-0.024	5.1
0.0082	-0.0038	-0.0383	-0.0046	5.3
0.0067	0.0067	-0.0293	0.024	5.2
0.0067	0.0052	-0.0233	0.0307	5.3
0.009	0.0082	-0.0203	-0.0008	5.2
0.0067	0.006	-0.0128	-0.0143	5.4
0.0022	0.0067	-0.0015	0.0157	5.4
0.0037	0.0052	0.0052	0.0435	5.5
0.003	-0.0046	0.0082	0.015	5.5
0.0022	-0.0083	0.012	-0.0068	5.3
0.0037	-0.0098	0.0142	-0.0046	5.4
0.0022	-0.0053	0.0157	-0.0046	5.2
0.0007	-0.0008	0.021	-0.006	5.5
0.0015	-0.0015	0.033	-0.0368	5.3
0.0007	-0.0015	0.0405	-0.0346	5.6
-0.0008	0.003	0.0412	-0.0128	5.3
-0.003	-0.0015	0.045	-0.003	5.6
-0.0015	0.0097	0.0435	0.0082	5.3
-0.0015	0.0315	0.0345	-0.0015	5.5
-0.0015	0.0277	0.03	0.0037	5.4
0	0.0217	0.0337	0.009	5.4
-0.0015	0.012	0.0322	0.0082	5.4
-0.0038	0.0052	0.024	0.009	5.4
-0.0038	0.0015	0.0172	0	5.6
-0.0046	-0.006	0.0142	-0.0068	5.5
-0.0023	-0.0158	0.0105	-0.0181	5.5
-0.0015	-0.0248	0.0045	-0.0083	5.3
-0.0008	-0.0218	-0.0023	0.0015	5.5
-0.0008	-0.0105	-0.0165	-0.003	5.3
-0.0008	0.0052	-0.0285	0.0135	5.5
-0.0008	0.024	-0.0233	0.0532	5.5
0.0007	0.0322	-0.0105	0.0457	5.5
0.0015	0.0157	0.003	0.0165	5.6
-0.0008	0.0052	0.0195	0.0217	5.6
0	-0.003	0.0345	0.0022	5.5
-0.0015	-0.0128	0.0457	-0.0173	5.5
-0.0008	-0.0158	0.054	-0.0368	5.5
-0.003	-0.0158	0.051	-0.0203	5.4
-0.0038	-0.0083	0.0412	0.0022	5.5
0.0045	-0.0143	0.0322	-0.0218	5.4
0.006	-0.0128	0.0277	-0.03	5.4
0.0052	-0.0053	0.018	-0.0315	5.5
0.0052	0.0015	0.0082	-0.003	5.7
0.003	0.0045	0.0022	0.0105	5.5
0.0022	0.0022	-0.0098	-0.0075	5.5
0.0007	0	-0.0256	-0.003	5.3
0.0022	-0.0008	-0.0398	0.0022	5.4
0.003	-0.0053	-0.0465	0.0007	5.4
0.0022	-0.0218	-0.0548	-0.0083	5.5
-0.003	-0.0075	-0.0615	0.009	5.6
-0.003	0.0037	-0.0653	0.0172	5.4
0.0007	0.003	-0.0691	0.0097	5.5
-0.0015	0.0157	-0.0713	0.012	5.3
-0.0046	0.0202	-0.0668	0.0157	5.5
-0.0008	0.024	-0.0593	0.0225	5.5
0.0007	0.0142	-0.0511	0.0075	5.5
0.003	0.0007	-0.0428	-0.0046	5.5
0.0015	-0.0068	-0.0405	-0.0113	5.4
-0.0008	-0.0165	-0.0368	-0.0135	5.5
-0.0015	-0.0181	-0.0278	-0.0053	5.5
-0.0008	-0.012	-0.024	-0.0038	5.5
0	-0.0091	-0.0256	0.0142	5.3
-0.0046	-0.0053	-0.024	0.054	5.6
-0.0053	0.0075	-0.0203	0.075	5.4
-0.0053	0.0127	-0.0143	0.0165	5.4
-0.0075	0.0007	-0.0091	-0.099	5.4
-0.0038	-0.0068	-0.003	-0.1208	5.8
-0.0015	-0.0053	0.0015	-0.0555	5.5
-0.0046	-0.012	0.009	-0.012	5.7
-0.0046	0.0052	0.0187	0.0157	5.4
-0.003	0.0127	0.0232	0.0052	5.5
-0.003	0.0052	0.0195	-0.0098	5.6
-0.0023	0.009	0.0165	-0.0008	5.5
-0.003	0.0045	0.0157	0.0015	5.7
-0.003	0.0067	0.0142	0.006	5.6
-0.0008	0.0082	0.0127	0.003	5.6
-0.0008	0.0007	0.012	0.0052	5.5
-0.0023	-0.0015	0.0105	0.0082	5.9
-0.0008	0.003	0.0075	0.0127	5.5
-0.0068	-0.003	0.003	0.0157	5.8
-0.012	-0.0083	-0.0023	0.003	5.5
-0.0113	-0.0105	-0.0105	-0.0195	5.7
-0.0091	-0.0135	-0.0165	-0.0285	5.6
-0.0023	-0.0083	-0.0233	-0.0046	5.8
0.003	-0.0038	-0.0293	0.0142	5.7
0.003	0.0097	-0.0353	0.0322	5.7
0.0015	0.0157	-0.0368	0.0405	5.6
-0.0008	0.012	-0.0428	0.015	5.5
-0.0008	0.0015	-0.048	-0.0083	5.8
-0.0008	-0.0015	-0.0503	-0.0083	5.8
0.003	0.003	-0.0495	0.003	5.7
0.0022	-0.0008	-0.048	0.0067	5.6
-0.0008	0.0015	-0.0458	0.0172	5.7
-0.0008	0.0015	-0.0413	0.0262	5.7
0.0007	0.0015	-0.0405	0.0225	5.8
0.0007	-0.0038	-0.0353	0.0142	5.7
0	-0.003	-0.0293	-0.0091	5.8
-0.003	-0.0008	-0.0248	-0.0218	5.8
-0.006	-0.0135	-0.0195	-0.027	5.7
-0.003	-0.0165	-0.0143	-0.03	5.8
-0.0015	-0.0053	-0.0091	-0.0233	5.8
-0.0008	0.0097	-0.0068	-0.0278	6
0.0015	0.0172	-0.0015	-0.0038	6
-0.0008	0.018	-0.0008	0.0292	6.1
-0.0038	0.0142	-0.012	0.0112	5.8
-0.0046	-0.0008	-0.024	-0.0015	5.9
-0.0008	-0.0046	-0.0165	-0.0015	5.8
-0.003	-0.0015	-0.0091	-0.0105	6.1
-0.0068	-0.0046	-0.0128	-0.0053	5.8
0.0037	0.0045	-0.0091	0.0127	5.9
0.0045	0.009	-0.0053	0.027	6.1
-0.0008	0.0097	-0.0015	0.0255	5.9
-0.0046	0.009	0.003	0.0082	6.1
-0.0083	0.0052	0.0067	-0.003	6.1
0.0022	0.003	0.0105	0.0007	6.2
0.0045	0.0015	0.012	-0.003	6.1
0.0015	-0.0023	0.0165	-0.0083	6.1
0.0045	-0.0053	0.0202	-0.0053	6
0.003	-0.0046	0.024	-0.0015	6.2
0.0045	-0.0038	0.0277	0.003	6
0.0022	-0.003	0.0307	0	6.1
0.003	-0.0008	0.0277	0.0007	6.3
0.0015	0.003	0.0232	0.0015	6
0.0007	-0.0008	0.0187	-0.0046	6.3
0.003	-0.0038	0.0157	-0.003	6.2
0.003	-0.0038	0.018	-0.0015	6.4
0.003	-0.003	0.0187	-0.0015	6.3
0.0015	-0.0015	0.0202	-0.003	6.4
0.0022	-0.0008	0.0172	-0.003	6.2
0	0.0015	0.012	-0.003	6.4
0.0007	0	0.009	-0.0046	6.2
-0.0008	0.0007	0.0037	-0.006	6.4
0.0007	0.003	0.0015	-0.0023	6.2
0.003	0.0022	0.0015	0.0052	6.6
0	0.0015	0.0007	0.009	6.4
0.0007	0	0	0.0127	6.4
-0.0008	-0.0023	-0.0008	0.0142	6.4
-0.003	-0.003	0.0015	0	6.4
-0.0023	-0.0068	0.003	-0.0225	6.5
-0.0008	-0.0091	0.006	-0.021	6.3
0	-0.0053	0.0082	0.0075	6.5
-0.0015	-0.0008	0.0112	0.0247	6.4
-0.0008	-0.0008	0.0225	0.021	6.5
-0.0023	-0.0015	0.03	-0.0023	6.4
-0.003	-0.003	0.036	-0.0346	6.5
-0.0023	-0.003	0.0465	-0.0353	6.4
-0.003	0.003	0.0517	-0.0158	6.6
-0.0015	0.0067	0.0532	0.003	6.5
0.0007	0.0045	0.054	0.0022	6.7
0	0.0015	0.0607	0.0007	6.5
-0.0008	0.0045	0.0705	0	6.5
-0.0008	0.0045	0.075	-0.003	6.5
-0.0038	0.0007	0.075	0.0082	6.7
-0.0113	-0.0023	0.0742	0.009	6.7
-0.0105	-0.0053	0.072	-0.003	6.6
-0.0083	-0.0046	0.072	-0.0143	6.8
-0.0091	0.0015	0.0697	0	6.7
-0.0068	0.0015	0.0675	0.0105	6.7
-0.006	-0.003	0.063	0.0022	6.7
-0.0053	0.0007	0.0555	0.0075	6.7
-0.0015	-0.003	0.045	0.0007	6.7
-0.0015	-0.0068	0.036	-0.0015	6.7
0.0007	-0.006	0.027	0.0022	6.7
0.0007	-0.0046	0.0165	0.003	6.7
0.0007	0.0015	0.009	0.0112	6.9
-0.0008	0.0052	0.0045	0.009	6.7
-0.0008	0.0015	-0.0008	0.0052	6.9
0.0015	-0.0015	-0.0105	0	6.8
0	-0.0015	-0.0165	0.0022	6.8
0.0007	-0.0008	-0.0203	0.0052	6.7
-0.0008	0.0015	-0.0248	0.003	6.9
0	0.0015	-0.024	0.0045	6.6
0.0015	0.0007	-0.0181	0.0037	6.9
0.0007	0.0015	-0.0143	0.003	6.8
-0.0053	0.0015	-0.015	0.003	7
-0.0158	-0.0008	-0.0181	0.0007	6.9
-0.0105	-0.0015	-0.0233	0.0007	6.9
-0.0053	0.0015	-0.0278	0.0037	7
-0.0068	0.0022	-0.0346	0.0037	6.9
-0.0046	0.0007	-0.0278	0.003	7.1
-0.0046	0.0007	0.018	0.003	6.9
-0.0038	0	0.0945	0.0045	7.1
0.0007	0.0007	0.117	0.0067	7
0.0015	0.003	0.105	0.0052	7.1
0.0015	0.0015	0.0937	0.0015	7.2
0.0015	0	0.0555	0.0007	7.1
0.0007	0.0015	0.0285	0.0015	7.2
0.0015	0	-0.0091	0.0015	7.1
0.0015	0.0007	-0.042	-0.0008	7.1
0.0037	0.0007	-0.0653	-0.0023	7
0.006	0.0007	-0.09	-0.0023	7.3
0.0052	0.0007	-0.108	-0.003	7.2
0.0052	0.0015	-0.1268	-0.003	7.2
0.006	-0.0008	-0.1283	-0.0053	7.2
0.006	-0.0008	-0.1283	-0.0038	7.4
0.0052	0	-0.1268	-0.0038	7.2
0.003	0.0007	-0.132	-0.0046	7.5
0.0045	0.0015	-0.1343	-0.0038	7.2
0.0045	0	-0.1335	-0.003	7.4
0.0045	0.0015	-0.1305	-0.0038	7.4
0.0037	0.0022	-0.1133	-0.0053	7.2
0.003	0.0015	-0.1028	-0.0046	7.5
0.006	0.003	-0.0818	-0.0046	7.4
0.0052	0.0015	-0.054	-0.0038	7.5
0.0045	0.0015	-0.0293	-0.003	7.2
0.0037	0.0022	-0.0083	-0.0046	7.6
0.003	0.0022	0.0082	-0.0015	7.6
0.0045	0.0022	0.0255	-0.0023	7.7
0.0052	0.0015	0.036	-0.0038	7.6
0.0037	0	0.042	-0.003	7.7
0.0015	0	0.0457	-0.0023	7.3
-0.0008	0.0007	0.048	0.0007	7.6
-0.0008	0.0007	0.0465	0.0007	7.6
0.0007	0.0022	0.0442	0	7.8
0	0.0022	0.0427	-0.0008	7.7
0.0007	0.0007	0.0412	-0.0008	7.9
-0.0008	0.0007	0.0367	-0.0008	7.9
0.0015	0.0015	0.027	-0.0008	7.8
0.0015	0.0015	0.0157	0.0015	8
0.0015	0.0007	0	0.003	7.8
0	0.0015	-0.0098	0.0045	8.1
-0.0008	0.0007	-0.0181	0.0022	7.8
-0.0008	-0.0008	-0.0233	0.0007	7.9
0	-0.0015	-0.0285	0.003	7.8
0	-0.0023	-0.0308	0.0052	8.1
-0.0015	-0.0015	-0.0315	0.0097	8
-0.0015	-0.0015	-0.0353	0.0097	8.3
-0.003	-0.0008	-0.0353	0.0067	8.1
-0.0015	0.0007	-0.0383	0.0015	8.2
-0.0008	-0.0008	-0.039	0.0015	8.1
-0.0008	-0.003	-0.0353	0.0007	8.3
-0.003	-0.0046	-0.0368	-0.0068	8.3
-0.0046	-0.0053	-0.0436	-0.0091	8.3
-0.0046	-0.0053	-0.048	-0.0068	8.3
-0.0038	-0.0008	-0.0555	0	8.2
-0.0015	0.0037	-0.063	0.0315	8.5
-0.0038	0.003	-0.0691	0.0472	8.3
-0.003	0	-0.0668	0.0202	8.5
-0.003	0.0045	-0.0525	-0.0173	8.6
-0.003	0.0082	-0.0458	-0.0338	8.6
-0.003	0.0082	-0.0323	-0.0375	8.7
-0.0046	0.0082	-0.012	-0.0315	8.6
-0.0015	0.0135	0.0067	0.0007	8.8
-0.0008	0.012	0.027	0.0015	8.8
-0.003	0	0.057	-0.0068	8.9
0.0007	0.0037	0.0855	0.0045	8.8
-0.0008	0.0015	0.102	-0.0015	8.9
-0.003	-0.0008	0.1177	0.0015	8.8
-0.0046	0.0015	0.1177	-0.0015	9
-0.003	-0.0008	0.1132	-0.0008	9
-0.0015	0.0015	0.1042	0.0007	9
-0.0008	-0.0008	0.0892	-0.0015	9.3
-0.0008	-0.0023	0.0787	0.0022	9.3
-0.0008	-0.0023	0.069	0.0022	9.5
-0.0008	-0.0023	0.0585	0.0045	9.3
-0.0015	-0.0046	0.0532	0.0015	9.4
-0.0008	-0.0046	0.0547	0.003	9.4
-0.0128	-0.0046	0.0517	0.0052	9.5
-0.0405	-0.0068	0.0517	0.0105	9.4
-0.0405	-0.0046	0.0615	0.012	9.6
-0.024	-0.0046	0.069	-0.003	9.5
-0.0225	-0.0053	0.0652	-0.0135	9.8
-0.015	-0.0015	0.0562	0.0007	9.8
-0.0068	0.0037	0.054	0.0142	9.9
-0.0038	0.0045	0.0562	0.0202	9.8
0.0015	0	0.0667	0.0315	9.9
0.0045	-0.0068	0.0765	0.0187	10
0.0067	-0.0128	0.0802	-0.0046	10.1
0.006	-0.0098	0.078	-0.027	10.1
0.0052	-0.003	0.0607	-0.048	10
0.0052	0.009	0.0442	-0.0308	10.4
0.006	0.018	0.027	0.0007	10.1
0.0082	0.0142	0.0127	0.0045	10.4
0.0067	0.0082	0.0165	0.0015	10.3
0.0067	0.0022	0.0232	0.0007	10.7
0.006	0	0.024	0.003	10.6
0.0067	0.003	0.0157	0.009	10.7
0.0082	0.003	-0.0008	0.0105	10.7
0.0067	0.0015	-0.0165	0.0097	10.7
0.0082	-0.0015	-0.0308	0.0075	10.9
0.0105	-0.0015	-0.0458	0.0075	11
0.0082	-0.0008	-0.066	0.0082	11
0.009	0.0007	-0.0893	0.0082	11.1
0.009	0.0007	-0.1103	0.0082	11.2
0.009	-0.0015	-0.1305	0.0075	11.3
0.0105	-0.0008	-0.1463	0.0067	11.4
0.009	0	-0.1523	0.0082	11.6
0.0075	-0.0008	-0.1538	0.006	11.6
0.0105	-0.0015	-0.1478	0.006	11.6
0.0142	0.0007	-0.1403	0.0075	11.8
0.0157	0.0007	-0.1373	0.0075	11.9
0.0127	-0.0008	-0.1313	0.0067	12.1
0.012	-0.0023	-0.1253	0.0052	12.1
0.0112	-0.0038	-0.1208	0.0045	12.1
0.0075	-0.0015	-0.1103	0.0045	12.4
0.0067	-0.0008	-0.0953	0.0052	12.5
0.0022	0.0015	-0.0788	0.0075	12.6
0.003	0.0067	-0.057	0.009	12.8
0.003	0.0052	-0.0413	0.0112	12.8
0.0007	0.0052	-0.0285	0.0075	12.9
-0.0008	-0.0023	-0.015	-0.0091	13.1
-0.0046	-0.0113	-0.0015	-0.021	13.5
-0.006	-0.0091	0.0112	-0.0173	13.4
-0.0075	-0.0068	0.0202	-0.0098	13.7
-0.0083	-0.0053	0.024	-0.0083	13.6
-0.0083	-0.003	0.0255	-0.0053	14
-0.0083	0.0007	0.0255	0.0007	13.9
-0.0075	0.0052	0.0255	0.003	14.4
-0.012	0.0135	0.027	0.0082	14.2
-0.0135	0.012	0.0307	0.009	14.6
-0.012	0.0067	0.0315	0.006	14.7
-0.012	0.0112	0.0307	0.003	14.9
-0.0113	0.0052	0.0337	0.0045	15
-0.012	-0.003	0.0412	0.0142	15.1
-0.0105	-0.0053	0.048	0.0045	15.5
-0.0105	-0.0046	0.0555	-0.012	15.4
-0.0091	0.0097	0.06	-0.0113	15.9
-0.006	0.0165	0.063	-0.012	15.7
-0.006	0.0082	0.0667	-0.0203	16.1
-0.0053	-0.0105	0.0712	-0.0218	15.9
-0.0038	-0.0225	0.0787	-0.0143	16.5
-0.0008	-0.0053	0.0825	0.0022	16.4
-0.0015	0.0045	0.0832	0.0082	16.7
-0.0008	-0.0128	0.087	-0.012	16.7
0.0007	-0.0135	0.0892	-0.0195	17
0.006	-0.0046	0.09	-0.0181	17
0.0082	0.0082	0.093	0.0015	17.4
0.0045	0.0105	0.0975	0.0157	17.5
0.0052	-0.003	0.1005	0.012	17.7
0.0045	-0.0113	0.099	0.0217	17.9
0.0037	-0.0405	0.0982	0.0195	17.8
-0.0008	-0.0218	0.0975	0.0007	18.1
-0.003	0.009	0.093	-0.0128	18.1
-0.0015	0.012	0.0922	-0.006	18.7
-0.003	0.0202	0.0892	-0.0046	18.6
-0.0053	0.0015	0.084	-0.0075	19.1
-0.006	0.0007	0.078	0.0045	19.1
-0.0053	-0.0046	0.0667	0.0045	19.3
-0.0053	0.0022	0.06	0.0142	19.5
-0.0068	0.024	0.0622	0.018	19.8
-0.0038	0.021	0.0652	0.018	20.1
-0.0038	0.0195	0.0705	0.0195	20.2
-0.003	0.0067	0.0577	0.0142	20.2
-0.0046	0.0007	0.0367	0.0052	20.5
-0.0046	0.0007	0.0292	-0.0046	20.7
-0.0038	0.0052	0.0165	-0.0015	21
-0.0053	0.0022	0.0135	0.006	21.3
-0.0068	0	0.0645	0.024	21.4
-0.006	0.0052	0.1672	0.024	21.7
-0.0046	-0.0128	0.2595	-0.0068	22
-0.0068	-0.0158	0.3165	-0.033	22
-0.0091	-0.0075	0.3615	-0.0443	22.5
-0.0128	-0.003	0.3877	-0.0203	22.5
-0.0128	0.0045	0.3825	0.0015	23
-0.0098	0.0037	0.3442	0.0045	23
-0.0091	0.0022	0.2782	0.0135	23.3
-0.0083	0.0015	0.1912	0.0202	23.5
-0.0098	0.0015	0.0922	0.0127	24.1
-0.0053	-0.0038	-0.0143	-0.003	24.1
0.0015	-0.0053	-0.1155	-0.0068	24.3
0.0045	0	-0.195	-0.0008	24.6
0.006	0.0022	-0.2595	0.0165	24.8
0.0082	0.0022	-0.3195	0.0247	25.2
0.0082	0.0015	-0.3788	0.0082	25.4
0.006	0.0052	-0.4245	0.0022	25.8
0.0052	0.0045	-0.4598	0.0045	26
0.0052	0.0045	-0.4785	0.006	26.3
0.0037	0.0052	-0.4973	0.012	26.3
0.0037	0.0045	-0.5213	0.0127	26.9
0.0037	0.0045	-0.5175	0.0082	26.8
0.0015	-0.0023	-0.4958	0.0082	27.4
0.003	-0.0091	-0.4688	0.0255	27.4
0.0052	-0.0158	-0.4463	-0.0023	27.9
0.0045	-0.0181	-0.429	-0.0743	27.8
0.0015	-0.0068	-0.411	-0.0675	28.4
0.0015	0.0075	-0.3848	-0.0263	28.7
0.0045	0.0105	-0.3436	0.0007	29
0.0067	0.012	-0.315	0.015	29.2
0.0052	0.012	-0.3023	-0.0098	29.3
0.003	0.012	-0.2881	-0.0443	29.9
0	0.0067	-0.2745	-0.0675	29.8
-0.0015	0	-0.261	-0.0428	30.5
-0.0015	-0.0068	-0.2423	-0.0091	30.6
0.0007	-0.0068	-0.2153	0.003	30.9
0.006	0.0045	-0.1845	-0.0038	30.9
0.009	0.009	-0.1635	-0.0338	31.6
0.0097	0.0045	-0.1298	-0.0218	31.5
0.0127	0	-0.0623	-0.0046	31.9
0.0135	-0.006	-0.0165	-0.0046	32
0.0142	-0.0098	-0.075	0.0097	32.4
0.0142	-0.0158	-0.198	0.0337	32.7
0.0142	-0.0203	-0.3578	0.0465	32.8
0.0127	-0.0188	-0.5213	0.0217	33.1
0.0105	-0.0046	-0.5558	-0.0158	33.3
0.0075	0.0105	-0.5138	-0.0788	33.7
0.0067	0.018	-0.4553	-0.075	33.6
0.0052	0.0217	-0.3143	0.018	34
0.0052	0.0157	-0.1223	0.0315	33.9
0.0082	0.0105	0.0585	0.0337	34.4
0.012	0.009	0.1867	0.063	34.4
0.024	0.003	0.2827	0.0577	34.7
0.0397	-0.0015	0.501	0.0517	34.7
0.0405	-0.0068	0.7425	0.0195	35.1
0.0112	-0.0135	0.7957	0.0172	35
-0.0083	-0.0105	0.7867	0.084	35.2
-0.0075	-0.0113	0.7635	0.1575	35.4
-0.0135	-0.0181	0.729	0.1117	35.5
-0.0105	-0.0256	0.705	-0.0503	35.5
-0.0053	-0.0263	0.6967	-0.1703	35.6
-0.006	0.0007	0.7185	-0.1335	35.7
-0.0158	0.024	0.726	-0.0308	35.8
-0.0218	0.0142	0.735	-0.012	36.1
-0.0293	0.0112	0.711	-0.0015	36.2
-0.0368	0.0067	0.6502	0.0007	36.2
-0.0436	-0.0008	0.5707	0.0015	36.4
-0.0548	0.003	0.4665	0.0292	36.4
-0.0608	-0.0008	0.3255	0.0187	36.5
-0.0563	-0.0053	0.1837	0.003	36.8
-0.0495	-0.0083	0.078	0.0157	36.8
-0.0405	-0.0113	-0.0165	0.0555	36.8
-0.0361	-0.0083	-0.0818	0.054	36.9
-0.0338	-0.003	-0.1403	0.033	37
-0.0233	-0.0046	-0.186	0.0082	37
-0.0165	-0.003	-0.2033	-0.0158	37.3
-0.0173	0.009	-0.1913	-0.0038	37.2
-0.0105	0.0157	-0.1373	-0.0128	37.5
-0.0068	0.0142	-0.0668	-0.0015	37.4
-0.003	0.009	0.018	0.009	37.5
0	0.0022	0.0975	-0.003	37.5
0.0015	0.0037	0.1462	0.0067	37.8
0.0007	0.0045	0.156	0.0105	37.7
-0.0038	0	0.1387	0.0127	37.9
-0.0023	-0.006	0.1215	0.0112	37.9
-0.0015	-0.015	0.1125	0.0075	38
0	-0.0248	0.1237	0.003	38
0.0045	-0.0278	0.1372	-0.021	38.2
0.009	-0.012	0.1327	-0.048	38.3
0.012	0.018	0.1372	-0.0308	38.5
0.012	0.036	0.132	-0.0278	38.6
0.012	0.018	0.093	-0.0638	38.6
0.0157	0.0015	0.066	-0.0428	38.9
0.0217	0.009	0.105	-0.0181	38.9
0.0195	0.0015	0.15	-0.0555	39
0.0165	0.0007	0.111	-0.0533	38.9
0.0142	0.0045	0.06	-0.0256	39.4
0.0097	0.0022	0.0067	-0.021	39.3
-0.0008	0.0007	-0.0563	-0.0128	39.7
-0.033	-0.0015	-0.0181	-0.0083	39.8
-0.048	0.003	0.0667	0.0195	40.1
-0.0315	0.0007	0.051	0.0472	40.3
-0.027	0.0007	-0.039	0.0532	40.6
-0.0181	-0.003	-0.1478	0.027	40.8
-0.0023	-0.006	-0.0863	-0.0165	41
0.0067	-0.006	0.063	-0.0383	41.4
0.0202	-0.0075	-0.0721	-0.0105	41.6
0.0277	-0.0083	-0.2063	0.0045	41.8
0.027	-0.012	-0.2618	-0.0233	42.1
0.0202	-0.0015	-0.2993	0.0127	42.3
0.024	-0.0015	-0.261	0.0495	42.6
0.0247	-0.0053	-0.2806	0.048	42.9
0.0165	0	-0.2798	0.0292	43.1
0.0045	-0.0015	-0.309	-0.0158	43.4
-0.0195	0.003	-0.3518	-0.0428	43.6
-0.0218	0	-0.3983	-0.0278	43.9
-0.0135	0.006	-0.4793	0.0127	44.2
-0.0068	0.012	-0.5581	0.009	44.5
0.0015	0.0037	-0.6256	0.0052	44.8
0.0075	0.0037	-0.642	0.0105	44.9
0.0135	-0.0015	-0.618	0.0052	45.4
0.0217	-0.0008	-0.5693	0.018	45.3
0.0315	-0.0008	-0.5153	0.0135	45.7
0.036	0.003	-0.4403	0.0165	46
0.0262	0.0082	-0.375	0.0112	46.3
0.0142	0.003	-0.3075	0.0052	46.3
0.0202	-0.003	-0.2408	0.003	46.6
0.0292	-0.0053	-0.1785	-0.0068	47
0.0315	0.0007	-0.1058	0.0007	47
0.0382	0.0045	-0.057	0.0082	47.4
0.0412	0.0052	-0.0068	0.0075	47.4
0.039	0.003	0.0315	0.0007	47.9
0.0352	0.003	0.0652	0.0045	47.8
0.0292	0.0045	0.1102	0.006	48.2
0.0202	0.0015	0.1612	0.0045	48.2
0.0127	0.0015	0.219	0.006	48.6
0.0067	0.0015	0.2445	0.003	48.5
0.003	0.0015	0.2452	0.0082	48.7
-0.0015	0.003	0.2212	0.0195	48.8
-0.0015	0.0015	0.1837	0.0255	48.9
-0.0008	0.0037	0.1597	0.0105	49
0.0112	0.0015	0.1935	-0.0158	49.2
0.0315	0.0015	0.2827	-0.0368	49.3
0.0427	0.0052	0.321	-0.021	49.2
0.042	0.003	0.324	-0.003	49.7
0.0382	0.0007	0.321	-0.012	49.5
0.0292	0.0015	0.2917	-0.0046	49.9
0.024	0	0.291	-0.0046	49.9
0.0165	0.0045	0.3142	-0.0008	50.2
0.0127	0.006	0.3232	0.0052	50
0.0082	0.0007	0.3127	0.0045	50.3
0.0037	-0.0015	0.3082	0.0052	50.1
0.0007	-0.0053	0.294	-0.0135	50.4
-0.0015	-0.0075	0.2512	-0.0383	50.3
-0.0038	-0.0105	0.21	-0.042	50.4
-0.0068	-0.0105	0.1747	-0.0143	50.4
-0.0068	0.0015	0.1335	-0.0046	50.5
-0.0105	0.0045	0.0975	0.012	50.6
-0.0143	0.0007	0.069	0.0292	50.5
-0.0158	-0.0015	0.03	-0.003	50.6
-0.0203	-0.006	0.0067	0.0045	50.6
-0.0195	0.0082	0.0075	0.0157	50.8
-0.0173	0.0135	0.0067	-0.021	50.6
-0.0188	0.0037	-0.0083	-0.0465	50.8
-0.0188	0.0067	-0.027	-0.048	50.7
-0.0195	0.0142	-0.0218	-0.027	50.8
-0.0188	0.0165	-0.0143	-0.0083	50.8
-0.0181	0.0067	-0.0368	-0.0195	50.8
-0.0188	0.0015	-0.0975	-0.0218	50.9
-0.0173	0	-0.1411	-0.0165	50.8
-0.0158	-0.0046	-0.1358	-0.0188	50.9
-0.0165	-0.0023	-0.1313	-0.0143	50.9
-0.0158	-0.0046	-0.1253	-0.0165	51
-0.0158	-0.0038	-0.108	-0.0143	51
-0.0158	-0.0046	-0.093	-0.015	51.2
-0.0181	-0.006	-0.0908	-0.0158	50.9
-0.0203	-0.0075	-0.0818	-0.012	51.1
-0.0188	-0.006	-0.0713	-0.0128	51
-0.0195	-0.0023	-0.0683	-0.0128	51.1
-0.0173	-0.0046	-0.0608	-0.0308	51
-0.0158	-0.0053	-0.06	-0.0361	51
-0.0158	-0.0068	-0.0608	-0.0203	51
-0.0165	-0.006	-0.0608	0.0007	51.1
-0.0158	0.006	-0.0533	0.0457	51.2
-0.0165	0.0217	-0.0503	0.048	51
-0.0158	0.0105	-0.0623	0.0075	51.1
-0.015	-0.0068	-0.0765	0.0082	51
-0.0143	-0.0015	-0.0773	0.033	51
-0.0105	0.0052	-0.0645	0.048	50.9
-0.012	0.003	-0.0495	-0.0008	50.8
-0.012	-0.0181	-0.0383	-0.0578	50.9
-0.012	-0.0203	-0.0293	-0.042	50.8
-0.012	-0.0068	-0.0091	-0.0293	51
-0.0091	-0.0008	0.003	-0.027	50.8
-0.0075	-0.0015	0.012	-0.0165	50.9
-0.0068	-0.0038	0.0397	0.0007	50.6
-0.0053	0.0045	0.0652	0.0345	51
-0.0015	0.0142	0.0772	0.0585	50.7
-0.0023	0.0067	0.0742	0.045	50.8
0.0007	-0.0053	0.0877	0.0045	50.6
0.0045	-0.006	0.1095	-0.0346	50.7
0.0052	0.003	0.1117	-0.03	50.5
0.0022	0.015	0.0712	0.0067	50.8
0.0037	0.012	0.0052	0.0195	50.6
0.0067	0.0022	-0.0105	0.0232	50.5
0.003	0.0007	-0.0128	0.0322	50.6
0.003	-0.0008	-0.027	0.033	50.5
0.0037	-0.0091	-0.0346	0.0195	50.7
0.0007	-0.006	-0.0503	0.012	50.5
0	0.0015	-0.057	0.0075	50.6
0.0022	0.0067	-0.0653	0.0037	50.4
0.0022	0.0142	-0.0773	0.0352	50.7
0.0022	0.0105	-0.093	0.0487	50.4
0.003	-0.003	-0.108	0.0255	50.6
0.003	-0.003	-0.1178	0.0307	50.3
0.0045	-0.003	-0.1178	0.024	50.4
0.0045	-0.003	-0.105	0.0187	50.1
0.0022	-0.0038	-0.1088	0.0232	50.2
0.0015	-0.0046	-0.108	0.018	49.9
0.0037	-0.0023	-0.1006	0.0165	49.9
0.0015	-0.0068	-0.0968	0.009	49.9
-0.0015	-0.0075	-0.093	0.0202	49.7
0.0007	-0.003	-0.09	0.0277	49.9
0.0015	-0.0008	-0.084	0.0247	49.5
-0.0015	0.0007	-0.0668	0.0082	49.6
-0.0008	-0.0015	-0.0518	-0.0173	49.4
-0.0008	-0.0053	-0.0465	-0.0083	49.5
0.0037	0	-0.0233	0.0067	49.1
0.009	0.0015	-0.0105	0.0007	49.3
0.0052	-0.003	-0.006	0.0015	49.1
0.0037	-0.0008	0.009	0.0007	49.1
0.003	0	0.024	-0.0023	48.8
0.0015	0.0015	0.033	-0.0008	48.9
0.003	0.0015	0.0352	-0.0015	48.7
0.0015	0.0022	0.0352	-0.0008	48.7
-0.0008	0.0022	0.039	0.0007	48.5
0.0015	0.0015	0.0532	0	48.3
0.0007	0.0015	0.0495	0.0022	48.2
0.0015	0	0.0577	0.003	48.1
-0.0008	0.0007	0.0712	0.0022	47.9
-0.0015	0.0022	0.0765	0.003	47.6
0.0007	0.0015	0.0877	0.0052	47.6
-0.0008	0.0007	0.0937	0.0067	47.3
-0.003	0.0022	0.1042	0.0045	47.4
0.0007	0.0015	0.0975	0.003	47.2
-0.0008	0.0007	0.0915	0.0007	46.9
-0.0023	0.0007	0.0952	-0.0015	46.8
-0.003	0	0.0937	-0.0023	46.5
-0.0046	0.0022	0.0937	-0.003	46.6
-0.0053	0.003	0.1005	-0.0046	46.3
-0.0038	0.003	0.0967	-0.0038	46
-0.0046	0	0.087	-0.0046	46
-0.0053	0.0007	0.0982	-0.0053	45.7
-0.006	0.003	0.1095	-0.0038	45.6
-0.0068	0.003	0.1065	-0.003	45.5
-0.0046	0.003	0.1012	-0.0046	45.3
0	0.0015	0.099	-0.0053	45.1
0.0015	0.0022	0.0975	-0.0046	45
-0.0038	0.0015	0.0967	-0.0046	44.7
-0.0068	0.0007	0.0975	-0.0053	44.6
-0.0046	0.0015	0.0877	-0.0046	44.4
-0.003	0.0022	0.0712	-0.0046	44.2
-0.0015	0.0015	0.0675	-0.003	43.9
-0.0023	0.0015	0.066	-0.003	44.1
-0.0046	0.0015	0.0495	-0.0046	43.6
-0.0053	0.0015	0.033	-0.0046	43.7
-0.0053	0.0007	0.0262	-0.0023	43.2
-0.0053	0.0007	0.027	0.0015	43.2
-0.0068	0.0022	0.009	0.0067	42.9
-0.0075	0.0007	-0.0203	0.006	42.7
-0.0083	-0.0008	-0.0428	0.0022	42.6
-0.0053	-0.0038	-0.0706	-0.0098	42.4
-0.0038	-0.006	-0.0908	-0.0218	42.3
-0.006	-0.0053	-0.1013	-0.012	41.9
-0.0068	-0.0008	-0.1035	-0.0143	41.9
-0.0053	0.0045	-0.0908	-0.0248	41.5
-0.0023	0.0067	-0.0818	0.0007	41.6
-0.0008	0.012	-0.0683	0.009	41.2
-0.0008	0.0075	-0.0458	-0.0015	41.1
0.0015	0.0022	-0.0383	-0.0008	40.7
0.0037	0.0007	-0.0428	-0.0091	40.6
0.0022	-0.0015	-0.054	-0.0083	40.4
0.0007	-0.0015	-0.0758	-0.0023	40.3
0.0007	-0.003	-0.084	0.0067	40
-0.0015	-0.0015	-0.0878	0.0195	39.9
-0.0008	0	-0.09	0.0262	39.6
0.0015	0.0015	-0.0878	0.024	39.4
0.0045	0.0007	-0.084	0.0112	39.2
0.006	-0.0068	-0.0773	-0.0091	39
0.0067	-0.0098	-0.081	-0.0158	38.8
0.0075	0	-0.0728	0.015	38.5
0.0052	0.0105	-0.0578	0.0142	38.3
0.009	0.0052	-0.0548	-0.024	38.2
0.0052	0.0007	-0.0585	-0.0473	37.9
0.0007	0.0037	-0.057	-0.0443	37.8
-0.0008	0.0015	-0.0495	-0.0293	37.3
-0.003	-0.003	-0.057	-0.0233	37.3
-0.0008	0.0007	-0.0578	-0.0015	37
-0.0015	0.0037	-0.0465	0.0127	36.8
-0.0038	0.006	-0.0428	0.0217	36.7
-0.0038	0.0067	-0.0353	0.0262	36.4
-0.0053	-0.0008	-0.0293	0.003	36.2
-0.003	-0.0091	-0.027	-0.0233	35.9
-0.003	-0.0135	-0.021	-0.0458	35.6
-0.0046	-0.0098	-0.012	-0.0233	35.6
-0.0053	-0.003	0.0015	0.0172	35.4
-0.0068	0.0007	0.012	0.021	35.1
-0.0046	0.0075	0.0195	0.0352	35.1
-0.003	0.0157	0.0262	0.0502	34.6
-0.0008	0.009	0.0367	0.0142	34.7
-0.0023	-0.003	0.048	-0.0375	34.2
-0.003	-0.0023	0.0502	-0.0608	34.1
-0.0015	0	0.0435	-0.0518	33.8
-0.0015	-0.0046	0.0397	-0.042	33.7
-0.0015	-0.0038	0.0397	-0.0256	33.3
0	0.0015	0.0382	0.0045	33.2
-0.0008	0.0022	0.0375	0.0045	33
0.0007	0.0007	0.0367	0.0052	32.8
0.0037	0.0015	0.0352	0.0135	32.4
0.003	0.0022	0.033	0.0105	32.1
0.003	0.003	0.0277	0.0157	32.2
0.0037	0.0037	0.0202	0.0127	31.8
0.0052	-0.0008	0.0217	0.0135	31.6
0.003	-0.0015	0.0247	0.0142	31.2
0.0037	-0.0008	0.0292	0.0127	31
0.0052	-0.0008	0.0307	0.015	30.7
0.0037	-0.0008	0.0187	0.0135	30.7
0.0022	-0.003	0.0202	0.015	30.3
0.0015	-0.0015	0.03	0.0142	30.2
0.0015	-0.0015	0.027	0.012	29.9
0.0015	-0.003	0.0277	0.0097	29.9
0	-0.0015	0.039	0.0097	29.6
-0.0008	-0.0015	0.054	0.0105	29.2
0.0007	-0.0023	0.0682	0.009	29.1
-0.0008	-0.0015	0.0765	0.009	28.9
-0.0008	-0.0008	0.075	0.0082	28.8
-0.0008	0	0.069	0.0082	28.3
-0.0023	0.0007	0.0637	0.009	28.3
-0.0023	0	0.0585	0.0082	28
-0.0038	0	0.0495	0.0082	28
-0.0038	-0.0015	0.033	0.0082	27.5
-0.0053	-0.003	0.0172	0.0082	27.6
-0.0068	-0.0008	0.0052	0.0097	27.2
-0.0053	-0.003	-0.0053	0.012	27
-0.0046	-0.003	-0.0165	0.0135	26.9
-0.0053	-0.0008	-0.0256	0.0127	26.6
-0.0091	-0.0046	-0.033	-0.0015	26.5
-0.0068	-0.0068	-0.039	-0.0113	26.3
-0.003	-0.0046	-0.0465	-0.0015	26.1
-0.0015	-0.0015	-0.0495	0.009	25.9
0.0007	0.0022	-0.0503	0.003	25.7
0.0007	0.0052	-0.0518	0.012	25.6
0.0007	0.0105	-0.0533	0.0255	25.4
0.0007	0.0082	-0.0555	-0.003	25.1
0.0007	-0.0023	-0.0638	-0.0285	25
-0.003	-0.0046	-0.0668	-0.0158	24.8
-0.0023	-0.0015	-0.0638	0.0015	24.5
0.0007	-0.0008	-0.0578	0.0052	24.5
0	0.0015	-0.0518	0.0217	24.1
-0.0008	0.003	-0.0495	0.033	24
-0.0008	0.0007	-0.0465	0.0217	23.7
0.0007	-0.0008	-0.0405	0.0127	23.8
0.003	-0.003	-0.0315	-0.012	23.4
0.003	-0.0075	-0.024	-0.054	23.2
0.003	-0.0068	-0.0195	-0.048	22.9
0.0015	-0.0046	-0.0098	-0.0083	22.7
0.0015	-0.0053	-0.0015	-0.0083	22.6
0.0015	-0.0053	0.0007	-0.006	22.4
0.0022	-0.003	0	-0.0008	22.3
0.0022	-0.003	0.0015	-0.0083	21.9
0.0015	-0.0015	0.0045	-0.0046	21.8
0.0022	-0.0015	0.0105	-0.0046	21.6
0.0015	-0.0008	0.018	0.0007	21.5
0.0022	0	0.024	0.0007	21.1
0.0007	0	0.033	-0.0015	21.2
0	-0.0008	0.0352	0.0015	20.7
-0.0008	-0.0015	0.0337	0.0007	20.7
-0.0023	0	0.0352	0.003	20.3
-0.0015	0	0.0285	0.0015	20.2
0	0	0.0255	0.0015	20.1
0.0007	0.0007	0.0307	0.0015	20
-0.0023	-0.0015	0.0307	-0.0015	19.7
-0.0008	-0.0015	0.015	-0.003	19.5
0.0015	-0.0008	0.0007	-0.003	19.5
0.0007	0.0007	-0.0023	-0.003	19.1
-0.0008	0.0007	0.006	-0.0008	19.1
-0.0008	0.0015	0.018	0.003	18.6
-0.0023	0.0037	0.0202	0.0022	18.6
-0.0023	0.0022	0.0112	-0.0015	18.2
-0.0038	0.0007	-0.0008	-0.0038	18.2
-0.0038	0.0007	-0.0046	-0.0023	17.8
-0.0008	0.0015	-0.0068	-0.003	17.8
-0.0008	0.0022	-0.0046	-0.003	17.3
-0.0008	0.0022	-0.0008	0.0007	17.4
-0.0008	0.0015	0.003	0.0022	17
0.0007	0.0007	0.0142	0.0022	17
-0.0008	0.0015	0.0157	0.0015	16.7
0.0007	0.003	0.0127	0.0045	16.7
0.0007	0.0022	0.0052	0.0075	16.4
-0.0008	0.003	0.006	0.0067	16
0.0007	0.0015	0.0082	0.003	16.1
0.0015	0.0022	-0.0135	0.003	15.6
0.0015	0.0022	-0.0256	0.0045	15.7
0.0007	0.0037	-0.0346	0.0075	15.1
0.0015	0.006	-0.0353	0.0067	15.2
0.0037	0.0007	-0.0083	-0.0023	14.8
0.0037	-0.0015	0.0435	-0.0053	14.8
0.0007	-0.0015	0.1252	-0.0091	14.6
0.0007	-0.0015	0.189	-0.0128	14.2
0.0007	0.0007	0.231	-0.0075	14.1
0.0037	0.003	0.2557	0.0015	14.1
0.0045	0.0052	0.2107	0.0082	13.8
0.0007	0.0067	0.1725	0.0075	13.6
0.0015	0.0052	0.1575	0.0052	13.3
0.0022	0.0045	0.1207	0.0022	13.3
0	0.0037	0.0945	-0.0046	13.2
0.0007	0.0007	0.057	-0.0053	12.9
0.003	0.0007	0.0127	-0.0023	12.9
0.0015	0.0007	-0.0181	-0.0008	12.5
0.0007	0.0007	-0.0495	-0.0008	12.4
0.0007	-0.0008	-0.0856	-0.0015	12.4
0.0022	-0.003	-0.1223	-0.0008	12.2
0.0037	-0.0023	-0.1726	0.0007	12
0.0007	-0.0008	-0.2325	0.0045	11.8
-0.0015	-0.0008	-0.2828	0.0105	11.7
-0.0015	0.0007	-0.3353	0.009	11.6
-0.0015	0.0045	-0.3855	0.006	11.4
-0.0015	0.0045	-0.4215	0.0075	11.2
-0.0046	0.0045	-0.4493	0.006	11.1
-0.0068	0.0015	-0.465	0.0052	10.9
-0.0068	-0.0015	-0.4665	-0.0015	10.7
-0.0091	-0.0038	-0.4313	-0.0105	10.7
-0.0105	-0.0038	-0.3668	-0.0203	10.4
-0.0075	-0.0008	-0.3375	-0.0308	10.4
-0.006	-0.0015	-0.4043	-0.0278	10.1
-0.0083	-0.0015	-0.5611	-0.0225	10
-0.0091	0.0007	-0.7365	-0.0113	9.8
-0.0068	0.0052	-0.8213	0.0045	9.8
-0.003	0.009	-0.8745	0.012	9.5
0.0052	0.0067	-0.9113	0.009	9.5
0.0135	0.009	-0.7958	0.0045	9.3
0.0187	0.0105	-0.5521	-0.0008	9.3
0.012	0.0097	-0.2573	-0.0128	9
0.0082	0.0135	0.0255	-0.0143	8.9
0.0082	0.0157	0.2752	-0.0068	8.9
0.0052	0.0142	0.4972	-0.0075	8.7
0.0067	0.0127	0.6817	-0.003	8.7
0.0045	-0.0173	0.8197	0.0052	8.3
0.0022	-0.0563	0.912	0.0112	8.4
-0.0008	-0.039	0.978	0.0292	8.1
-0.0008	-0.0128	1.0095	0.0232	8.1
-0.0038	-0.0046	1.014	-0.0015	8
-0.006	0.0007	0.9945	-0.0046	8
-0.0075	0.003	0.9547	-0.0046	7.6
-0.0105	0.009	0.8962	-0.0128	7.6
-0.0083	-0.0008	0.8227	-0.0308	7.5
-0.0015	0.0045	0.7387	-0.0181	7.4
0.003	0.0105	0.6435	0.012	7.3
0.0037	0.0082	0.546	0.0052	7.3
0.0015	0.006	0.4425	-0.0053	7.2
-0.0015	-0.0008	0.3367	-0.012	7.1
-0.0053	-0.0015	0.2325	-0.0105	7
-0.0068	-0.0023	0.144	0.003	6.8
-0.0083	0	0.0705	0.0045	7
-0.015	0.0015	0.015	0.0052	6.7
-0.0233	0.0067	-0.0181	0.0082	6.7
-0.0218	0.0015	-0.0368	0.0007	6.4
-0.0203	-0.0015	-0.0368	-0.0053	6.6
-0.021	0.003	-0.0308	0.0015	6.3
-0.0181	0.0067	-0.0158	0.0075	6.5
-0.0143	0.0045	-0.0008	0.003	6.3
-0.012	-0.0008	0.0127	0.0007	6.3
-0.0091	0.0007	0.0322	0.006	6.2
-0.006	0.0015	0.0517	0.0105	6.2
-0.0015	0.0045	0.0592	0.0112	5.9
0.0015	0.0045	0.06	0.0097	6
0.0015	0.0052	0.0555	0.0097	5.8
0.0015	0.0045	0.0435	0.009	5.8
0.0037	0.0007	0.03	0.0045	5.7
0.0045	0.0007	0.012	0.003	5.6
0.0052	0.0015	-0.012	0.0022	5.5
0.003	-0.0015	-0.0346	-0.0008	5.5
0.0007	-0.0046	-0.0555	-0.0023	5.4
-0.0008	-0.0015	-0.0713	-0.0008	5.4
-0.0015	-0.0008	-0.0825	-0.0046	5.2
0.0007	-0.0046	-0.084	-0.0098	5.3
0.0007	-0.0068	-0.0721	-0.0105	5.1
0	-0.0053	-0.0473	-0.0083	5.3
-0.0008	-0.003	-0.003	-0.0046	5
0.003	-0.0038	0.0577	-0.003	5.3
0.0067	-0.003	0.1365	-0.003	5
0.0075	-0.0015	0.2325	0.0015	5.1
0.0067	0	0.3157	0.0045	4.9
0.006	0.0007	0.339	0.0045	4.7
0.0052	0.0015	0.2955	0.003	4.9
0.0045	0.0022	0.2347	0.0067	4.7
0.006	0.0045	0.195	0.0097	4.8
0.0067	0.0052	0.135	0.0052	4.4
0.0045	0.003	0.0105	-0.0015	4.4
0.0045	-0.0008	-0.135	-0.0105	4.2
0.009	-0.003	-0.2475	-0.012	4.5
0.012	-0.0046	-0.3481	-0.0083	4.1
0.012	-0.006	-0.4538	-0.0091	4.3
0.0127	-0.0046	-0.5521	-0.0053	4
0.012	0	-0.627	-0.0015	4.2
0.009	0.0007	-0.6893	0.0007	3.9
0.0097	0	-0.7426	0.003	4
0.0105	-0.0008	-0.7838	0.0007	4
0.0097	-0.0023	-0.801	-0.0015	3.9
0.009	-0.0008	-0.7898	-0.0046	3.7
0.009	0.0007	-0.765	-0.0083	3.7
0.0105	-0.0015	-0.7215	-0.0105	4
0.009	-0.006	-0.6668	-0.0068	3.7
0.009	-0.0068	-0.6038	0.0052	3.9
0.0082	0	-0.5445	0.0135	3.6
0.0105	0.0045	-0.4883	0.0217	3.8
0.0127	0.0127	-0.4215	0.0292	3.7
0.0105	0.0195	-0.3653	0.0255	3.9
0.009	0.0195	-0.3248	0.018	3.8
0.0052	0.018	-0.2888	0.0127	3.9
0.003	0.0232	-0.2543	0.009	3.8
0.0022	0.0315	-0.2288	0.0022	4
0.0015	0.0292	-0.2093	-0.0053	3.8
0.0007	0.0202	-0.1845	-0.003	3.8
-0.0008	0.015	-0.1381	0.006	3.9
-0.0008	0.0165	-0.0885	0.0097	3.9
-0.0008	-0.0315	-0.048	-0.0038	4
-0.0046	-0.099	-0.0188	-0.015	4
-0.0046	-0.075	-0.012	-0.0158	4.3
-0.0015	-0.057	0.0127	-0.0181	4.1
-0.0046	-0.054	0.057	-0.006	4.4
-0.0068	-0.0008	0.0975	0.009	4.4
-0.0075	-0.0008	0.1462	0.012	4.5
-0.0128	0.0022	0.2115	0.015	4.3
-0.0158	0.0255	0.3082	0.0165	4.4
-0.0135	0.0255	0.3825	0.0142	4.4
-0.0143	0.0225	0.4282	0.0075	4.4
-0.0143	0.0202	0.4687	0.0067	4.7
-0.0128	0.0352	0.486	0.012	4.6
-0.0128	0.0352	0.495	0.0112	4.9
-0.0113	0.0105	0.5047	0.0082	4.9
-0.0105	-0.0315	0.516	0.0105	4.9
-0.012	-0.0195	0.51	0.0165	5
-0.012	0.0195	0.4935	0.0247	4.9
-0.0098	0.0082	0.4777	0.0255	5.2
-0.0098	0	0.4552	0.012	4.9
-0.0098	-0.0233	0.4477	0.003	5.2
-0.0068	-0.021	0.432	0.012	5.1
-0.0053	-0.0091	0.4012	0.0127	5.3
-0.0083	-0.0091	0.3765	0.0112	5.1
-0.0113	-0.0068	0.3562	0.0015	5.5
-0.0098	-0.0128	0.3427	-0.0046	5.2
-0.0068	-0.0046	0.318	-0.0046	5.5
-0.0008	-0.0038	0.2835	-0.0098	5.3
0.0015	0.0045	0.2505	-0.0165	5.6
0.0067	0.0142	0.2212	-0.0353	5.5
0.0097	0.0315	0.186	-0.0285	5.5
0.0082	0.0465	0.1462	-0.0181	5.8
0.0075	0.0397	0.1065	-0.024	5.7
0.0045	0.039	0.0697	-0.0195	5.9
-0.0015	0.0352	0.0352	-0.0195	5.8
-0.003	0.027	-0.0008	-0.0023	6.1
-0.0008	0.0127	-0.0315	0.009	5.8
0.0007	0.0217	-0.0578	0.009	6.1
-0.0008	0.0435	-0.0818	0.0157	5.9
-0.0008	0.039	-0.108	0.018	6.2
-0.0023	0.0075	-0.1365	0.0142	6
-0.0015	-0.0308	-0.1613	0.0135	6.4
-0.0046	-0.033	-0.1875	0.0352	6.3
-0.0083	-0.0465	-0.2041	0.0435	6.7
-0.0046	-0.093	-0.2168	0.0247	6.5
-0.0053	-0.0871	-0.228	0.012	6.7
-0.0075	-0.0473	-0.2325	-0.0083	6.7
-0.0046	-0.027	-0.2288	-0.0285	6.8
-0.0008	-0.0256	-0.222	-0.0398	6.9
-0.0015	-0.0256	-0.2175	-0.042	6.7
-0.0023	0.003	-0.2108	-0.0053	7.1
0.0022	0.0195	-0.1958	0.0195	7
0.0082	-0.0046	-0.1823	0	7.2
0.0097	-0.0248	-0.177	-0.0075	7
0.0082	-0.012	-0.1665	-0.0038	7.4
0.0067	0.0112	-0.1538	0.0255	7.1
0.0015	0.006	-0.1411	0.0555	7.3
-0.0015	0.0187	-0.1298	0.0435	7.3
-0.0046	0.024	-0.1095	0.03	7.6
-0.0046	0.0217	-0.0833	0.009	7.5
-0.0046	0.0202	-0.0615	-0.0143	7.6
-0.0015	-0.0023	-0.0443	-0.0346	7.5
-0.0015	-0.0008	-0.0278	-0.0518	7.5
-0.0046	0.0097	-0.0091	-0.039	7.6
-0.003	0.0082	0.0052	-0.0105	7.6
-0.003	0.0142	0.018	0.0052	7.8
0	0.0232	0.0367	0.015	7.5
0.003	0.0225	0.0525	0.0225	7.8
0.0045	0.0232	0.0615	0.0112	7.5
0.0022	0.0247	0.0577	-0.0053	7.7
0.0007	0.0277	0.0532	-0.0195	7.5
0.0007	0.0307	0.051	-0.0398	7.6
0.0007	0.0277	0.0457	-0.057	7.4
0.0015	0.0277	0.0427	-0.0743	7.6
0.0015	0.0127	0.0382	-0.0578	7.3
0.0015	-0.024	0.0345	-0.0195	7.4
0.0052	-0.0623	0.024	0.0127	7.4
0.003	-0.0495	0.0052	0.0427	7.5
-0.0015	0	-0.0128	0.0457	7.6
-0.0046	0.0165	-0.0233	0.0322	7.5
-0.006	-0.0015	-0.0256	0.0052	7.4
-0.0068	-0.0413	-0.0256	-0.0315	7.3
-0.0091	-0.0653	-0.0256	-0.048	7.6
-0.0128	-0.0405	-0.027	-0.0188	7.5
-0.0135	0.0007	-0.03	0.0262	7.6
-0.0143	0.0232	-0.0308	0.0352	7.7
-0.015	0.024	-0.0346	0.0307	7.7
-0.0143	0.0202	-0.0346	0.0105	7.6
-0.0113	0.018	-0.0203	-0.021	7.8
-0.0091	0.0082	-0.0091	-0.0465	7.8
-0.0075	0.0075	-0.0038	-0.057	7.7
-0.003	0.0082	-0.0008	-0.0511	7.8
0.0037	0.003	0.0015	-0.0488	7.8
0.012	0.003	0.0112	-0.0353	7.7
0.0142	-0.0053	0.0225	-0.021	7.8
0.0165	-0.0135	0.0322	-0.027	7.7
0.0127	-0.0308	0.039	-0.0278	7.6
0.0052	-0.0383	0.045	-0.0158	7.8
0.003	-0.0195	0.0487	0	7.6
0.0007	0.0045	0.057	0.0157	7.7
0.0015	0.0202	0.0637	0.024	7.5
-0.0008	0.0202	0.0622	0.0262	7.6
-0.0038	-0.003	0.0615	0.0165	7.3
-0.003	-0.0233	0.06	0.0105	7.3
-0.0053	0.0052	0.0592	0.021	7.5
-0.0091	0.0225	0.054	0.039	7.2
-0.0091	0.0135	0.0555	0.0442	7.3
-0.0105	0.0127	0.06	0.0315	7.4
-0.0068	0.0037	0.0652	0.0202	7.2
-0.0008	0.0105	0.072	0.0097	7.2
-0.0008	0.009	0.0742	0.0007	7.1
-0.0023	0.0105	0.078	0.0045	7.2
0	0.0127	0.078	0.009	7
0.003	0.009	0.0802	0.0165	7
0.006	0.0105	0.075	0.018	7
0.006	0.0007	0.0652	0.0067	7
0.009	-0.003	0.057	-0.0075	6.8
0.0097	-0.0075	0.0427	-0.0278	7
0.0097	-0.0165	0.0285	-0.042	6.7
0.0127	-0.0218	0.0165	-0.042	6.9
0.0142	-0.0181	0.0075	-0.033	6.7
0.0127	-0.0098	0.003	-0.0181	6.9
0.009	0.0052	0.003	0.0082	6.7
0.0045	0.024	-0.0053	0.0382	6.8
-0.0023	0.0225	-0.0128	0.0307	6.6
-0.0038	0.0142	-0.0135	-0.003	6.6
-0.006	0.009	-0.0105	-0.0323	6.5
-0.0068	-0.012	0	-0.0353	6.6
-0.003	-0.0218	0.0142	-0.0143	6.7
0	0.0007	0.0352	-0.0203	6.7
0.003	0.0022	0.06	-0.03	6.6
0.0015	-0.0053	0.0817	-0.0053	6.5
0.0015	0	0.096	0.0165	6.7
0.003	-0.0113	0.108	0.0067	6.4
0.0052	-0.0158	0.099	-0.003	6.7
0.0015	-0.0143	0.0577	-0.0083	6.6
-0.0046	-0.012	0.0097	-0.0046	6.6
-0.0053	0.003	-0.0503	0.0157	6.4
-0.0083	0.0187	-0.1103	0.03	6.6
-0.0046	0.03	-0.159	0.0292	6.4
-0.0008	0.024	-0.1995	0.0195	6.3
0.0015	0.0195	-0.2295	0.0397	6.4
0.0037	0.0195	-0.2505	0.066	6.5
0.0045	0.018	-0.2655	0.0675	6.5
0.0007	0.0127	-0.2798	0.0442	6.4
-0.0008	0	-0.2858	0.0157	6.4
0.0022	-0.0105	-0.2821	-0.0015	6.4
0.0045	-0.0338	-0.2768	-0.0323	6.7
0.0022	-0.0503	-0.2685	-0.042	6.6
-0.0023	-0.0135	-0.2648	-0.0075	6.7
-0.0046	0.018	-0.27	0.0255	6.4
-0.0046	0.0142	-0.2723	0.018	6.7
-0.0015	0.0105	-0.258	0.0097	6.6
-0.0046	0.0015	-0.2265	0.015	6.7
-0.0075	0.024	-0.183	0.0127	6.6
-0.0053	0.0397	-0.1298	0.0232	6.8
-0.0046	0.0442	-0.06	0.0292	6.6
0.0007	0.0495	0.0202	0.045	6.9
0.0015	0.036	0.0877	0.0435	6.9
0.0045	0.0315	0.1432	0.0007	6.9
0.0045	0.0165	0.1942	-0.0293	6.9
0.003	-0.0135	0.2355	-0.054	6.8
0.0045	-0.057	0.27	-0.0706	6.9
-0.0015	-0.0863	0.2805	-0.057	6.8
-0.0098	-0.1021	0.2692	-0.0413	6.9
-0.0128	-0.0878	0.264	-0.0218	6.8
-0.0091	-0.0248	0.258	0.0097	7.1
-0.0098	0.0157	0.252	-0.0008	6.8
-0.0091	0.0187	0.237	-0.0165	7
-0.0015	0.0105	0.2182	0.0052	6.7
0.0007	0.0015	0.195	0.0195	7
0.0015	-0.0008	0.177	0.0202	6.8
0.0052	-0.0218	0.1597	0.0142	6.9
0.0112	-0.042	0.1297	0.009	6.7
0.0112	-0.0405	0.105	0	6.8
0.012	-0.0375	0.0855	-0.0038	6.7
0.009	-0.0256	0.0667	0.009	6.7
0.0022	-0.0068	0.0532	0.006	6.9
0.0007	0.0015	0.027	0.0022	6.6
-0.0053	0.0045	-0.0008	0.0157	6.7
-0.0091	0.0382	-0.0218	0.024	6.7
-0.0068	0.0615	-0.033	0.0255	6.7
-0.003	0.057	-0.039	0.0112	6.5
0.0015	0.0682	-0.0525	0.003	6.4
0.0007	0.0652	-0.0578	0.0262	6.4
-0.0015	0.057	-0.063	0.0315	6.4
-0.0083	0.048	-0.0578	0.0165	6.3
-0.0083	0.042	-0.0495	0.003	6.3
-0.0091	0.0457	-0.0555	-0.0278	6.2
-0.012	0.036	-0.057	-0.033	6.3
-0.0135	0.0045	-0.063	-0.0098	6.2
-0.0143	-0.0758	-0.066	0.0007	6.1
-0.0135	-0.1463	-0.0653	-0.0038	6.2
-0.0105	-0.1043	-0.0593	0.0052	5.9
-0.006	-0.0436	-0.048	0.0285	6
-0.0083	-0.042	-0.0308	0.0457	5.8
-0.006	-0.0323	-0.0098	0.057	6
-0.0008	-0.0405	0.009	0.0315	5.7
-0.0015	-0.0181	0.0262	-0.0181	5.8
-0.003	0.0105	0.0217	-0.0368	5.8
0.0007	0.0112	0.0127	-0.0555	5.7
0.0052	0.0127	0.0165	-0.0615	5.8
0.009	0.021	0.0187	-0.024	5.8
0.0135	0.0292	0.0232	-0.0368	5.7
0.0112	0.0105	0.024	-0.0848	5.6
0.003	0.0105	0.0255	-0.093	5.5
-0.0091	0.018	0.021	-0.0511	5.6
-0.0233	0.0307	0.018	0.021	5.5
-0.0181	0.0367	0.024	0.0502	5.5
-0.0105	0.0322	0.033	0.0607	5.5
-0.0075	0.024	0.039	0.0637	5.5
-0.0053	0.0082	0.0382	0.042	5.3
-0.0068	-0.0181	0.0315	0.0082	5.3
-0.0023	-0.0488	0.0195	-0.0346	5.3
0.0007	-0.0188	0.0195	-0.039	5.3
-0.0046	0.0135	0.0217	-0.0428	5.3
-0.0105	0.0082	0.0127	-0.0525	5.1
-0.0128	0.0157	0.0015	-0.03	5.2
-0.012	0.009	0	0.0105	5.2
-0.0053	0.0157	0.0067	0.0495	5.1
0.0007	0.0217	0.0075	0.0472	5.1
0.0022	0.0105	0.0052	0.012	5.1
0.0052	0.0045	-0.0068	0.003	4.9
0.0082	0.0015	-0.006	0.0052	4.9
0.0075	0.009	0.0075	-0.0203	5
0.0082	0.0045	0.0067	-0.039	4.8
0.0082	-0.0046	0.003	-0.0218	4.9
0.0075	-0.0075	0.009	-0.015	4.8
0.009	-0.0068	0.0187	-0.0015	4.9
0.009	-0.0068	0.018	0.0255	4.8
0.0082	-0.0046	0.0157	0.024	4.7
0.0075	0.0075	0.015	0.021	4.7
0.0045	0.006	0.0165	0.012	4.5
0.0022	0.0082	0.0232	0.0082	4.7
0.0045	0.0105	0.027	0.0022	4.5
0.006	0.0157	0.0285	-0.0068	4.5
0.0067	0.0157	0.03	0.0105	4.4
0.0082	0.009	0.0307	0.0202	4.5
0.0097	0.0052	0.0322	0.0315	4.5
0.012	0.0052	0.0345	0.0285	4.3
0.0105	0.006	0.0337	0.006	4.4
0.0082	-0.0068	0.0315	-0.0173	4.3
0.0045	-0.0083	0.0292	-0.0165	4.3
0.0052	-0.003	0.0232	0.0052	4.2
0.006	-0.006	0.0195	0.027	4.2
0.0067	-0.0091	0.0157	0.033	4.1
0.009	-0.0046	0.009	0	4.2
0.0082	0	-0.003	-0.0285	3.9
0.0067	-0.0203	-0.015	-0.0195	4.2
0.0075	-0.0436	-0.0128	-0.0248	3.8
0.0052	-0.0278	-0.0083	-0.0465	4.1
0.0015	-0.0046	-0.0188	-0.0405	3.8
0.0007	-0.0158	-0.0315	-0.027	4.1
0.0022	-0.0105	-0.039	-0.0428	3.7
0.0022	-0.012	-0.0473	-0.0465	3.8
-0.0015	-0.0135	-0.0555	-0.0143	3.9
-0.0038	0.0007	-0.0593	0.021	3.8
-0.003	0.0097	-0.0713	0.0502	3.8
-0.0015	0.0112	-0.0885	0.0592	3.8
0.0007	0.0015	-0.0915	0.054	3.8
0.0045	0.012	-0.0878	0.0225	3.7
0.0067	0.0142	-0.1028	-0.0413	3.8
0.0075	0.0067	-0.1238	-0.084	3.6
0.0067	0.0082	-0.1208	-0.099	3.8
0.0045	0.0052	-0.1148	-0.0623	3.6
-0.0015	-0.0046	-0.1253	-0.0143	3.6
-0.0053	-0.0181	-0.1358	-0.0038	3.4
-0.0046	-0.0278	-0.1373	0.0045	3.8
-0.0053	-0.0068	-0.15	0.0105	3.6
-0.0053	0.036	-0.177	0.0217	3.6
-0.0053	0.0292	-0.1688	0.024	3.6
-0.0053	0.0352	-0.1253	0.0217	3.5
-0.0046	0.0397	-0.0998	0.0202	3.6
-0.006	0.033	-0.0968	0.0067	3.4
-0.0068	0.018	-0.1043	-0.0015	3.5
-0.0075	-0.0443	-0.0878	-0.0008	3.2
-0.0075	-0.063	-0.039	-0.0046	3.5
-0.0068	-0.033	-0.0083	-0.021	3.3
-0.0046	-0.0128	-0.0075	-0.012	3.5
-0.0038	0.0045	-0.0218	0.009	3.2
-0.0015	-0.0023	-0.0563	-0.0046	3.5
-0.0008	-0.0315	-0.114	0.0067	3.1
-0.0015	-0.0346	-0.1253	0.039	3.5
-0.0046	0.0067	-0.0923	0.0532	3.1
-0.0038	0.0375	-0.075	0.0637	3.3
-0.0046	0.0397	-0.063	0.0532	3.2
-0.0068	0.0307	-0.0578	0.012	3.1
-0.0068	0.0127	-0.0375	-0.033	3.1
-0.0046	0.0045	-0.0143	-0.033	3
-0.0038	-0.0195	-0.0075	-0.0053	3.2
0.0007	-0.042	-0.0038	-0.0143	3.2
0	-0.0173	0.0052	-0.0293	3.2
0.0015	-0.0008	0.0097	-0.0383	3
0.003	-0.0278	0.0127	-0.0323	3.3
0.0052	-0.0128	0.024	0.0082	3
0.0105	0.0052	0.0187	0.0195	3.1
0.0082	0.0082	-0.0046	0.018	3
0.006	0.0157	-0.0248	0.0255	3.2
0.009	0.0015	-0.0195	0.0157	2.9
0.009	0.0067	0.033	0.0195	3.1
0.0075	0.0052	0.0532	0.0052	3
0.0052	-0.006	0.027	-0.0091	3.1
0.0045	-0.0038	0.0165	0.0397	3
0.0045	0.0255	-0.0128	0.081	3
0.0067	0.0547	-0.0361	0.0555	3.1
0.009	0.024	-0.045	0.024	2.8
0.0045	-0.0473	-0.0533	0.0165	3.1
0.0007	-0.0833	-0.042	0.006	2.7
0.0007	-0.012	-0.0173	0.0255	3.1
0.0007	0.057	0.0277	0.0142	2.8
0.0007	0.0532	0.0645	-0.06	3
0.0015	0.0592	0.0892	-0.0908	2.8
-0.0015	0.0577	0.1027	-0.027	2.8
-0.006	0.0615	0.123	0.0487	2.8
-0.006	0.0465	0.1447	0.054	2.8
-0.003	0.0225	0.1357	0.0367	2.8
-0.003	-0.021	0.12	-0.0346	2.8
-0.003	-0.0885	0.1372	-0.078	2.7
-0.0038	-0.0878	0.1665	-0.0413	2.8
-0.0053	-0.0638	0.216	-0.0503	2.8
-0.0053	-0.0338	0.2265	-0.0503	2.5
-0.0091	-0.0195	0.1702	-0.042	2.8
-0.0113	-0.0158	0.144	-0.042	2.6
-0.0098	-0.0225	0.1522	-0.0128	2.9
-0.0068	-0.0473	0.18	0.0315	2.6
-0.0053	-0.0443	0.192	0.0517	2.9
-0.006	-0.093	0.174	0.0217	2.6
-0.006	-0.0578	0.1687	0.03	2.8
-0.006	0.0127	0.1725	0.042	2.6
-0.006	0.0052	0.1695	0.0157	2.7
-0.0068	0.0142	0.1455	0.015	2.7
-0.0068	0.0172	0.1237	0.0142	2.8
-0.0068	0.027	0.1117	0.0172	2.6
-0.006	0.0352	0.0862	0.042	2.6
-0.006	0.0427	0.0607	0.0457	2.7
-0.0083	0.0375	0.057	0.033	2.6
-0.0083	0.0315	0.0382	0.0202	2.7
-0.0075	0.0382	0.015	-0.0098	2.6
-0.0068	0.0532	0.0075	-0.0473	2.6
-0.0068	0.0727	-0.0023	-0.042	2.6
-0.0068	0.0465	0.0112	-0.0008	2.6
-0.0068	0.0127	0.0007	0.0105	2.6
-0.0053	0.009	-0.0158	-0.0038	2.5
-0.0046	0.0052	-0.0195	-0.0181	2.5
-0.0068	0.0037	-0.0315	-0.0346	2.4
-0.003	0.0075	-0.0113	-0.012	2.6
-0.0015	-0.0173	-0.027	0.0157	2.4
-0.0046	-0.0405	-0.0615	0.0127	2.7
-0.0068	-0.0405	-0.0728	0.003	2.6
-0.0068	-0.0263	-0.063	0.0007	2.6
-0.003	-0.0098	-0.0458	-0.0105	2.6
-0.0023	-0.027	-0.0488	-0.0256	2.6
-0.0046	-0.0256	-0.033	-0.0233	2.6
-0.006	-0.0083	-0.0263	-0.0008	2.5
-0.0038	0.0105	-0.0278	0.0442	2.6
-0.0008	0.0307	-0.0458	0.0585	2.5
-0.0008	0.0232	-0.0293	0.0337	2.6
-0.0008	0.0195	0.027	0.0157	2.6
0.003	-0.0038	0.0285	-0.021	2.7
0.0052	-0.0128	0.0352	-0.0518	2.5
0.0045	0.006	0.0577	-0.0473	2.7
0.0075	0.0262	0.0802	-0.048	2.6
0.0105	0.0255	0.0997	-0.0203	2.8
0.0067	0.036	0.1057	0.0622	2.6
-0.0008	0.063	0.1117	0.0892	2.6
-0.0008	0.0262	0.1087	0.0427	2.6
-0.0023	-0.0315	0.1035	-0.0008	2.6
-0.0038	-0.0315	0.0892	-0.0008	2.8
0.0015	-0.0046	0.0825	0.024	2.6
0.0022	-0.027	0.084	0.0015	2.9
0.0007	-0.045	0.0825	-0.0233	2.7
-0.0015	-0.027	0.078	-0.045	2.9
-0.0046	-0.0248	0.0637	-0.0623	2.6
-0.0046	-0.033	0.0337	-0.0278	2.9
-0.003	-0.057	0.0045	-0.0105	2.7
-0.0008	-0.0593	-0.0323	-0.0046	3
-0.0008	0.009	-0.078	0.012	2.6
-0.0046	0.036	-0.1215	0.0067	3
-0.0046	0.0202	-0.1628	-0.0105	2.6
-0.006	0.027	-0.1935	-0.03	3
-0.0053	0.0172	-0.2115	-0.0533	3
-0.0053	0.0135	-0.2183	-0.0555	2.8
-0.0046	0.0015	-0.2153	-0.012	2.9
0.0007	-0.006	-0.2145	0.0142	3
0.003	0.0022	-0.2108	0.0105	3.1
0.003	0.0127	-0.1965	0.0165	2.8
0	0.0217	-0.1748	-0.0473	3.1
0	0.027	-0.1441	-0.0885	3
0.003	0.0277	-0.1058	-0.0285	3.1
0.0022	0.0262	-0.0675	-0.003	2.8
-0.0015	0.0315	-0.0158	-0.0008	3.2
-0.003	0.0337	0.0427	0.0112	3
-0.0015	0.033	0.093	0.009	3.1
-0.0015	-0.006	0.1312	0	3
-0.0015	-0.0938	0.144	-0.0083	3.2
-0.0008	-0.1178	0.1267	0.0232	3
0.003	-0.024	0.084	0.0345	3.4
0.0045	0.0082	0.0187	-0.003	3.2
0.003	-0.0181	-0.0518	-0.0195	3.1
-0.0008	0.0067	-0.0878	-0.006	3.3
-0.0015	0.0127	-0.0885	0.0142	3.1
0.0007	0.0082	-0.066	0.0142	3.5
0.0007	0.0007	-0.0046	0.0135	3.1
-0.003	0.0052	0.0652	0.0315	3.6
-0.0046	0.0345	0.1005	0.048	3.3
-0.006	0.0472	0.0907	0.0495	3.7
-0.0083	0.0367	0.0577	0.021	3.2
-0.0068	0.0217	0.018	-0.0023	3.6
-0.006	0.0345	-0.033	-0.0128	3.2
-0.0068	0.051	-0.0691	-0.0195	3.5
-0.0046	0.0622	-0.0818	-0.0046	3.3
0.0007	0.0675	-0.0728	0.0007	3.5
0.0022	0.033	-0.063	0.0007	3.4
0.0007	-0.09	-0.0555	0.0015	3.6
-0.0015	-0.1935	-0.0465	-0.0068	3.5
-0.0015	-0.1583	-0.0458	-0.0098	3.6
0.0015	-0.0548	-0.0443	0.0007	3.6
0	-0.0128	-0.0443	0.0255	3.4
0.0007	-0.003	-0.0555	0.0502	3.6
0.0022	0.0457	-0.0788	0.039	3.5
0.0015	0.057	-0.1021	-0.0083	3.7
0.0037	0.042	-0.1223	-0.0315	3.6
0.0037	-0.0068	-0.147	-0.0218	3.6
0.0022	-0.0818	-0.1658	0.0067	3.6
0.0015	-0.0675	-0.1508	0.0345	3.7
0.0022	0.0037	-0.123	0.021	3.6
0.0022	0.024	-0.105	-0.0128	3.7
0.0007	0.0195	-0.1028	-0.0375	3.6
0.003	0.0277	-0.1125	-0.0248	3.8
0.0045	0.018	-0.1043	0.015	3.7
0.0067	0.0097	-0.0968	0.009	3.8
0.0045	0.0082	-0.09	0.0082	3.8
0.0037	0.0007	-0.0691	-0.0038	3.8
0.0037	-0.003	-0.0555	-0.0218	4
0.003	0.0217	-0.0383	0.0045	3.7
0.0045	0.006	-0.0338	-0.0091	3.9
0.003	-0.0593	-0.027	-0.0165	3.7
0.0045	-0.0518	-0.003	0.003	4.1
0.0052	-0.0068	0.0142	0	3.9
0.003	0.018	0.0217	0.0097	4
0.0037	0.0292	0.0127	0.0127	4
0.0015	0.0262	-0.003	0.0045	3.9
0.0007	0.0232	-0.0008	-0.0135	4
-0.0015	0.0255	0.0052	-0.0308	4
-0.0008	0.024	0.0045	-0.033	3.9
-0.0015	0.0142	0.009	-0.0346	4
-0.0015	-0.0068	0.0112	-0.0263	4
-0.0015	-0.015	-0.003	0.0255	4
-0.003	0.0015	0.0052	0.0457	4.1
-0.003	0.0157	0.0652	0.0202	4
-0.003	0.0127	0.1935	0.0217	4.1
-0.003	0.0015	0.324	0.0187	4
-0.0038	0.0022	0.378	0.0217	4
-0.0053	0.0052	0.3795	0.0157	4
-0.0075	0.003	0.3405	-0.0098	4.1
-0.012	0.0037	0.3517	0	4.1
-0.0098	0.0022	0.4027	0.0195	4.1
-0.0068	-0.0053	0.3292	0.0262	4.2
-0.0083	-0.0068	0.207	0.009	4.3
-0.0098	0.0045	0.1267	-0.0308	4.2
-0.0091	0.009	0.1012	-0.033	4.1
-0.0068	0.0082	0.108	-0.0165	4.1
-0.0075	-0.0181	0.0937	-0.0181	4.2
-0.006	-0.0188	0.1087	0.0007	4.2
-0.006	0.0067	0.1095	0.0105	4.2
-0.0053	-0.0015	0.108	0.0217	4.3
-0.0008	0.0142	0.1297	0.024	4.1
-0.0008	0.0195	0.1162	0.0045	4.2
-0.0008	0.0105	0.0615	-0.0046	4.3
0.0015	0.0007	-0.0143	-0.0248	4.1
0.0015	-0.0098	-0.0495	-0.0195	4.3
0.003	0	-0.054	-0.003	4.1
0.0015	0.0015	-0.0818	0.0157	4.3
-0.0023	0.009	-0.1313	0.0382	4.2
-0.0008	-0.0015	-0.1635	0.0345	4.4
-0.0008	-0.0083	-0.153	0.0217	4.1
-0.0053	-0.0075	-0.135	0.0045	4.2
-0.0046	-0.0143	-0.1388	0	4.3
-0.0008	-0.0023	-0.1665	-0.0046	4.2
-0.003	-0.0023	-0.1665	-0.0015	4.2
-0.003	0.0015	-0.1365	0.018	4.3
-0.0015	0.0082	-0.1298	0.0315	4.3
-0.0038	0.0045	-0.1275	0.0067	4.1
-0.0046	-0.0046	-0.1238	-0.0285	4.5
-0.0015	-0.0091	-0.126	-0.0188	4.4
-0.0008	-0.0098	-0.1215	-0.012	4.5
-0.0008	-0.0188	-0.1155	-0.024	4.3
-0.0015	-0.0165	-0.1043	-0.033	4.5
-0.0015	-0.0105	-0.0953	-0.0053	4.2
0	-0.0008	-0.0863	0.0217	4.4
-0.003	0.0045	-0.0653	0.0045	4.3
-0.0015	0.009	-0.0473	-0.0023	4.5
0.0015	0.0225	-0.0361	0.0015	4.2
0.003	0.0202	-0.0181	0.0045	4.4
0.0067	0.0157	0.0015	0.0112	4.5
0.0105	0.009	0.0225	0.0007	4.5
0.0105	0.0015	0.039	0.0007	4.5
0.0082	0.0037	0.0502	0.0067	4.5
0.006	-0.0008	0.0577	0.0015	4.7
0.0067	-0.0068	0.0675	0.0052	4.6
0.0067	0.0007	0.0817	0.006	4.7
0.0052	0.0052	0.1072	0.012	4.6
0.0052	0.0045	0.141	0.036	4.7
0.0082	-0.0015	0.1545	0.042	4.6
0.0067	-0.0091	0.075	0.0217	4.5
0.0052	-0.0008	-0.1035	-0.0173	4.4
0.0037	-0.0075	-0.1913	-0.0623	4.5
0.0022	-0.0113	-0.165	-0.0638	4.5
0.0037	0.0045	-0.123	-0.039	4.7
0.003	0.0127	-0.0368	-0.0315	4.6
0.0015	0.0187	-0.006	-0.0233	4.7
0.0022	0.0232	0.018	0.0045	4.7
0.0007	0.0307	0.0562	0.0322	4.6
0.0015	0.0322	0.0532	0.0285	4.8
0.0015	0.0232	0.078	0.009	4.7
0.0007	0.0007	0.0622	-0.0053	4.8
-0.0008	-0.0585	0.0337	-0.003	4.6
0	-0.1118	0.0097	0.0045	4.9
0	-0.0518	-0.0135	0.0195	4.7
0.0007	0.0157	-0.0293	0.0292	4.9
0.0007	0.0052	-0.0518	-0.0075	4.7
-0.0015	0.0277	-0.0555	-0.0195	4.9
-0.003	0.0082	-0.06	0.0022	4.7
0	-0.0346	-0.0533	-0.0023	4.8
0.0015	-0.0015	-0.0473	-0.0083	4.7
0.0007	0.009	-0.0368	-0.0046	4.8
-0.0015	0.0015	-0.0233	-0.0015	4.8
-0.0008	0.0135	-0.0128	0.0045	4.9
-0.0008	0.0075	0.0007	0.0052	4.9
-0.003	0.0052	0.006	0.0067	4.9
-0.0015	0.0097	0.009	0.0045	4.9
0.0007	0.012	0.0037	0.0037	4.9
-0.0015	0.0075	-0.003	0.0052	4.9
-0.0023	0.003	-0.0143	0.0015	4.9
-0.0008	0.0045	-0.0225	0.0052	4.9
-0.0015	0.0007	-0.03	0.0067	4.9
-0.0008	-0.0015	-0.0346	0.012	5
-0.0008	-0.0008	-0.0323	0.0007	4.9
-0.003	-0.0046	-0.0315	-0.021	4.9
-0.003	-0.0053	-0.0248	-0.0113	5
-0.0008	0.0082	-0.0135	-0.0083	5
-0.0008	0.0082	-0.0015	-0.0195	5
-0.0008	0.0015	0.012	-0.0158	5
0.0007	0.003	0.015	0	5.1
0.0007	0.003	0.0127	0.0165	4.9
-0.0015	0.006	0.0105	0.012	5.1
-0.003	0.0015	0.0067	-0.0008	4.9
-0.0015	-0.0015	0.0007	0.0045	4.9
-0.0008	-0.0046	-0.0046	-0.0015	5
-0.0046	-0.006	-0.0053	-0.0038	5.1
-0.0046	-0.0038	-0.0053	0.0052	5
-0.003	0.0015	-0.0046	0.0075	5.1
-0.0046	0.0127	0	-0.0015	5.2
-0.0053	0.0082	0.0082	-0.0091	5.1
-0.0023	0.0037	0.0127	0.0007	5.1
-0.0008	0.0045	0.0127	0	5
-0.0015	0.0007	0.012	-0.0046	5.2
-0.0008	-0.0015	0.0067	-0.0053	5.2
-0.003	-0.0046	0.012	-0.0053	5.2
-0.0015	-0.003	0.0262	0	5
-0.0023	-0.0023	0.0367	-0.0068	5.2
-0.0046	0.0007	0.0457	-0.0091	5.1
-0.0053	-0.0008	0.0427	-0.0128	5.1
-0.006	-0.0053	0.0307	-0.0143	5.1
-0.003	-0.006	0.0187	-0.0053	5.2
-0.0015	-0.0023	0.0015	0.006	5.2
-0.0008	0.0015	-0.0181	0.0157	5
-0.0008	0.0082	-0.0383	0.024	5.3
-0.0008	0.0112	-0.0518	0.0165	5
0.0015	0.0022	-0.063	0.003	5.5
0.0007	0.003	-0.0645	0.0045	4.9
0.0015	0.0015	-0.0585	0.0007	5.3
0.0015	-0.003	-0.0495	-0.0038	5.2
0	-0.0068	-0.0368	-0.0068	5.1
-0.0008	-0.0105	-0.0285	-0.0105	5.1
-0.0015	-0.0083	-0.0181	-0.0075	5.2
-0.0008	-0.0053	-0.0075	-0.0008	5.3
0	-0.0008	0.0015	-0.0046	5.2
-0.0015	-0.0023	0.009	-0.0128	5.3
0	0.0007	0.0127	-0.0046	5.2
0.0045	0.0015	0.0142	0.0015	5.3
0.0045	0.0022	0.0172	0	5.2
0.0037	0.0045	0.018	0.0007	5.3
0.0015	0.0015	0.0157	-0.0008	5.3
0.0007	0.0022	0.0142	-0.0008	5.4
0.003	0.0015	0.0165	-0.0008	5.3
0.0015	0.0015	0.015	0.0015	5.4
0	0.0007	0.0127	0.0007	5.2
-0.003	-0.0008	0.012	0.0015	5.3
-0.0015	0.0015	0.0105	0.0015	5.3
-0.0015	0.0015	0.0067	0.0007	5.4
-0.003	0.0015	0.0052	0.0007	5.2
-0.003	-0.0008	0.0037	0.0007	5.1
-0.0015	0.0007	0.0037	0.0015	5.3
-0.0015	0.0007	0.0022	-0.0008	5.2
-0.0015	0.0007	0.003	-0.0008	5.3
0	0.0007	0.0022	0	5.1
0.003	0.0007	0.0022	0.0015	5.4
0.0015	-0.0008	0.0007	0.003	5.1
-0.0008	-0.003	-0.0008	0.0015	5.4
-0.0008	-0.0015	-0.0015	0.0022	5.1
-0.0015	-0.0023	-0.0008	0.0007	5.4
-0.0008	-0.003	0	-0.0008	5.2
-0.0008	-0.003	-0.003	0.0007	5.3
0.0007	-0.0015	-0.0015	-0.0008	5.3
0.0007	0	0.0015	-0.0015	5.3
-0.0008	0	0.0052	0.0007	5.3
0.0007	0.0015	0.009	0.0015	5.5
0.003	0.0022	0.0082	-0.0008	5.3
0	0.0015	0.0082	0.0015	5.2
-0.0015	0.0015	0.0052	0.0007	5.4
-0.0008	0	0.0045	0.0007	5
-0.0015	0.0007	0.003	0	5.5
-0.0015	0.0015	-0.0008	0.0015	5.3
-0.0038	0.0007	-0.0015	0.0015	5.4
-0.0038	0.0015	-0.0023	0.0015	5.2
-0.0008	0.0015	-0.0015	0.0045	5.4
0.0015	-0.0008	-0.003	0.0037	5.2
-0.0023	0.0015	-0.0068	0.0037	5.3
-0.003	0.0007	-0.0083	0.0015	5.2
-0.0008	0.0007	-0.0105	0.0007	5.3
-0.003	-0.0008	-0.015	0	5.3
-0.0023	-0.0008	-0.0165	-0.0008	5.2
-0.0083	0	-0.0188	0.0007	5.2
-0.0173	-0.0008	-0.0188	0	5.1
-0.0181	-0.0008	-0.0195	-0.0015	5.5
-0.0128	0	-0.0218	-0.0015	5.1
-0.0105	0.0007	-0.0203	-0.0015	5.3
-0.0105	0.0007	-0.0165	-0.0015	5.1
-0.0105	-0.0008	-0.0158	-0.0015	5.4
-0.012	-0.0008	-0.0105	-0.0015	5.2
-0.0165	0	-0.0083	-0.0015	5.3
-0.0181	0	-0.0195	-0.0015	5.3
-0.0128	0.0007	-0.0338	-0.0015	5.4
-0.0091	0.0007	-0.033	-0.0008	5.3
-0.0053	0	-0.0293	-0.0015	5.2
-0.0023	0.0007	-0.0278	-0.0008	5.3
-0.0046	0	-0.0188	-0.0008	5.3
-0.003	0	-0.012	0.0015	5.3
0.0007	-0.0008	-0.0075	0.0015	5.5
0.0067	-0.0015	-0.0053	-0.0008	5.5
0.0067	-0.0008	-0.0023	-0.0008	5.3
0.0075	-0.003	0.0007	-0.0008	5.5
0.0082	-0.0015	0.0037	0.0015	5.3
0.0082	-0.0015	0.0045	0.003	5.5
0.0067	-0.0023	0.0037	0.0015	5.3
0.0045	-0.0015	0.0045	0.0015	5.5
-0.0015	-0.0008	0.003	0.0022	5.4
-0.0083	0.0007	0.0082	0.0022	5.5
-0.006	-0.0008	0.0165	0.003	5.4
-0.003	0	0.0285	0.0037	5.3
-0.0015	0.0007	0.042	0.003	5.3
0.0045	0.0015	0.054	0.0045	5.4
0.0067	0.0007	0.0615	0.0075	5.4
0.009	0.0015	0.066	0.0082	5.5
0.009	0.0022	0.0712	0.003	5.5
0.012	0.0007	0.0727	-0.003	5.5
0.0127	0	0.0772	-0.0068	5.4
0.009	0.0007	0.081	-0.0053	5.4
0.012	0.0007	0.084	-0.0015	5.4
0.0127	0.0007	0.084	-0.0015	5.5
0.0097	0.0015	0.0862	-0.0008	5.5
0.012	0	0.0862	0.0007	5.5
0.0105	-0.0008	0.084	0.0007	5.4
0.0067	0.0007	0.0855	0.0022	5.6
0.0067	0.0007	0.0817	0.0015	5.5
0.0067	-0.0015	0.0765	-0.0008	5.5
0.0067	-0.0023	0.0712	-0.003	5.5
0.003	-0.0015	0.069	-0.0023	5.5
0.0015	0	0.0667	0.0015	5.5
0.0045	0.0045	0.0637	0.006	5.5
0.0045	0.0067	0.0585	0.006	5.5
0.0052	0.003	0.0502	0.0015	5.5
0.0045	0.0022	0.0427	0	5.5
0.0015	0.003	0.0337	-0.0008	5.5
0.0015	0.003	0.0255	-0.0023	5.7
0.0007	0.003	0.0165	0	5.6
0.0015	0.0045	0.0052	0.0007	5.7
0.0007	0.003	-0.0091	0.0007	5.6
0	0.0022	-0.0256	-0.0015	5.5
0.0015	0.0045	-0.0375	-0.0015	5.5
0.0007	0.0022	-0.0503	-0.0023	5.6
-0.0008	0.0007	-0.0645	-0.003	5.5
0.0007	-0.0008	-0.0848	-0.003	5.6
-0.0008	-0.0023	-0.1043	-0.0053	5.6
-0.0023	-0.0023	-0.123	-0.0083	5.5
-0.003	-0.003	-0.1403	-0.0091	5.6
-0.0015	-0.0008	-0.1523	-0.006	5.6
-0.0015	0.0007	-0.1598	-0.0075	5.6
-0.0038	0	-0.1643	-0.0105	5.7
-0.0023	-0.0008	-0.1665	-0.0068	5.8
-0.003	0	-0.1628	0.0045	5.7
-0.0023	0.0007	-0.159	0.0097	5.6
-0.0015	-0.0015	-0.1485	-0.0075	5.6
-0.0015	-0.0046	-0.1343	-0.0293	5.8
-0.0008	-0.003	-0.1185	-0.033	5.7
-0.003	0.0015	-0.1006	-0.0135	5.8
-0.0015	0.0015	-0.0833	0	5.7
-0.0008	0.003	-0.0675	-0.0008	5.8
0	0.0037	-0.057	0.003	5.6
0.0007	0.0015	-0.0443	0.0045	5.9
-0.0015	0.0015	-0.0308	0.0075	5.7
-0.003	0.0007	-0.0173	0.0067	5.8
-0.003	0.0007	-0.0083	0.006	5.8
-0.0038	-0.0008	-0.003	0.0052	5.7
-0.0046	-0.0015	0.003	0.003	6.1
-0.0038	-0.0015	0.009	0.0045	5.9
-0.0046	-0.0038	0.0135	0.003	6
-0.0046	-0.003	0.018	0.003	5.9
-0.003	-0.003	0.0255	0.003	6.1
-0.003	-0.0015	0.0307	0.0037	5.9
-0.003	-0.0015	0.0345	0.0082	6.1
-0.0023	0.0007	0.0412	0.009	5.9
-0.0008	-0.0008	0.0442	0.0067	6.2
-0.0008	-0.0023	0.048	0.0052	5.8
-0.0015	-0.0015	0.0495	0.0037	6.2
-0.0008	-0.0023	0.054	0.0045	5.9
-0.0023	0.0007	0.0577	0.0067	6.1
-0.0008	0.0015	0.0652	0.0052	6.2
-0.0015	0	0.078	0.0067	6.1
-0.003	-0.0008	0.09	0.006	6.4
-0.0008	-0.0008	0.0975	0.0045	6.1
-0.0008	-0.0015	0.099	0.0045	6.4
0.0007	-0.0008	0.0937	0.0022	6.2
0.0007	-0.0008	0.087	0.0015	6.5
0.0007	-0.0008	0.0847	0	6.1
0.0015	0	0.0862	-0.0008	6.5
0.0022	-0.0008	0.0937	-0.0015	6.3
0.0022	-0.0008	0.0945	-0.0008	6.6
0.003	-0.0008	0.0877	-0.0008	6.3
0.0045	0	0.0705	-0.0008	6.6
0.0015	0.0007	0.042	0.0037	6.4
-0.0008	0.0022	0.0105	0.0022	6.6
0.0015	0.003	-0.0233	0.0007	6.6
0.003	0.0015	-0.0525	-0.0008	6.5
0.0022	0.0015	-0.0728	-0.0008	6.7
0.0007	0.0015	-0.0803	-0.0008	6.7
-0.0015	0.0022	-0.0848	0	6.9
-0.003	0.003	-0.0856	0	6.7
-0.0038	0.0037	-0.0856	-0.0008	6.9
-0.0046	0.003	-0.0848	-0.0008	6.7
-0.0053	0.0015	-0.078	0.0007	7
-0.0046	0.0022	-0.0668	-0.0008	6.9
-0.003	0.0022	-0.0511	0.0015	7
-0.0046	0.0015	-0.0353	0.003	7
-0.0038	0	-0.0165	0.003	7.1
0	0	0.0082	0	7
-0.0015	0	0.0345	0	7.2
-0.003	-0.003	0.0592	0.003	7
-0.0023	-0.003	0.081	0.0052	7.1
-0.0046	-0.003	0.0975	0.0082	7.2
-0.0046	-0.0015	0.1102	0.0052	7.3
-0.003	0	0.1162	0.0045	7.3
-0.0023	-0.0023	0.1185	0.003	7.4
0	-0.003	0.1177	0.0007	7.5
0	-0.0038	0.1095	0.003	7.3
-0.0008	-0.0046	0.0975	0.0067	7.6
-0.0008	-0.0038	0.081	0.0045	7.6
-0.0015	-0.0046	0.0637	0.0015	7.6
-0.0023	-0.0053	0.0495	0.0007	7.6
-0.0038	-0.0046	0.033	0.0015	7.7
-0.0015	-0.0053	0.0202	-0.0008	7.8
0.0007	-0.0068	0.009	-0.0038	7.7
-0.0008	-0.0068	-0.0015	0.0007	7.8
0.0015	-0.003	-0.0083	0.009	7.8
0.0015	0.0007	-0.0135	0.0127	7.9
-0.0015	0.0037	-0.0195	0.0075	7.8
-0.0008	0.0052	-0.0256	-0.0046	7.8
-0.0023	0.0015	-0.0278	-0.0083	8.1
-0.0046	0.003	-0.03	-0.0015	8.1
-0.0023	0.0045	-0.0315	0.0007	8
-0.0038	0.0037	-0.039	-0.0008	8.1
-0.003	0.0052	-0.0473	0.0007	8.1
-0.0046	0.0052	-0.0518	0	8.2
-0.003	0.0052	-0.0555	0.0007	8.3
0.0007	0.0045	-0.0608	0.0007	8.4
0.0015	0.0045	-0.0623	0.0007	8.4
0	0.0037	-0.06	-0.0008	8.4
-0.0015	0.003	-0.0593	-0.0008	8.6
-0.0015	0.0045	-0.0585	-0.0008	8.5
-0.0008	0.003	-0.0533	-0.0015	8.6
0.0007	0.0022	-0.0458	-0.0008	8.9
-0.0015	0.0045	-0.0361	0.0007	8.8
-0.0008	0.0045	-0.027	0.0015	8.8
0	0.003	-0.015	0.0007	8.9
0.0015	0.0007	-0.0008	-0.0023	9.1
0.0052	0.0007	0.0127	-0.0023	9
0.0045	-0.0008	0.0292	-0.0015	9.3
0.0022	-0.0015	0.0457	-0.0008	9.2
0.0015	-0.0008	0.0637	0	9.4
-0.0008	-0.0008	0.0765	-0.0015	9.3
-0.0015	-0.0015	0.084	-0.0015	9.6
0.0007	-0.0008	0.0877	-0.0023	9.5
-0.0008	-0.0008	0.0877	-0.0015	9.6
-0.0015	-0.0008	0.0877	-0.0015	9.7
-0.0023	0.0007	0.084	-0.003	9.9
-0.003	0.0007	0.078	-0.0023	9.8
-0.003	-0.0008	0.0667	-0.003	9.9
-0.003	-0.0008	0.0532	0.0007	10
-0.003	-0.0008	0.0382	0.0015	10.1
-0.003	-0.0015	0.0232	0.003	10.4
0	-0.0015	0.0105	0.003	10.4
-0.0008	-0.0023	-0.0008	0.0022	10.4
-0.0046	-0.0023	-0.0083	0.0022	10.4
-0.006	-0.003	-0.0165	0.0022	10.7
-0.0038	-0.0008	-0.0278	0.003	10.6
-0.0008	-0.0008	-0.0428	0.003	10.8
-0.0008	-0.0008	-0.0518	0.003	10.7
-0.003	-0.0008	-0.0511	0.0052	10.9
-0.003	0	-0.042	0.0052	10.8
-0.0023	-0.0008	-0.027	0.0007	11.1
-0.003	0	-0.0083	-0.0038	11.2
-0.0046	-0.0015	0.012	-0.0075	11.3
-0.0046	-0.003	0.0307	-0.0091	11.4
-0.0038	-0.0023	0.0495	-0.0053	11.6
-0.0038	-0.0015	0.0652	-0.0008	11.5
-0.0015	-0.0008	0.0817	0.0022	11.6
-0.0008	-0.0023	0.0937	0.003	11.7
-0.0015	-0.003	0.1005	0.0022	11.8
-0.0023	-0.0008	0.1027	0	12.1
0.0007	0.0007	0.102	0.0007	12
0.0015	0.003	0.1005	0.003	12.1
0.0015	0.0052	0.0967	0.0015	12.2
0.0022	0.0052	0.093	0.0015	12.4
0.0007	0.0045	0.0907	0.0037	12.4
0.0007	0.0037	0.0892	0.0037	12.6
0.0015	0.0045	0.0787	0.0045	12.6
0.0007	0.0037	0.0667	0.0037	13
0.0015	0.0045	0.0555	0.0015	13
0.0022	0.003	0.0427	0.0015	13.1
0.0045	0.0015	0.0307	0.003	13.1
0.0052	0.003	0.0172	0.0015	13.4
0.0045	0.0015	0.0045	0.0015	13.6
0.003	0.0007	-0.0068	0.0007	13.5
0.0022	0.0007	-0.0181	-0.0008	13.9
0.0022	0.0007	-0.03	-0.0008	13.7
0.0022	0.0022	-0.0405	0.0007	14
0.0007	0.0022	-0.0465	0.0022	13.9
0.0007	0.0015	-0.0555	0.003	14.3
-0.0015	0.003	-0.0653	0.003	14.4
-0.0015	0.0007	-0.0728	0.0007	14.8
0	0	-0.0795	-0.0015	14.8
0	0	-0.0871	0.0015	14.9
0.0007	-0.0008	-0.0908	0.0007	15
0	0.0007	-0.0953	0	15.3
0	0	-0.1013	0.0015	15.5
0.0007	0.0007	-0.105	0.0007	15.6
0.0007	0.0015	-0.108	-0.0008	15.8
0.0007	0.0015	-0.111	-0.0015	15.9
-0.0008	0.003	-0.114	0.0007	16.2
0.0007	0.0015	-0.1155	0.006	16.2
0.0007	0.0015	-0.1125	0.003	16.5
0.0007	0.0015	-0.1073	-0.0053	16.6
-0.003	-0.0008	-0.0953	-0.0165	17
-0.0053	-0.0023	-0.0878	-0.0181	17.1
-0.0053	0.0015	-0.0825	-0.003	17.3
-0.0053	0.0015	-0.0818	-0.003	17.4
-0.0083	0.0007	-0.0856	-0.003	17.6
-0.0053	0	-0.0863	-0.0008	17.9
-0.0046	0	-0.09	-0.0023	18.1
-0.0038	0.0015	-0.0953	0.0007	18.2
-0.003	0.0007	-0.0915	0.0007	18.6
-0.0015	0.0015	-0.0863	0.0015	18.7
-0.0015	0	-0.084	0.003	18.9
-0.0015	-0.0015	-0.054	0.0015	19.2
0	-0.003	0.0525	0.0007	19.3
0.0037	-0.0053	0.1957	0.0007	19.7
0.003	-0.003	0.3067	0.0045	19.6
0.003	-0.0008	0.381	0.0022	20.1
0.0067	-0.0008	0.4177	0	20.3
0.006	-0.0023	0.414	-0.0023	20.5
0.0015	-0.003	0.3802	-0.0008	20.7
0	-0.003	0.3172	0	20.9
-0.0015	-0.0008	0.2392	-0.0008	21.2
-0.0046	-0.0015	0.1477	0.0007	21.2
-0.0075	-0.0015	0.051	-0.0015	21.8
-0.0091	0	-0.0383	0.003	21.9
-0.0083	0.0015	-0.1118	0.0097	22.1
-0.0075	0.003	-0.1628	0.0097	22.5
-0.0015	0	-0.207	0.0075	22.7
0.0015	0	-0.2468	0.003	22.8
0	0	-0.2745	-0.0008	22.9
0.0007	0.003	-0.2933	0	23.3
0.0015	0.003	-0.309	-0.0023	23.4
0.003	0.0007	-0.309	-0.0075	23.7
0.0022	0.0015	-0.2978	-0.0068	24
0.0037	-0.0023	-0.3068	-0.0105	24.4
0.003	-0.0038	-0.318	-0.0128	24.3
0.003	-0.0015	-0.291	-0.0068	24.7
0.0052	0.0007	-0.2483	-0.003	25
0.0045	-0.003	-0.2235	-0.003	25.3
0.0037	-0.0023	-0.213	-0.003	25.3
0.0007	0.0007	-0.2018	-0.0046	25.9
0.0015	0.0007	-0.1793	-0.003	26.1
0.0037	0.0045	-0.1598	-0.0023	26.3
0.0045	0.0037	-0.1426	-0.0053	26.5
0.003	0.003	-0.129	-0.006	26.9
0.0007	0.0045	-0.114	-0.0046	27.2
-0.0008	0.003	-0.0953	-0.003	27.5
0	0.0015	-0.0878	-0.0038	27.7
0.0007	0.003	-0.0795	-0.0046	27.9
0.0015	0.0037	-0.0638	-0.0046	28.3
0.003	0.0015	-0.0511	-0.0038	28.5
0.0015	0.0015	-0.0405	-0.003	28.8
0.0037	0.0015	-0.024	-0.0008	28.8
0.0045	0.0007	-0.0068	0.0015	29.4
0.003	0.0022	0.033	0.0045	29.6
0.0022	0.0022	0.105	0.0045	29.9
-0.0008	0.0022	0.1485	0.0037	29.9
-0.006	0.0015	0.1102	0.0045	30.2
-0.0083	0	0.0322	-0.003	30.5
-0.012	0	-0.0465	-0.0068	30.7
-0.0135	0.0022	-0.1508	-0.0038	30.9
-0.0098	0.0015	-0.267	-0.0023	31
-0.0105	0.0007	-0.3195	-0.003	31.3
-0.0113	-0.0008	-0.3015	-0.006	31.4
-0.012	0	-0.2468	-0.0023	31.9
-0.012	0.0037	-0.1778	-0.0008	31.9
-0.012	0.006	-0.1125	-0.003	32.2
-0.0143	0.0075	-0.0285	-0.0008	32.4
-0.0135	0.0097	0.0885	0.0015	32.8
-0.0135	0.0082	0.1995	0.0067	32.7
-0.0113	-0.0015	0.2895	0.0015	32.9
-0.0083	-0.0053	0.3675	-0.0046	33
-0.0015	-0.0068	0.429	-0.0038	33.4
0.0112	-0.0015	0.4762	0.009	33.6
0.0225	0.0052	0.507	0.0082	33.5
0.027	0.0037	0.5265	-0.003	33.9
0.027	0.0067	0.522	0.0097	33.9
0.0292	0.0067	0.4912	0.0135	34.2
0.0307	-0.0015	0.4575	0.0045	34.1
0.03	-0.0083	0.42	0.0045	34.3
0.0292	-0.0091	0.3712	0.0067	34.4
0.0202	-0.012	0.294	0.0067	34.7
0.0127	-0.0143	0.21	0.0067	34.6
0.0157	-0.0143	0.153	0.0075	35
0.0165	-0.0143	0.1117	0.0082	34.9
0.0165	-0.0128	0.0727	0.0105	35.1
0.009	-0.0091	0.042	0.0135	35.2
-0.0015	-0.0083	0.0127	0.0142	35.4
-0.0091	-0.012	-0.0053	0.0015	35.3
-0.0173	-0.0143	-0.0165	-0.003	35.6
-0.0218	-0.0091	-0.0181	0.0075	35.7
-0.027	-0.003	-0.0143	-0.0008	35.8
-0.03	-0.003	-0.0105	-0.012	36
-0.0315	-0.006	-0.0091	-0.003	35.9
-0.0308	-0.0091	-0.0165	0.009	36.3
-0.027	-0.0091	-0.0105	0.0142	36.3
-0.0203	-0.0046	0.0022	0.0052	36.6
-0.0143	-0.0046	-0.0083	-0.0091	36.4
-0.0113	-0.003	-0.0128	-0.015	36.9
-0.006	-0.0015	-0.0046	-0.0091	37
-0.0023	-0.0023	-0.0046	-0.0053	37.2
-0.0008	-0.0015	-0.0015	-0.0083	37.2
-0.0008	-0.0038	-0.0038	-0.0075	37.5
-0.0008	-0.0046	0.0045	-0.0046	37.5
0.0015	-0.0053	0.0187	-0.0083	37.9
0.0007	-0.0053	0.0255	-0.0091	37.9
0.0007	-0.003	0.0105	-0.0068	38.1
0.003	-0.0015	-0.0233	-0.0046	38.2
0.0037	0.0022	-0.0315	0.0007	38.3
0.0045	0.0045	-0.0443	0.003	38.9
0.0105	0.0067	-0.048	0.0015	38.8
0.0105	0.009	-0.0308	0.0067	39.2
0.0105	0.009	0.0007	0.0052	39.3
0.012	0.0082	0.0247	0.003	39.6
0.0105	0.0097	0.039	0.0052	39.7
0.009	0.0075	0.0592	-0.0008	40.2
0.0082	0.0067	0.0532	-0.0015	40.2
0.0067	0.0067	0.069	-0.0008	40.7
0.0067	0.0052	0.1012	0	40.8
0.0045	0.0067	0.1125	0.0045	40.9
-0.0008	0.0045	0.09	0.0067	41.2
-0.003	0.0052	0.039	0.006	41.6
-0.0053	0.0052	-0.0098	0.0045	41.7
-0.0098	0.0045	-0.0653	0.003	41.9
-0.0128	0.0052	-0.0893	-0.0046	42.2
-0.0195	0.0045	-0.0953	-0.0068	42.3
-0.024	0.003	-0.1178	0.0015	42.9
-0.0248	-0.0008	-0.1411	0.0067	43
-0.0248	-0.0008	-0.1523	0.0067	43.3
-0.0225	-0.0015	-0.159	0.006	43.4
-0.0165	0.0037	-0.1455	0.0127	43.7
-0.015	0.009	-0.1185	0.0187	43.9
-0.0128	0.0067	-0.0983	0.0165	44.4
-0.0091	0.006	-0.0825	0.0187	44.5
-0.0091	0.0067	-0.1028	0.021	44.8
-0.0068	0.0052	-0.1538	0.018	45.2
-0.003	0.0022	-0.222	0.0195	45.2
-0.0008	0.0015	-0.2625	0.0195	45.5
0.003	0.0022	-0.2843	0.0187	45.7
0.0052	0.0015	-0.303	0.0187	45.9
0.0082	0.0015	-0.321	0.018	46.2
0.012	0.0007	-0.3488	0.0187	46.4
0.0112	0.0015	-0.3458	0.0187	46.6
0.012	0	-0.3391	0.0187	47
0.0165	-0.003	-0.3391	0.018	47.2
0.0172	-0.0038	-0.3195	0.0165	47.3
0.0195	-0.003	-0.2933	0.0165	47.7
0.0195	-0.0015	-0.27	0.0157	47.8
0.018	-0.0008	-0.2445	0.0142	48.1
0.0157	0.0007	-0.207	0.012	48.2
0.0142	0.0007	-0.1575	0.0097	48.5
0.0127	0.0015	-0.105	0.0082	48.5
0.0135	0.0015	-0.0488	0.0045	48.9
0.012	0.003	0.0135	0.0015	49
0.009	0.003	0.0705	-0.0008	49.3
0.0097	0.0015	0.1275	-0.0015	49.4
0.0075	0.0045	0.1815	-0.0046	49.5
0.0015	0.003	0.231	-0.0068	49.7
-0.0008	0.003	0.2677	-0.0083	49.9
-0.0008	0.003	0.282	-0.012	49.9
-0.0008	0.0015	0.2902	-0.0143	50
-0.0008	0.0022	0.2977	-0.0165	50.4
0.0015	0.0015	0.3075	-0.0195	50.4
0.003	0.0015	0.309	-0.0195	50.7
0.0037	-0.0008	0.297	-0.0203	50.4
0.0015	-0.0015	0.2812	-0.0248	51
0.0007	-0.0015	0.2685	-0.027	50.8
0.0015	-0.0008	0.2497	-0.0278	51.3
-0.0008	0	0.2287	-0.0293	51.1
-0.0008	-0.0008	0.2145	-0.0278	51.3
-0.0008	0.0007	0.1987	-0.027	51.4
0.0007	0.0007	0.1822	-0.0263	51.5
0.0007	-0.0008	0.1665	-0.027	51.6
-0.0015	0.0007	0.1477	-0.0278	51.8
-0.0015	0.0037	0.1335	-0.0278	51.9
-0.003	0.0045	0.126	-0.0278	51.9
-0.003	0.0052	0.1282	-0.027	52
-0.0053	0.0052	0.1192	-0.0256	52.1
-0.0256	0.0052	0.0885	-0.0256	52.3
-0.0361	0.003	0.0577	-0.0233	52.2
-0.0256	0.003	0.0375	-0.021	52.5
-0.0278	0.0045	0.0255	-0.0165	52.4
-0.024	0.0022	0.0112	-0.0105	52.5
-0.0165	0.0022	0.0082	-0.0113	52.4
-0.0173	0.0007	0.0157	-0.012	52.6
-0.0091	0.003	0.0097	-0.0105	52.5
-0.0083	0.003	0	-0.0128	52.7
-0.006	0.0022	-0.0128	-0.012	52.6
-0.0008	0.0015	-0.021	-0.0128	52.5
0.0015	0.0015	-0.0368	-0.0128	52.9
0	-0.0008	-0.0691	-0.012	52.6
-0.003	-0.003	-0.093	-0.0128	52.9
0	-0.0008	-0.1006	-0.0091	52.7
0	-0.0023	-0.0953	-0.006	53.1
0.003	-0.003	-0.0975	-0.0023	52.8
0.003	-0.0023	-0.093	-0.0008	53.1
0.0082	-0.003	-0.0795	0	52.8
0.0112	-0.0023	-0.0803	0.0022	53.2
0.0082	-0.0008	-0.093	0.0045	53
0.0105	-0.0015	-0.0938	0.0052	53.3
0.0127	-0.003	-0.0915	0.006	53.1
0.0142	-0.003	-0.108	0.0075	53.2
0.0135	-0.0038	-0.1223	0.0075	53.2
0.0127	-0.0015	-0.135	0.012	53.3
0.0127	0.0037	-0.1388	0.0157	53.4
0.012	0.003	-0.1238	0.0127	53.4
0.012	0.0007	-0.1118	0.0105	53.5
0.0105	-0.0008	-0.0938	0.0015	53.2
0.012	-0.003	-0.0885	-0.003	53.5
0.009	-0.0015	-0.0788	-0.0053	53.3
0.0082	-0.0038	-0.057	-0.0091	53.6
0.009	-0.0023	-0.0503	-0.0008	53.3
0.0067	0	-0.0428	0	53.6
0.006	0.0007	-0.0263	-0.0068	53.2
0.0015	-0.0008	-0.0181	-0.012	53.6
0.0007	-0.0008	-0.0233	-0.0195	53.3
0.0007	0.003	-0.0353	-0.015	53.5
0.0007	0.003	-0.042	-0.0046	53.4
0.0015	0.003	-0.0458	-0.0091	53.4
-0.0015	0.003	-0.033	-0.0128	53.4
-0.003	0.0045	-0.0165	-0.0098	53.4
-0.003	0.0052	-0.0008	-0.0008	53.5
-0.0015	0.0015	0.0105	0.039	53.5
-0.0038	0.0015	0.0067	0.0825	53.6
-0.0046	0.0015	0.0067	0.069	53.3
-0.003	-0.0008	0.0292	0.0465	53.6
-0.0023	-0.0015	0.0652	0.0382	53.3
-0.0023	-0.0023	0.0937	0.015	53.4
-0.0015	-0.0046	0.1237	0.0075	53.2
-0.0008	-0.0068	0.1372	-0.0053	53.3
-0.0023	-0.0053	0.126	-0.0143	53.1
-0.0053	-0.0046	0.1102	-0.0181	53.1
-0.006	-0.003	0.0975	-0.0233	53.1
-0.0046	-0.003	0.087	-0.024	52.9
-0.0053	-0.0046	0.0675	-0.0293	52.8
-0.0068	-0.003	0.0465	-0.0278	52.8
-0.0068	-0.0046	0.0172	-0.0278	52.8
-0.0068	-0.0046	-0.0165	-0.024	52.6
-0.003	-0.003	-0.0533	-0.021	52.7
0.0022	-0.0015	-0.1028	-0.0181	52.5
0.0075	-0.0008	-0.1696	-0.0128	52.5
0.0052	0	-0.2085	0.0015	52.4
0.0052	0.0015	-0.2026	0.0157	52.6
0.0015	0.0045	-0.186	0.012	52.4
-0.0008	0.0037	-0.177	0.0105	52.4
0.0015	0.003	-0.1958	0.0127	52.2
-0.0015	0.0045	-0.2026	0.0105	52.3
-0.0046	0.0037	-0.1845	0.012	52.2
-0.0068	0.0022	-0.1665	0.0105	52.1
-0.0068	0.0015	-0.1313	0.0105	52.1
-0.006	0.0007	-0.0863	0.0105	52
-0.0068	0	-0.0473	0.0112	51.9
-0.0083	-0.0008	-0.0165	0.012	51.8
-0.0091	-0.0015	0.0397	0.0112	51.9
-0.0075	-0.0008	0.1087	0.012	51.7
-0.0075	0.0007	0.1515	0.0127	51.6
-0.006	0.0007	0.1845	0.0127	51.5
-0.0053	0	0.2115	0.0135	51.3
-0.0038	-0.0015	0.2325	0.0157	51.3
-0.0008	-0.0008	0.252	0.018	51.3
0.0007	0.0007	0.2752	0.0195	51
-0.0008	-0.0008	0.291	0.018	50.8
-0.0008	-0.0008	0.2842	0.0187	50.8
-0.003	0	0.2632	0.0195	50.8
-0.003	0.0007	0.2355	0.018	50.5
-0.0046	0.0007	0.2092	0.018	50.4
-0.0053	0	0.1785	0.018	50.2
-0.0046	-0.0008	0.1357	0.0157	50.2
0	-0.0015	0.0975	0.0127	49.9
0.0022	-0.0015	0.0675	0.0082	49.8
-0.0008	-0.0046	0.0382	0.0045	49.7
-0.0015	-0.0053	0.0195	0.0045	49.5
-0.0023	-0.0053	-0.0015	0.0045	49.3
-0.003	-0.006	-0.0113	0.0142	49.3
-0.0068	-0.0046	-0.0091	0.0277	48.9
-0.0053	-0.003	-0.0128	0.0262	48.9
-0.0083	-0.0038	-0.024	0.0112	48.6
-0.012	-0.0068	-0.0233	-0.0105	48.6
-0.0091	-0.0105	-0.0015	-0.0323	48.5
-0.0135	-0.0068	0.0135	-0.0165	48.2
-0.0128	0.0015	0.006	0.0105	47.9
-0.0091	0.0015	-0.0128	0	47.7
-0.0113	0.0022	-0.0225	-0.0083	47.6
-0.0091	0.0052	-0.0225	0.0007	47.5
-0.0068	0.0045	-0.0181	0.0022	47.3
-0.006	0.0015	-0.024	0.0007	47.2
-0.0075	0.0015	-0.0593	0.0007	46.9
-0.0068	0.0015	-0.0795	-0.0038	46.6
-0.0068	0.0075	-0.06	-0.0038	46.4
-0.006	0.0127	-0.0495	0	46.3
-0.003	0.0045	-0.054	-0.003	46.3
-0.0015	0.0015	-0.06	-0.0015	45.9
0.0007	0.0015	-0.063	-0.0008	45.7
-0.0015	0.0007	-0.0563	-0.0015	45.4
-0.0015	0.0007	-0.0578	-0.0015	45.3
-0.0023	0	-0.0615	-0.003	45
-0.0038	0	-0.0713	-0.003	45
-0.0023	0.0007	-0.084	-0.003	44.5
-0.0015	0.0007	-0.0893	-0.003	44.5
0	0.0022	-0.0893	-0.0046	44.2
-0.0008	0.0007	-0.0848	-0.0046	43.9
-0.0008	0.0007	-0.0848	-0.0015	43.8
0.0007	0.0007	-0.0825	0	43.6
0.0015	0.0007	-0.0803	0.0007	43.4
0.0015	0.0015	-0.0765	-0.0008	43.1
0.0052	0.0007	-0.0743	-0.0015	42.9
0.0097	0.003	-0.0668	0.003	42.5
0.0105	0.003	-0.057	0.0052	42.6
0.0082	0.0037	-0.045	0.0045	42
0.0082	0.003	-0.0308	0.0052	41.9
0.0052	0.0015	-0.0195	0.0045	41.6
0.0022	0.0015	0.0007	0.006	41.4
0.0045	0.003	0.0157	0.0067	41
0.003	0.0037	0.0225	0.0067	40.9
0.0022	0.003	0.0367	0.0082	40.6
0.003	0.0015	0.0555	0.009	40.3
0.0007	0.0022	0.069	0.006	40.1
0.0007	0.0015	0.0742	0.0052	39.8
0	0.0015	0.078	0.003	39.6
-0.0008	0.0015	0.0817	0.0015	39.2
0.003	0.0022	0.0802	0.0007	39.2
0.0015	0.0037	0.075	-0.0015	38.6
0.0007	0.0037	0.0667	-0.0023	38.5
0	0.0045	0.06	-0.0015	38.1
-0.003	0.0052	0.0637	-0.0015	37.9
-0.003	0.0037	0.0675	-0.0008	37.6
-0.0023	0.0015	0.0667	-0.0008	37.4
-0.0008	0.0007	0.0577	-0.003	37
0.0007	-0.0008	0.0435	-0.006	37
0.003	-0.0015	0.0255	-0.0068	36.5
0.003	-0.0008	0.009	-0.0053	36.3
0.003	-0.0008	-0.0053	-0.0053	36
0.0015	0.0007	-0.0203	-0.0075	35.6
-0.0008	0.0007	-0.033	-0.0083	35.5
0	-0.0015	-0.0443	0.0007	35.1
-0.0008	-0.003	-0.0533	0.0052	34.9
-0.0008	-0.0053	-0.0518	0.0037	34.6
-0.0023	0.006	-0.048	0.0082	34.4
-0.0015	0.0105	-0.0436	-0.0008	33.9
-0.0015	-0.0053	-0.042	-0.0256	33.7
-0.0046	-0.012	-0.0465	-0.024	33.3
-0.0046	-0.012	-0.0503	-0.0173	33.3
-0.003	-0.021	-0.0555	-0.0143	32.8
-0.0038	-0.0046	-0.0585	0.009	32.5
-0.0046	0.0142	-0.0645	0.0112	32.1
-0.0046	0.0097	-0.0668	0.003	31.9
-0.003	0.0127	-0.057	0.012	31.6
-0.003	0.0037	-0.0555	0.0127	31.3
-0.003	-0.0008	-0.0511	-0.0075	31
-0.003	-0.0075	-0.0428	-0.0368	30.5
-0.0015	-0.0091	-0.0353	-0.0233	30.3
-0.0046	0.0037	-0.0285	-0.015	29.9
-0.0053	-0.0075	-0.0256	-0.0346	29.6
-0.0023	-0.0091	-0.0225	-0.0188	29.2
-0.0038	0.0007	-0.024	-0.012	28.8
-0.0038	0.0007	-0.0233	-0.0195	28.5
-0.0023	0.0052	-0.0188	-0.0091	28.2
-0.0015	0.0195	-0.0128	0.0007	27.9
-0.0015	0.0382	-0.0053	0.012	27.6
-0.0008	0.045	0.003	0.021	27.5
-0.0015	0.0255	0.009	0.0202	27.3
-0.0008	0.009	0.0127	0.0262	26.9
-0.0015	-0.0046	0.012	0.0225	26.4
-0.0008	-0.027	0.0127	-0.006	26.1
-0.0015	-0.0525	0.0247	-0.0233	25.8
-0.0023	-0.0675	0.0367	-0.0293	25.8
0.0007	-0.0713	0.0435	-0.0623	25.3
0.0015	-0.0495	0.0465	-0.0615	25.2
0.0037	0.0037	0.048	-0.003	24.7
0.0052	0.0315	0.0337	0.0202	24.7
0.0007	0.0285	-0.0046	0.0142	24.2
-0.0008	0.0225	-0.0128	0.015	24.2
0.0015	0.0127	0.003	0.012	23.9
0.0015	0.0105	0.0127	0.0172	23.6
0.0007	0.009	0.0262	0.0232	23.4
0.0007	0.0067	0.0315	0.024	23.2
0.003	0.003	0.039	0.027	23
0.0037	-0.0015	0.0502	0.0292	22.8
0.0015	-0.003	0.0577	0.039	22.6
0.0015	-0.0046	0.0615	0.0382	22.5
-0.0015	-0.003	0.0607	0.0277	22.1
-0.003	0	0.0667	0.0127	22
-0.003	-0.0015	0.0705	-0.0181	21.6
-0.0053	-0.006	0.0705	-0.0495	21.5
-0.0023	-0.0015	0.066	-0.0495	21.4
-0.0023	0.0097	0.0637	-0.033	21
-0.0046	0.0082	0.0585	-0.0218	20.9
-0.0015	0.0037	0.0495	0.0015	20.6
0.0007	0.0045	0.0442	0.0105	20.3
0.003	0.0015	0.0345	0.012	20.2
0.0022	0.0007	0.024	0.0255	20
0.0015	0.0022	0.0142	0.0217	19.9
0.0022	0.0097	0.0045	0.0217	19.6
0.0015	0.0127	-0.0046	0.0195	19.3
-0.0008	0.0052	-0.0083	0.0067	19
0.0007	-0.0098	-0.0053	-0.0203	18.9
0.0022	-0.0091	0	-0.0308	18.7
0	0.0277	-0.0008	0.0037	18.5
-0.0008	0.0487	-0.0091	0.0232	18
0.0015	0.03	-0.0128	0.0135	18.1
0.003	0.0015	-0.0173	0.0075	17.8
0.003	-0.0495	-0.0233	0.0045	17.5
0.003	-0.1013	-0.0285	-0.012	17.3
0.0022	-0.0975	-0.0338	-0.0285	17.1
0.003	-0.0413	-0.0353	-0.0375	17
0.0037	-0.024	-0.0383	-0.027	16.8
0.0022	-0.0181	-0.039	-0.0128	16.7
0.0022	0.018	-0.042	-0.0068	16.3
0.003	0.027	-0.0383	0.0105	16.3
0.0067	0.0442	-0.0368	0.0097	16.2
0.0067	0.0517	-0.039	0.0037	15.8
0.0067	0.0562	-0.042	-0.0015	15.8
0.0052	0.0637	-0.057	-0.0091	15.4
0.003	0.0592	-0.0668	-0.0053	15.5
0.0052	0.033	-0.066	0.0015	15.3
0.003	-0.0338	-0.0548	0.0015	15
0.003	-0.0503	-0.0263	-0.0038	14.8
0.0015	-0.0128	-0.0068	-0.0046	14.8
-0.0008	0.0045	-0.0046	-0.0113	14.5
0.0015	-0.0046	-0.0083	-0.0165	14.4
-0.0015	-0.0075	-0.0203	-0.0165	14.2
-0.0008	-0.0203	-0.0353	-0.0158	14.2
0.009	-0.0443	-0.0503	-0.0075	13.8
0.0157	-0.0293	-0.0511	-0.0046	13.9
0.009	-0.0158	-0.0563	0.0015	13.5
0.0097	-0.0203	-0.0743	0.009	13.4
0.009	-0.0218	-0.0773	0.0172	13.1
0.0045	0.0037	-0.0878	0.0217	13
0.0045	0.0195	-0.0893	0.0195	13
0.0022	0.009	-0.0788	0.0157	12.8
0.003	0.0135	-0.0765	0.0157	12.6
-0.0015	0.0105	-0.0706	0.0157	12.2
-0.0038	0.0097	-0.0675	0.012	12.4
-0.006	0.0105	-0.063	0.0105	12.1
-0.0091	0.0075	-0.0638	0.006	12.1
-0.0083	0.0082	-0.057	-0.0023	11.9
-0.0105	0.0037	-0.048	-0.0158	12
-0.0105	0.0045	-0.0533	-0.0135	11.6
-0.0135	0.0037	-0.0503	0.006	11.7
-0.0143	0.0082	-0.0458	0.0142	11.3
-0.0128	0.0112	-0.0361	0.015	11.4
-0.0091	0.0127	0.0045	0.0142	11.2
-0.0068	0.0112	0.0465	0.0105	11.1
-0.0046	0.0105	0.063	0.0067	11
-0.003	0.0112	0.0742	0.0007	10.7
-0.0015	0.0097	0.0915	0.0007	10.7
-0.0046	0.012	0.1035	0.0075	10.5
-0.006	0.009	0.1035	0.0022	10.6
