File Name: dePie.log
Channel 4: 'Recto Femoral', 22124 values, engineering units: mV, no filters.
Channel 5: 'Biceps Femoral', 22124 values, engineering units: mV, no filters.
Channel 6: 'Vasto Medial', 22124 values, engineering units: mV, no filters.
Channel 7: 'EMG Semitendinoso', 22124 values, engineering units: mV, no filters.
Channel 8: 'Flexo-Extension', 22124 values, engineering units: deg, no filters.

-0.0015	-0.0008	0.0007	0.0022	-0.3
0	0.0037	-0.0015	0.0022	-0.6
-0.0008	0.0045	-0.0015	0.003	-0.4
-0.003	0.0037	-0.0015	0.0015	-0.6
-0.0015	0.0022	-0.0015	0.0015	-0.5
0.0007	0.0015	0	0.0015	-0.4
-0.0008	0.0007	-0.0008	0.0007	-0.5
-0.0015	0.0007	-0.0008	0	-0.5
0	0.0015	0.0007	-0.0015	-0.7
0.0007	0.0007	0	-0.0015	-0.3
0.0015	-0.0008	-0.0008	-0.0015	-0.7
-0.0008	-0.0008	-0.0008	-0.003	-0.4
0.0007	-0.0008	0.0007	-0.0023	-0.5
0.0015	0.0007	0	-0.0038	-0.5
-0.0008	0.0007	0	-0.0038	-0.4
-0.0008	-0.0008	-0.0008	-0.003	-0.6
-0.0008	0	0.0007	-0.003	-0.3
0	0	0.0007	-0.003	-0.7
-0.0008	-0.0015	0	-0.0015	-0.3
-0.0023	0	0.0007	0	-0.5
-0.0008	0	0.0007	0.0007	-0.5
0.0007	0	0.0007	0.0007	-0.4
0	-0.0008	0.0007	0	-0.4
0.0007	0	0.0007	-0.0015	-0.5
0.0007	-0.0015	0	-0.0008	-0.5
0.0007	-0.003	0.0007	-0.0008	-0.5
0.0015	-0.0008	0.0007	-0.0015	-0.5
0.0015	-0.0008	0.0007	-0.0023	-0.6
-0.0008	-0.0015	0.0007	-0.0008	-0.5
-0.0023	0.0007	0	0.0015	-0.5
-0.0023	0.003	-0.0008	0.003	-0.4
-0.003	0.0045	-0.0015	0.0007	-0.4
-0.0008	0.0037	0	0.0015	-0.5
0.0007	0.0015	0.0007	0.0022	-0.5
-0.0015	-0.0008	0	0.0022	-0.4
-0.0015	0.0007	0	0.0015	-0.5
-0.0015	0.0007	-0.0008	0.0015	-0.4
-0.0023	-0.0008	0	0.0007	-0.5
-0.0023	-0.0015	0.0007	-0.0008	-0.5
0.0007	-0.0023	-0.0008	0	-0.5
-0.0008	-0.0015	0	-0.0008	-0.4
-0.0008	-0.0008	0.0007	-0.0015	-0.5
-0.0008	-0.0015	-0.0015	-0.0015	-0.5
-0.0008	-0.0015	-0.0015	-0.0008	-0.5
0.0015	-0.0015	-0.0015	0.0015	-0.5
0.0015	-0.0015	-0.0008	0.0015	-0.5
0.0007	0	-0.0008	0.0022	-0.5
0.003	-0.0008	-0.0015	0.0037	-0.3
0.003	-0.0015	-0.0008	0.003	-0.5
0	-0.0015	0.0007	0.0022	-0.4
0.0007	-0.0008	0	0.0015	-0.6
0.0007	0	-0.0008	0.0015	-0.4
-0.0015	-0.0008	-0.0023	0.0007	-0.6
-0.003	-0.0023	-0.0015	-0.0008	-0.3
-0.0008	-0.0008	-0.0008	-0.0008	-0.5
-0.0008	-0.0008	0	0	-0.5
-0.0015	0.0015	0.0007	0.0007	-0.4
0.0007	0	0.0007	0.0007	-0.5
0	0	0.003	0	-0.4
0.0007	0.0015	0.003	-0.0008	-0.5
0.0007	0.0015	0.003	0.0007	-0.4
0.0007	0.0015	0.0022	0.0007	-0.5
-0.0008	0.0022	0.0022	0	-0.2
0	0.0007	0.0015	0	-0.6
0.0007	0	0	0	-0.4
-0.0008	-0.0015	-0.0008	0.0007	-0.6
-0.0015	-0.0008	-0.0008	0	-0.2
-0.0008	0.0007	0	0.0015	-0.6
0	0	-0.0008	0.0007	-0.4
-0.0008	-0.0008	-0.0008	0	-0.5
-0.0015	-0.0008	-0.0008	0.0015	-0.5
-0.0008	-0.0008	0	0.0015	-0.5
0.0007	0	0.0007	0.0007	-0.5
0.0007	0.0015	0.0007	0	-0.3
0	0.0015	0.0015	0.0015	-0.8
-0.0008	0.0015	0.0007	0.0007	-0.2
0.0007	0.0022	-0.0008	-0.0015	-0.6
-0.0008	0.0007	0.0007	-0.0015	-0.4
-0.0015	0.0007	0.0022	-0.0008	-0.6
0.0007	0.0015	0.0015	-0.0015	-0.4
0	0.0022	0.0007	-0.0008	-0.6
-0.0008	0.003	-0.0008	-0.0008	-0.4
-0.0008	0.003	-0.0015	0	-0.5
-0.0015	0.0037	-0.003	0.0007	-0.5
-0.0015	0.0037	-0.0015	-0.0008	-0.5
-0.0015	0.003	-0.0015	0.0007	-0.5
-0.0015	0.0037	-0.0015	-0.0008	-0.5
-0.0008	0.003	-0.0023	-0.0008	-0.5
0.0007	0.003	-0.0015	-0.0008	-0.4
-0.0008	0.0015	-0.0015	-0.0015	-0.6
0.0007	0	0.0015	-0.0008	-0.4
0.0015	0.0007	0.0022	-0.0015	-0.6
0.0007	-0.0008	0.0007	-0.0015	-0.5
0.0015	-0.0008	0.0022	0.0015	-0.5
0.0015	-0.0015	0.0015	0.0022	-0.4
0.0015	-0.0015	0.0007	0.0015	-0.5
-0.0008	-0.0015	0.0007	0.0015	-0.5
0.0007	-0.0015	0	0.0015	-0.4
0	-0.0008	0	0.0015	-0.5
-0.0015	-0.0023	-0.0015	0	-0.5
-0.0015	-0.0023	-0.0008	0.0007	-0.5
-0.0008	-0.0015	-0.0015	0.0007	-0.4
-0.0015	-0.003	-0.0015	0.0007	-0.5
-0.0008	-0.0015	-0.0015	0.0015	-0.5
-0.0015	-0.0015	-0.0015	0.0015	-0.5
-0.0015	-0.0015	-0.003	0.0015	-0.5
-0.0023	-0.0008	-0.0023	0.0015	-0.6
-0.003	-0.0008	-0.0015	0.0015	-0.4
-0.0008	-0.0008	-0.0023	0	-0.5
-0.0023	-0.0008	-0.0015	0	-0.5
-0.003	0	-0.0008	-0.0008	-0.5
0	0.0022	0.0007	-0.0015	-0.6
-0.0008	0.0007	0.0007	-0.0008	-0.5
-0.0015	0.0007	0.0007	-0.0008	-0.5
-0.0015	0.0007	0	0.0007	-0.5
0	0	0.0007	0.0007	-0.5
-0.0015	0.0007	0	-0.0008	-0.3
-0.003	0.0007	0	0.0015	-0.5
-0.0008	0	0.0007	0.0007	-0.4
0	0	0.0007	0.0007	-0.5
0.0007	-0.003	0.0007	0.0015	-0.4
-0.0015	-0.0008	0.0022	0.0015	-0.4
-0.003	-0.0008	0.003	0.0007	-0.5
-0.0008	-0.0015	0.003	0	-0.4
-0.0008	0.0007	0.0015	-0.0008	-0.5
-0.0008	-0.0008	0.0015	0.0007	-0.4
-0.0008	0	0.0007	0	-0.5
-0.0008	0.0007	0.0007	-0.0008	-0.4
0	0.0007	0.0007	0	-0.6
0.0022	0.0015	0.0007	0	-0.3
0.0022	0.0007	0	0.0007	-0.5
0	-0.0008	-0.0008	-0.0008	-0.3
-0.0015	0.0007	0.0007	0	-0.6
0	0	0.0015	0.0015	-0.3
0.0007	0.0007	0.0007	-0.0008	-0.4
0.0007	0.003	0.0007	-0.0015	-0.5
0.0007	0.0015	-0.0008	-0.0015	-0.4
0.0007	0.0007	-0.0015	-0.003	-0.6
0	0.0007	0	-0.0008	-0.3
0.0007	0.0015	-0.0008	0.0007	-0.5
0	0.0007	0	0	-0.3
-0.0015	0.0015	-0.0008	0.0007	-0.7
-0.0008	0.0015	-0.0015	-0.0008	-0.5
-0.0008	0.0015	-0.0008	0.0007	-0.5
-0.0008	0.0007	0	0.0015	-0.2
0	-0.0008	0.0007	0.0015	-0.5
-0.0008	-0.0008	-0.0008	0.0022	-0.3
0.0007	0.0015	-0.0008	0.0007	-0.6
-0.0015	0.0015	0.0007	0.0007	-0.2
-0.0046	0	0	0.0007	-0.4
-0.0008	-0.0008	-0.0008	0	-0.5
-0.0008	-0.0008	0.0007	0	-0.5
-0.0008	0	0.0015	-0.0008	-0.5
-0.0015	-0.0008	0.0007	-0.0015	-0.2
-0.0015	-0.0015	0.0007	-0.0008	-0.5
0.0015	-0.0015	-0.0015	0	-0.3
0	-0.0015	-0.0015	0.0007	-0.5
-0.0015	-0.0008	-0.0008	0.0015	-0.2
0	0.0007	0.0015	0.003	-0.5
0	0	0.0015	0.0015	-0.4
0	-0.0015	0.0007	0.0015	-0.6
0	0.0007	0.0007	0.0022	-0.4
0.0015	0.0015	0	0.0007	-0.5
0.0007	0.0007	-0.0008	0.0007	-0.4
0.0015	-0.0008	-0.0015	0.003	-0.3
0.0007	0.0007	-0.0023	0.003	-0.3
-0.0008	0.0015	-0.0008	0.0022	-0.5
0	0.0007	0.0007	0.003	-0.4
-0.0008	0.0015	-0.0008	0.0015	-0.4
0.0015	0.0015	-0.0015	0.0007	-0.5
0.0007	0.0015	-0.0015	0.0007	-0.3
0.0007	0.0007	-0.0015	-0.0008	-0.5
0.003	0.0007	-0.0015	0.0007	-0.3
0	0.0022	0	-0.0008	-0.6
-0.0015	0.0007	0.0015	-0.0015	-0.5
-0.0008	0.0007	-0.0008	-0.0023	-0.5
-0.0008	0.0007	-0.0008	-0.0015	-0.4
0	0.0015	0	-0.0008	-0.5
0.0007	0.0015	-0.0008	-0.003	-0.5
-0.0008	0.0015	0	-0.0008	-0.5
-0.0015	0.003	0.0007	0.0007	-0.5
-0.0023	0.0015	0	-0.0008	-0.4
-0.0038	0.0015	0	-0.0008	-0.4
-0.0015	0.0015	0.0015	-0.0023	-0.5
-0.0023	0.0015	0.0007	-0.0008	-0.5
-0.0023	0.0007	0	0	-0.5
-0.003	0.0022	0.0007	-0.0008	-0.5
-0.0008	0.003	0	-0.0015	-0.3
0.0007	0.0022	0.0007	-0.0015	-0.5
-0.0008	0.0022	0.0007	-0.0008	-0.5
-0.0008	0	0	-0.0008	-0.4
-0.0023	-0.0008	0.0015	-0.0015	-0.4
-0.0038	-0.0008	0.0007	-0.0008	-0.4
-0.003	-0.0008	0	0	-0.5
-0.0015	-0.0008	0.0007	0.0015	-0.3
-0.0015	-0.0008	0.0007	0.0015	-0.5
-0.003	0	0	-0.0008	-0.3
-0.0008	-0.0008	0	0	-0.6
0	-0.0015	0	0.0007	-0.5
0.0015	-0.0015	0	0.0015	-0.5
0.0007	-0.0023	0.0007	0.0015	-0.5
-0.0008	-0.0023	0.0007	0.0015	-0.4
0.0015	-0.0008	-0.0008	0.0015	-0.5
0	-0.0008	0	0.0015	-0.4
-0.0008	-0.0008	-0.0008	-0.0008	-0.6
0.0015	-0.0015	0	-0.0015	-0.4
0.0015	-0.0008	0.0007	-0.0008	-0.5
-0.0008	-0.0008	-0.0008	0.0007	-0.3
-0.0023	0	0	0	-0.5
-0.0015	0	0.0015	0	-0.2
-0.0023	-0.0008	0.003	0.0007	-0.6
-0.0008	0.0007	0.0007	0	-0.4
0.0007	0.0007	0.0015	-0.0008	-0.6
0.0015	0	0.0015	-0.0008	-0.2
0.003	0.0015	0.0015	-0.0008	-0.5
0.0015	0.0007	0.003	0.0015	-0.3
0.0007	-0.0015	0.0015	0.0007	-0.5
-0.0015	0	0.0015	0.0007	-0.5
-0.0008	0.0015	0.0022	0.0007	-0.4
-0.0008	0.0015	-0.0008	0.0015	-0.6
-0.0015	0.0007	0	0.0022	-0.2
0.0007	0.0007	-0.0015	0.0015	-0.7
-0.0008	0.0007	-0.0015	0.0007	-0.2
0.0007	-0.0008	-0.0015	0.0007	-0.5
0.0007	-0.0015	-0.0015	0.0007	-0.4
-0.0015	-0.0008	0.0007	-0.0008	-0.5
-0.0015	0	0.0007	0	-0.4
-0.0023	0.003	0.0007	-0.0008	-0.5
0	0.0075	0.0007	0.0015	-0.5
0.0015	0.0105	0.0007	0.0045	-0.5
-0.0008	0.0105	0.0015	0.0022	-0.3
0	0.0105	0.0007	0.0015	-0.5
0.0007	0.009	0.0015	0.0007	-0.3
0.0007	0.0082	0.0007	0.0015	-0.4
-0.0008	0.0052	-0.0008	0.0015	-0.5
-0.0008	0.0007	0.0007	0.0007	-0.4
0.0015	-0.0098	0	-0.0015	-0.6
0.0015	-0.0323	-0.0008	-0.003	-0.3
-0.0008	-0.0503	-0.0008	-0.0015	-0.6
-0.0008	-0.0368	-0.0008	0	-0.5
0.0007	-0.0105	0.0007	0.0015	-0.4
-0.0015	0.0007	-0.0008	0.0015	-0.2
-0.0008	0.0052	-0.0015	0.003	-0.5
0.0015	0.0075	-0.0015	0.003	-0.5
0.0007	0.0082	0.0007	0.0015	-0.5
0.0015	0.0067	0.0015	0.0007	-0.5
0.0007	0.0067	0.0007	-0.0008	-0.5
-0.0015	0.006	0.0007	-0.0008	-0.4
-0.0008	0.0052	0.0007	0	-0.4
-0.0023	0.006	-0.0008	0.0015	-0.5
-0.0008	0.0045	-0.0023	0.0007	-0.3
-0.0008	0.0052	-0.0023	0.0007	-0.5
0	0.0045	-0.0046	0.0007	-0.5
0.0007	0.0052	-0.0053	0.0007	-0.3
-0.0015	0.0052	-0.0053	0.0007	-0.4
0	0.0045	-0.0046	-0.0008	-0.5
0.0007	0.0045	-0.0046	-0.0008	-0.4
0.0015	0.003	-0.0023	-0.0008	-0.3
-0.0008	0.003	-0.0015	-0.0008	-0.5
-0.0015	0.003	-0.0015	-0.0015	-0.4
-0.0008	0.003	-0.0008	-0.0008	-0.5
-0.0008	0.0015	-0.0015	0.0007	-0.3
0.0007	0.003	0.0015	-0.0008	-0.4
0	0.0015	0.0007	-0.0023	-0.5
-0.003	0.0007	0.0015	-0.003	-0.5
-0.003	0	0.0022	-0.0023	-0.5
-0.0015	-0.0008	0.0022	-0.0015	-0.5
0	0.0015	0.0037	-0.0015	-0.5
0.0007	0.0022	0.003	-0.0015	-0.4
0.0015	0.0015	0.003	-0.0023	-0.4
0.0015	0	0.0015	-0.003	-0.3
-0.0015	-0.0008	0.0015	-0.003	-0.5
-0.0015	0.0007	0.0015	-0.0015	-0.4
-0.0008	0.0007	0.0007	0.0007	-0.5
0.0007	-0.0008	-0.0008	0.0015	-0.4
0.0022	-0.0008	-0.0008	0.0007	-0.5
0	0.0007	-0.0008	0	-0.4
-0.0008	-0.0008	-0.0008	-0.0008	-0.6
0	-0.0015	-0.0008	0.0007	-0.5
-0.0008	-0.0008	0.0007	0.0015	-0.5
-0.0015	-0.0015	0.0007	0.0007	-0.5
-0.0046	-0.0008	0.0007	0.0015	-0.5
-0.0038	-0.0008	0.0015	0.0015	-0.4
-0.003	-0.0023	0.0007	0.0015	-0.5
-0.0023	-0.0023	0.0007	0.0007	-0.5
-0.003	-0.003	0.0015	0.0007	-0.4
-0.0023	-0.0023	-0.0008	0.0007	-0.5
0	-0.0008	-0.0008	-0.0008	-0.4
0	-0.0008	-0.0015	0	-0.5
-0.0015	-0.0008	-0.0008	-0.0008	-0.4
-0.0015	0.0022	0	0.0015	-0.4
-0.0008	0.0045	-0.0015	0.0015	-0.5
-0.003	0.003	-0.0008	0.0007	-0.5
-0.0015	0.0007	0	0.0007	-0.5
0	0.0022	-0.0008	-0.0008	-0.4
0.0007	0.0015	0.0007	0.0007	-0.5
0.0007	0	0.0007	0.0007	-0.5
-0.0015	0.0007	0.0015	0.003	-0.5
0.0007	0.0007	0.0015	0.003	-0.5
0	-0.0008	0.0015	0.0015	-0.5
-0.0008	-0.0008	0.0007	0.0015	-0.3
0	0.0007	0.0007	0.0015	-0.5
0.0015	0.0015	-0.0008	0.0015	-0.5
0.0022	0.0007	0.0007	-0.0008	-0.6
0.0007	0.0007	0.0007	0	-0.5
-0.0008	0.0007	0.0007	0.0015	-0.4
-0.0008	0.0007	-0.0008	0.0007	-0.6
0.0007	0.0007	-0.0015	0.0007	-0.5
-0.0015	0.0015	-0.0008	0.0007	-0.5
0	-0.0008	0	0.0007	-0.5
0	-0.0008	0.0015	-0.0008	-0.5
-0.003	-0.0008	0.0007	0	-0.5
-0.0023	-0.0008	0.0007	-0.0008	-0.5
-0.0008	0	0.0007	-0.0015	-0.7
-0.0008	-0.0015	-0.0008	-0.0008	-0.5
-0.0008	-0.0008	0	-0.0015	-0.5
-0.0008	-0.0023	0.0007	-0.0023	-0.5
-0.0008	-0.0023	0.0015	-0.0015	-0.5
0.0007	-0.0008	0.0007	0	-0.5
-0.0008	-0.0008	0	0	-0.4
-0.0008	0.0007	0.0015	-0.0008	-0.5
-0.0008	0.0007	0.0015	0	-0.6
-0.0015	0.003	0.0007	-0.0008	-0.3
-0.003	0.0045	0.0015	-0.0015	-0.5
-0.0008	0.0022	-0.0008	-0.0015	-0.4
0.0007	0.0015	-0.0015	-0.0008	-0.5
0.0015	0.0015	-0.0008	-0.0015	-0.4
0.0022	0.0007	-0.0015	-0.0008	-0.5
0.003	0.0015	-0.0015	-0.0008	-0.5
0.0015	0.0015	-0.0008	0	-0.4
-0.0008	0	0.0007	-0.0008	-0.6
0	-0.0008	-0.0008	-0.0008	-0.5
-0.0015	0.0007	-0.0015	0.0015	-0.6
-0.0023	0.0007	-0.0015	0.0015	-0.5
-0.003	0	0.0007	0.0015	-0.6
-0.0008	0.0007	0.0007	0.0015	-0.4
-0.0015	0	0.0007	-0.0008	-0.7
-0.0008	-0.0008	0.0015	0.0015	-0.2
-0.0015	0.0007	0.0007	0.0015	-0.6
0.0007	-0.0008	0.0007	0.0007	-0.2
0.0007	0	0.0007	0.0022	-0.6
0	-0.0008	0	0.0015	-0.4
-0.0008	-0.0008	0.0015	0.0015	-0.4
0.0007	-0.0008	0	0.003	-0.5
0.0015	-0.0008	-0.0008	0.003	-0.5
-0.0008	-0.0008	0	0.0015	-0.5
-0.0015	-0.0008	-0.0008	0.0015	-0.4
-0.0015	-0.0015	0	0.003	-0.5
-0.0023	-0.0008	0.0007	0.0015	-0.4
-0.0008	0	0.0015	0.003	-0.7
-0.0015	0.0045	0.0015	0.0067	-0.4
-0.0008	0.0105	0	0.0067	-0.5
-0.0008	0.0105	-0.0008	0.0037	-0.4
-0.0008	0.0127	-0.0015	0.0022	-0.5
-0.0008	0.012	0	0.0022	-0.5
0	0.0105	0.0015	0.0007	-0.4
-0.0015	0.0082	0.0007	0	-0.5
-0.0023	0.0045	0.0015	-0.0015	-0.5
-0.0008	-0.003	0.0015	-0.0023	-0.5
0.0007	-0.0203	0.0007	-0.003	-0.5
0.0022	-0.0458	-0.0008	-0.006	-0.5
0.0007	-0.0503	-0.0008	-0.003	-0.5
-0.0008	-0.0233	-0.0015	0	-0.5
-0.0015	-0.0038	-0.0023	0.0007	-0.4
0	0.0037	-0.0023	0.0015	-0.5
0	0.0052	-0.0015	0	-0.5
-0.0015	0.0052	-0.0008	-0.0008	-0.5
-0.0008	0.006	-0.0008	-0.0008	-0.5
-0.0008	0.006	-0.0008	0	-0.5
0	0.0075	-0.0008	-0.0008	-0.5
0.0007	0.0052	0.0007	0	-0.3
-0.0008	0.0067	0	-0.0008	-0.5
0.0007	0.0052	0	-0.0015	-0.4
-0.0008	0.0037	0.0007	-0.0023	-0.7
-0.0015	0.003	-0.0008	-0.0015	-0.4
-0.0008	0.0037	-0.0008	-0.0008	-0.4
0	0.0052	-0.0008	-0.0008	-0.5
-0.0008	0.0037	0.0007	0	-0.5
-0.0023	0.003	0.0015	0.0007	-0.6
0	0.0015	0.0015	0	-0.3
-0.0008	0.0022	0.0015	0.0007	-0.5
-0.0015	0.0007	0	0.0007	-0.4
-0.0015	0.0007	0.0007	0.0007	-0.6
-0.0023	0.003	0.0007	0.0007	-0.3
-0.0023	0.0022	0.0015	0.0015	-0.5
-0.0015	0.0022	0.003	0.0022	-0.5
-0.0008	0.0022	0.0015	0.0007	-0.5
0	0.003	0	-0.0008	-0.5
-0.0008	0.0037	-0.0008	0	-0.5
-0.0008	0.003	-0.0008	0.0015	-0.4
0	0.003	-0.0015	0.0007	-0.4
-0.0008	0.0007	-0.0023	0.0007	-0.6
0.0022	0.0015	-0.0015	0	-0.5
0.0015	0.003	-0.0015	-0.0008	-0.4
-0.0008	0.0022	-0.003	-0.0015	-0.3
0	0.0015	-0.0015	-0.003	-0.6
-0.0015	0.0007	0	-0.0015	-0.5
-0.0015	-0.0015	0.0022	0.0007	-0.6
-0.0015	-0.0015	0.0007	0.0007	-0.4
0	-0.0015	0.0007	0.0007	-0.6
0.0007	-0.0015	0.0022	0.0007	-0.4
-0.0008	-0.0015	0.0015	0	-0.5
0.0007	-0.0015	0.0015	-0.0008	-0.5
-0.0008	-0.0023	-0.0008	-0.0008	-0.5
-0.0015	-0.0023	-0.0008	-0.0008	-0.5
-0.0008	-0.0015	-0.0015	-0.0008	-0.5
0	-0.0008	0	-0.0008	-0.5
-0.0008	0.0007	0.0022	-0.0015	-0.4
0	0.0007	0.0015	0.0007	-0.5
0.0007	-0.003	0.0007	0.0015	-0.5
-0.0008	-0.0008	0.0015	0.0007	-0.5
-0.0008	0	0.0015	0	-0.5
-0.0015	-0.0008	-0.0015	-0.0015	-0.5
-0.0008	0	-0.0023	-0.0008	-0.5
-0.0015	0	-0.0023	-0.0008	-0.5
-0.0008	0.0007	-0.003	0	-0.6
0	-0.0008	-0.0015	0.0015	-0.5
0.0007	0.0007	-0.0015	0.0015	-0.6
0.0007	0.0007	-0.0015	0	-0.5
-0.0015	0.0007	-0.003	0	-0.5
0.0007	-0.0008	-0.0015	-0.0008	-0.5
0.0015	0	-0.0015	0.0022	-0.5
0.0007	0.0045	-0.0008	0.0045	-0.5
0	0.003	-0.0015	0.003	-0.5
-0.0015	0.0015	-0.0008	0.0037	-0.5
-0.0023	0.0007	0.0007	0.0022	-0.3
-0.0015	-0.0008	-0.0015	0.0022	-0.5
0	0.0007	-0.0008	0.0015	-0.5
-0.0008	-0.0008	0.0007	0.0015	-0.5
-0.0008	-0.0015	0.0015	0.0007	-0.5
0.0015	-0.0015	0.0007	-0.0008	-0.5
0.003	-0.0015	0	-0.0008	-0.5
0.0045	-0.0008	-0.0008	0.0007	-0.6
0.0022	0.0007	-0.0008	0.0007	-0.5
0	0.0007	0.0015	-0.0015	-0.5
0.0007	0.0015	0.0015	-0.0015	-0.3
-0.0008	0.0015	0.0007	-0.0015	-0.5
-0.0015	0.0015	0	-0.0015	-0.5
-0.0008	0.0007	-0.0008	-0.0015	-0.5
-0.0008	0.0007	-0.0015	-0.0015	-0.4
-0.0008	-0.0008	0	-0.0023	-0.4
-0.0015	-0.0015	0.0007	-0.0008	-0.6
-0.0008	-0.0008	0	0.0015	-0.5
0	0	-0.0008	0	-0.5
-0.0008	0.0007	-0.0008	0.0007	-0.5
-0.0008	0.0007	0.0007	0.0015	-0.5
-0.0015	0.0007	0.0007	0.0007	-0.5
-0.0008	0.0007	0.0007	0.0015	-0.5
0	0.0007	0.0015	0.0015	-0.5
-0.0015	0	0.0007	0.003	-0.4
-0.0015	-0.0008	-0.0008	0.003	-0.5
0.0007	0.0015	0	0.003	-0.4
0.0007	0.0007	0.0007	0.0037	-0.6
-0.0008	-0.0008	0	0.003	-0.4
-0.0008	-0.0008	0.0007	0.003	-0.6
-0.0015	-0.0008	0.0015	0.0015	-0.5
-0.0008	-0.0008	-0.0008	0.0007	-0.5
0	-0.0015	0.0007	0.0007	-0.5
0	-0.0008	0.0015	-0.0008	-0.5
-0.0008	-0.0015	0.0007	0.0007	-0.5
-0.0008	0	0.003	0.0007	-0.4
0.0007	0.0022	0.0007	-0.0008	-0.7
0.0015	0.0015	-0.0008	0.0007	-0.4
-0.0008	0.0007	0.0007	-0.0008	-0.5
-0.0008	0.0007	-0.0008	-0.0008	-0.5
-0.0008	0.0007	0	-0.0015	-0.6
0	0.0007	-0.0008	-0.0015	-0.5
0.0007	0.0007	0	-0.0015	-0.5
0	0.0007	0.0022	-0.0023	-0.5
-0.0008	0.0007	0.0007	-0.0023	-0.6
-0.0015	0.0015	0.0007	-0.0008	-0.5
-0.0015	0.0015	0.0015	0	-0.5
-0.0023	0.0015	0.0015	-0.0015	-0.5
0	0.0015	0	-0.0015	-0.3
0.0015	0.0015	-0.0008	-0.0015	-0.5
0.0015	0	0	-0.0015	-0.3
0.0015	0.0007	0	-0.0008	-0.6
0.0015	0.0015	0	-0.0015	-0.3
0.0007	0.0007	-0.0008	-0.0008	-0.5
-0.0008	-0.0008	0	-0.0008	-0.4
0	-0.0015	0	-0.0008	-0.5
-0.003	-0.0008	0.0007	-0.0008	-0.5
-0.0038	0	0.0015	-0.0015	-0.5
-0.0015	0	0.0015	0	-0.5
-0.003	-0.0015	-0.0008	-0.0008	-0.5
-0.003	-0.0023	-0.0023	-0.0008	-0.4
-0.0008	-0.0023	0.0007	0.0007	-0.5
0	0.0037	0.0007	0.0007	-0.5
0.0007	0.009	-0.0008	0.0037	-0.5
0.0007	0.0105	0.0007	0.003	-0.5
0.0007	0.0105	-0.0008	0.0015	-0.5
0	0.0112	-0.0008	0.0007	-0.5
-0.0008	0.0105	-0.0008	0.0022	-0.5
-0.0008	0.0105	-0.0008	0.003	-0.6
-0.003	0.0067	0.0007	0.0007	-0.4
-0.0023	0	-0.0008	0	-0.5
-0.0015	-0.0143	0.0007	-0.0023	-0.5
-0.0015	-0.0405	0.0007	-0.0046	-0.4
-0.0008	-0.0533	-0.0008	-0.0038	-0.5
-0.0015	-0.0293	0.0007	-0.0015	-0.3
-0.0008	-0.0068	0.0015	0.0007	-0.5
0.0007	0.003	-0.0015	0.0015	-0.5
0.0007	0.0045	0	0.0015	-0.5
-0.0015	0.0045	-0.0015	0.0022	-0.5
-0.003	0.0075	-0.0008	0.0015	-0.6
-0.003	0.006	-0.0015	0	-0.5
-0.0023	0.006	-0.003	0.0007	-0.3
-0.0015	0.006	-0.0008	0	-0.6
-0.0015	0.0052	-0.0008	0.0007	-0.4
0	0.0052	0	0.0007	-0.5
-0.0008	0.0045	-0.0008	0.0015	-0.4
-0.0008	0.0045	0	0.0015	-0.7
0	0.0052	0.0007	0.003	-0.4
0.0007	0.0052	0.0007	0.003	-0.5
0.0007	0.0045	0.0022	0.0007	-0.5
-0.0008	0.0045	0.0007	0.0007	-0.6
-0.0023	0.0045	0.0015	0.0007	-0.3
-0.0015	0.0045	0.0022	0.0007	-0.5
0	0.0045	0.0022	0.0007	-0.5
-0.0008	0.0037	0.0015	0	-0.5
0.0007	0.003	0.0015	-0.0008	-0.5
0.0007	0.0015	0.0015	-0.0008	-0.4
-0.0008	0.0007	0.0015	-0.0008	-0.5
0.0007	0.0015	0	-0.0008	-0.4
0.0007	0.0007	-0.0015	0	-0.5
-0.0008	0	-0.0015	0.0022	-0.5
-0.0008	-0.0008	-0.0015	0.003	-0.5
-0.0008	-0.0015	-0.0015	0.0015	-0.3
-0.0015	0	-0.0015	0.003	-0.5
0.0007	0	-0.0023	0.0015	-0.4
0.0015	-0.0008	-0.0015	0.0007	-0.6
-0.0008	0.0007	0.0007	0.003	-0.4
-0.0023	-0.0008	-0.0008	0.0015	-0.5
-0.0015	-0.0015	0	0.003	-0.5
0	0	0.0015	0.0037	-0.5
0.0007	0	-0.0008	0.003	-0.4
-0.0008	0.0007	-0.0015	0.0015	-0.5
-0.0023	0.0007	-0.0008	0.0015	-0.5
-0.0008	-0.0008	-0.0008	0.0015	-0.4
0.0007	-0.0008	-0.0008	-0.0008	-0.6
0.0007	0.0007	0.0007	0.0015	-0.5
0.003	0.0007	0.0015	0.0015	-0.5
0.0015	0	0.0007	0	-0.5
0.0015	0.0007	0.0007	-0.0008	-0.4
0	-0.0015	0.0007	-0.0015	-0.5
0	-0.0008	-0.0008	-0.0015	-0.4
-0.0008	-0.0015	-0.0015	-0.0015	-0.6
-0.0015	-0.0015	0	-0.0008	-0.5
-0.0008	-0.0015	0.0007	-0.0008	-0.5
-0.0008	-0.0015	0.0007	-0.0008	-0.3
-0.0008	0	-0.0008	-0.0008	-0.5
-0.0008	0.0007	-0.0008	-0.0015	-0.4
-0.0008	0.0015	-0.0015	-0.0015	-0.5
0.0007	0	-0.0015	-0.0038	-0.4
-0.0008	0.0007	0.0007	-0.0015	-0.4
-0.003	0.0007	-0.0015	-0.0008	-0.5
-0.003	0.0015	-0.003	-0.0015	-0.5
-0.0015	0.003	-0.0023	-0.0008	-0.5
-0.0015	0.0007	-0.003	-0.0015	-0.4
-0.0008	-0.0008	-0.0008	-0.0015	-0.6
0.0007	0.0007	0	-0.0015	-0.4
-0.0008	0	0	-0.0015	-0.5
-0.0015	-0.0008	0.0015	-0.0015	-0.5
0.0007	-0.0008	0.0007	0	-0.5
0.0007	-0.0015	0.0007	0.0015	-0.5
-0.0015	-0.0015	0.0007	0.0007	-0.6
-0.0008	-0.0015	0.0007	0.0015	-0.5
-0.0008	-0.0023	0	0.0015	-0.5
0	-0.0015	0.0007	0.0015	-0.5
0.0022	-0.0008	0.0007	0.0022	-0.5
0.0015	-0.0008	0.0007	0	-0.5
0.0022	0.0007	0	0.0007	-0.4
-0.0015	0	-0.0008	0.0007	-0.5
-0.0015	-0.0008	-0.0008	0	-0.5
-0.0008	0	0.0007	0.0007	-0.5
-0.0023	0.0007	0.0015	-0.0008	-0.5
-0.0008	0.0007	0.0007	0	-0.5
-0.0008	0.0022	0.0007	0.0007	-0.5
-0.0008	0.0015	0.0007	-0.0008	-0.5
-0.0008	0.0007	0.0022	-0.0008	-0.5
-0.0015	0.0007	0.003	0.0015	-0.4
0	0	0.0022	0.0022	-0.5
0	0.0007	0.0015	0.0015	-0.5
-0.0008	0.0022	0.0007	0.0007	-0.5
0.0015	0.0015	0.0007	0.0007	-0.5
-0.0008	-0.0023	0.0007	-0.0008	-0.5
-0.0008	-0.0008	0.0007	-0.0008	-0.5
-0.0008	0.0022	0.0007	-0.0008	-0.5
-0.0015	0.0007	0	-0.0015	-0.5
-0.0008	0.0007	0.0007	0.0007	-0.4
-0.0023	-0.0015	0.0007	-0.0015	-0.4
-0.0015	-0.0015	-0.0008	-0.003	-0.5
0.0007	-0.0015	-0.0008	-0.0015	-0.5
-0.0008	0.0007	0	-0.0023	-0.5
-0.0008	0.0022	0.0007	-0.0015	-0.5
-0.0008	0.0015	0.0007	-0.0008	-0.4
-0.0008	0	0.0022	-0.0008	-0.5
-0.0008	0.0007	0.0015	-0.0008	-0.5
-0.0015	0.0015	0	0.0007	-0.5
-0.0015	0.0022	-0.0008	0.003	-0.4
0.0015	0.0015	-0.0015	0.0037	-0.4
0.0007	0.0007	-0.003	0.0037	-0.6
0.0007	0.0007	-0.0015	0.0015	-0.3
0.0007	-0.0008	-0.0023	0.0022	-0.5
0.0007	0.0007	-0.0015	0.003	-0.5
0	0	-0.0015	0.0015	-0.6
-0.0015	-0.0015	-0.003	0	-0.4
-0.0008	0.0007	-0.0023	0.0007	-0.5
0.0007	0.0007	-0.0023	0.003	-0.4
0.0015	0.0015	-0.003	0.003	-0.5
-0.0015	0.0022	-0.003	0.0015	-0.3
-0.0015	0.0015	-0.0015	0.0015	-0.6
0	0.0015	-0.003	0.0007	-0.3
-0.0015	0.0015	-0.0015	0.0007	-0.6
-0.0015	0.0015	-0.0015	0.0007	-0.5
-0.0008	0.0015	-0.0015	0.0007	-0.6
-0.0008	0.0007	0.0007	-0.0008	-0.4
-0.0008	0.0007	0.0015	-0.0008	-0.5
0.0007	0.0015	0.0015	0	-0.5
0.0007	0.0007	0.0007	-0.0008	-0.5
0.0007	0.0007	0.0007	-0.0015	-0.5
0.0007	-0.0008	0.0015	-0.003	-0.5
-0.0008	-0.0008	0.0015	-0.0023	-0.6
-0.0008	0	0.0007	-0.0015	-0.3
-0.0008	0.0007	0.0015	-0.0008	-0.6
-0.0015	0.0007	0.0015	0.0022	-0.4
-0.0008	0.0007	0.0015	0.0022	-0.7
-0.0008	0	0.0007	0.0007	-0.3
0	0	-0.0008	0	-0.5
0.0015	0	-0.0008	-0.0008	-0.5
0.0007	-0.0008	0	0.0007	-0.5
0	-0.0015	-0.0015	0.0015	-0.5
0	-0.0008	-0.0008	0.0015	-0.4
-0.0008	-0.0015	0.0015	-0.0008	-0.5
-0.0015	-0.0015	0.0022	-0.0015	-0.3
-0.003	-0.0008	0.0022	0	-0.5
-0.003	0.0007	0.0015	0.0015	-0.5
-0.0008	0.0007	0.0007	-0.0008	-0.6
-0.0008	0.0015	0	-0.0015	-0.5
-0.0015	0.0007	0.0007	-0.0008	-0.5
-0.0015	0.0007	0.003	-0.0008	-0.4
-0.0015	0.0007	0.0045	-0.0008	-0.5
-0.0023	0	0.0045	-0.0008	-0.4
-0.0015	0.0007	0.0037	0.0007	-0.5
-0.003	0	0.003	0.0007	-0.5
-0.003	0	0.003	0.0015	-0.4
-0.0015	0.0007	0.0022	0.0022	-0.4
-0.0008	-0.0008	0.0015	0.0015	-0.5
0.0007	0.0007	0.0015	0.003	-0.4
0.0007	0.0007	0.0015	0.0022	-0.4
-0.0008	0.0045	0.0015	0.0015	-0.5
-0.0046	0.0082	0.0015	0.0045	-0.5
-0.003	0.0105	0.0007	0.0037	-0.5
-0.0023	0.009	-0.0008	0.0022	-0.5
-0.0023	0.0097	-0.0008	0.0015	-0.5
-0.0015	0.009	0	0.0015	-0.6
-0.0023	0.0082	-0.0008	0.0007	-0.5
-0.0008	0.0052	-0.0015	0.0007	-0.6
0.0007	-0.0015	-0.0008	-0.0008	-0.4
0.0022	-0.0143	-0.0008	-0.003	-0.6
0.0022	-0.0375	-0.0015	-0.0046	-0.3
-0.0015	-0.0518	-0.0015	-0.0046	-0.5
-0.0008	-0.033	-0.0015	-0.0023	-0.5
0.0015	-0.0083	-0.0015	0.0007	-0.5
0.0015	0.0022	-0.0015	0.0007	-0.5
0.0007	0.0037	0	0.0007	-0.5
0.0022	0.0045	-0.0008	-0.0008	-0.6
0.0022	0.0067	-0.0008	-0.0008	-0.4
0.0007	0.0067	-0.0015	-0.0008	-0.5
-0.0008	0.0037	-0.0015	0	-0.5
-0.0015	0.003	-0.0008	0.0015	-0.5
-0.0008	0.0045	-0.0008	0.0007	-0.4
0.0007	0.0052	0.0007	0.0007	-0.5
-0.0015	0.0052	0.0015	0.0015	-0.4
-0.0015	0.0045	0.0007	0.0007	-0.6
-0.0015	0.0045	-0.0008	0.0015	-0.5
-0.0008	0.0052	-0.0008	0.0007	-0.6
0	0.0045	0.0015	-0.0008	-0.2
0.0015	0.0052	0.0007	-0.0008	-0.5
0.0015	0.0037	0.0007	-0.0008	-0.5
0.0015	0.0045	0.0007	0	-0.5
0.0007	0.0037	0.0015	0.0015	-0.5
-0.0015	0.0045	0.0015	0.0007	-0.4
-0.0015	0.0037	0.0015	-0.0008	-0.6
-0.0008	0.0022	0.0015	-0.0015	-0.4
-0.0008	0.0015	0.0007	-0.003	-0.5
0.0007	0.0022	-0.0008	-0.003	-0.2
0.0015	0.0022	-0.0015	-0.0038	-0.5
0.0015	-0.0008	-0.0015	-0.0015	-0.2
0.0007	0	-0.0015	0.0007	-0.7
0.0007	0.0007	-0.003	0.0015	-0.4
0	0.0007	-0.0046	0.0015	-0.7
-0.0008	0.0007	-0.0023	0.0007	-0.3
0.0007	0	-0.0015	0.0007	-0.5
-0.0015	0.0007	-0.003	0.0007	-0.5
-0.0015	0.0007	-0.0015	0	-0.5
-0.0008	0.0007	-0.0015	0.0007	-0.4
-0.0008	0.0007	-0.003	0.0007	-0.4
0	0.0015	-0.0015	-0.0008	-0.5
-0.0008	0.0007	-0.0008	0	-0.4
-0.0008	0.0007	0.0007	-0.0008	-0.5
-0.0008	-0.0008	0.0007	0	-0.3
0	0.0007	0.0022	-0.0008	-0.7
-0.0008	0	0.0015	-0.0015	-0.4
-0.0015	0	0.0015	-0.0015	-0.6
-0.0008	0.0007	0.0015	-0.0015	-0.3
-0.0015	0.0015	0.0022	-0.0015	-0.5
-0.0015	0.003	0.0007	0.0007	-0.5
-0.0008	0.003	0.0015	0.0007	-0.5
-0.003	0.003	0.0015	0.0007	-0.5
-0.0023	0.0022	0.0007	0.0007	-0.5
-0.0008	0.0015	0.0007	0.0007	-0.5
0.0007	0.0007	-0.0008	0.0007	-0.5
0.0007	0.0007	-0.0008	0	-0.5
-0.0008	0.0022	0.0015	0.0015	-0.3
-0.0015	0.0015	0.0015	0	-0.5
0.0007	0.0007	0.0022	-0.0008	-0.4
0.0007	0.0015	0.0015	0.0015	-0.5
0.0007	0.0007	0.0015	0.0022	-0.5
0	0.0007	0.0015	0.0015	-0.5
0.0007	0.0007	0.0022	0.0015	-0.3
-0.0008	0.0007	0.0037	0.0022	-0.6
-0.0008	-0.0008	0.0022	0.003	-0.5
-0.0008	-0.0008	0.0007	0.003	-0.5
-0.003	-0.0015	-0.0015	0.0015	-0.5
-0.003	-0.003	-0.0008	0.003	-0.4
-0.0015	-0.0023	-0.0008	0.0037	-0.6
-0.003	-0.0023	-0.0008	0.0015	-0.5
0	-0.0008	-0.0008	0.0022	-0.5
0	-0.0008	-0.003	0.0022	-0.5
0.0007	-0.0008	-0.0038	0.003	-0.4
0.0007	-0.0015	-0.003	0.0022	-0.4
0.0007	-0.0015	-0.0008	0.0015	-0.5
-0.0015	-0.0038	-0.0008	0.0007	-0.5
-0.003	-0.003	-0.0008	0.0007	-0.5
-0.0015	-0.0008	0.0007	0.0007	-0.4
-0.0015	0	0.0007	-0.0008	-0.4
0.0007	0	0.0007	-0.0015	-0.5
-0.0008	0.0015	-0.0008	-0.0023	-0.5
0.0007	0.0007	-0.0008	-0.0015	-0.5
0.003	0.0007	-0.0008	-0.0008	-0.4
0.0015	0.0015	-0.0015	-0.0008	-0.5
0.0015	-0.0008	0	-0.0008	-0.5
0.0007	0.0007	0	0.0007	-0.5
-0.003	0	-0.0008	0.0015	-0.5
-0.0015	0.0007	-0.0008	0.003	-0.5
-0.0008	0.0007	-0.0015	0.0015	-0.5
0.0007	0	-0.0015	0.0007	-0.3
0	0.0007	-0.0015	0.0015	-0.5
-0.0008	0	0.0007	-0.0008	-0.4
-0.0008	-0.0015	0.0007	-0.0008	-0.5
-0.0008	-0.0015	0.0007	-0.0008	-0.4
-0.0008	-0.0008	0.0007	0	-0.5
-0.0008	-0.0008	-0.0008	0.0007	-0.5
0	-0.0008	0	-0.0008	-0.6
0.0007	-0.0008	-0.0008	-0.0008	-0.4
0	0.0007	-0.0015	0	-0.5
-0.0008	-0.0015	-0.0008	-0.0008	-0.5
-0.0015	-0.0015	-0.0008	-0.0008	-0.4
-0.0015	-0.0008	0.0007	-0.0008	-0.5
0	0.0007	0.0015	0.0007	-0.5
-0.0008	0.0007	0.0015	-0.0015	-0.4
0.0007	-0.0015	0.0015	-0.0008	-0.5
0	-0.0008	0.003	0.0015	-0.5
-0.0008	-0.0008	0.003	0.0015	-0.5
-0.0008	0.0007	0.0015	0.0045	-0.5
-0.0008	0.0007	0.0015	0.0015	-0.3
0.0007	0.0015	0.0007	-0.0015	-0.5
0.0015	0.0015	0.0007	-0.0008	-0.4
0	0.0007	-0.0008	-0.0008	-0.5
-0.0008	0.0022	0	0	-0.5
-0.0015	0.0015	0.0007	0	-0.3
-0.0023	0.0007	-0.0015	0.0015	-0.5
-0.0015	0.0015	-0.0023	-0.0015	-0.3
-0.003	0.003	-0.003	-0.003	-0.5
-0.0015	0.0015	-0.0023	-0.0023	-0.5
-0.0008	0.0007	-0.0008	-0.0023	-0.5
-0.0015	0.0015	-0.0008	0	-0.3
-0.0008	0.0007	0	0.0007	-0.5
-0.0008	0.0015	-0.0008	0.0007	-0.5
-0.0008	0	-0.0008	-0.0008	-0.5
-0.0015	0.0007	-0.0008	-0.0015	-0.5
-0.0008	0	-0.0015	-0.0008	-0.5
-0.0008	0	0	-0.0008	-0.5
-0.0008	-0.0008	0	-0.0015	-0.5
0.0015	-0.0015	-0.0008	-0.0023	-0.5
0.0007	-0.0008	-0.0015	0.0007	-0.3
-0.0008	0.003	-0.0015	0.003	-0.5
-0.0015	0.003	-0.0008	0.0052	-0.3
-0.0008	0.0007	0.0007	0.0052	-0.6
0	0.0007	0.0007	0.0022	-0.4
0.0007	-0.0015	0.0007	0.003	-0.4
0.0007	0	0.0007	0.0022	-0.5
0	0	0.0007	0.0022	-0.4
0.0015	-0.0008	0.0007	0.003	-0.5
0.0015	0	0.0007	0	-0.4
-0.0008	-0.0008	0.0007	0.0007	-0.6
-0.0008	0	-0.0008	0.0007	-0.4
0	0.0015	0	-0.0008	-0.5
0.0007	0.0007	-0.0008	-0.0008	-0.4
0	0.0015	-0.0008	0	-0.5
0	0.0015	0	-0.0015	-0.5
0	0.0007	-0.0008	-0.0023	-0.5
0	0.0007	-0.0008	-0.0015	-0.3
-0.0023	0.0007	0.0007	-0.0008	-0.5
-0.0015	0	0.0015	0.0007	-0.3
-0.0008	-0.0015	0.0015	0.0007	-0.4
0	-0.0015	0	0.0007	-0.5
0.0007	-0.0008	0.0007	0	-0.5
0.0015	-0.0008	0.0015	0	-0.5
0	0.0007	0.0007	0.0007	-0.3
0	0.0015	0.0007	-0.0015	-0.6
-0.0008	0.0007	-0.0008	-0.0023	-0.2
0.0007	0	-0.0008	-0.003	-0.5
0.0015	0	-0.0008	-0.003	-0.4
0.0007	-0.0008	0	-0.0015	-0.5
0.0007	0	-0.0015	-0.0015	-0.3
0.0007	-0.0008	-0.0046	-0.003	-0.5
-0.0008	-0.0008	-0.003	-0.0015	-0.4
-0.0008	0.0007	-0.003	-0.0015	-0.5
-0.0008	0.0007	-0.0023	0.0007	-0.5
0.0007	0.0007	-0.0015	0.0015	-0.4
-0.0008	-0.0008	-0.0015	0	-0.5
-0.0008	0	-0.0015	0.0015	-0.5
0.0007	0	0	0.0015	-0.5
-0.0008	0.0007	0.0007	0.003	-0.4
-0.0008	0.0015	0.0015	0.003	-0.5
-0.0008	0.0007	0.0015	0.003	-0.3
-0.0008	-0.0008	-0.0008	0.0015	-0.5
0.0007	0.0007	-0.0008	0.0015	-0.3
-0.0008	0.0007	0.0015	0.0022	-0.4
-0.0008	0	0.0022	0.0007	-0.4
-0.0008	0.0007	0.003	-0.0008	-0.5
-0.003	0.0007	0.0015	0.0015	-0.5
-0.0008	0.0007	0.0015	0.0007	-0.2
0	-0.0008	0.0007	0.0007	-0.4
-0.0023	-0.0008	0.0007	0.0007	-0.4
-0.0023	0.0007	0.0007	-0.0015	-0.5
-0.0008	0.0022	0.0007	-0.0008	-0.5
-0.0015	0.003	0.0007	-0.0008	-0.5
-0.0015	0.0015	0.0007	-0.0015	-0.3
-0.0008	0.0022	0.0007	0	-0.3
-0.0015	0.003	0	0	-0.3
-0.0008	0.0007	0	0.0007	-0.5
0	0.0015	0.0007	0.0007	-0.4
-0.0015	0.0015	-0.0008	-0.0008	-0.3
-0.0008	0.0007	-0.0008	0.0007	-0.5
-0.0015	0	0	0.003	-0.4
-0.0023	0.0007	0.0007	0.0022	-0.5
0.0022	0.0007	0.0007	0.0022	-0.3
0.0007	0.0007	0.0015	0.0022	-0.5
0.0007	0.0007	0.0015	0.003	-0.4
0.0015	-0.0008	0.0022	0.0045	-0.6
-0.0008	-0.0008	0.0037	0.003	-0.3
-0.0015	-0.0008	0.0037	0.003	-0.5
-0.0008	-0.0015	0.0015	0.0015	-0.4
0	0	0.0007	0.0022	-0.5
0	-0.0008	0.0022	0.0045	-0.5
-0.0015	-0.0015	0.0015	0.0015	-0.4
0.0015	-0.0008	0.0007	-0.0008	-0.5
-0.0008	0	-0.0008	0.0007	-0.3
-0.0015	0	-0.0008	0.0007	-0.5
-0.0023	-0.0015	0.0007	-0.0008	-0.3
-0.003	-0.0008	-0.0008	-0.0008	-0.5
-0.0015	0	-0.0015	-0.0008	-0.2
-0.0015	0.0007	-0.0023	0	-0.5
-0.0008	0.0007	-0.0015	0	-0.4
0	-0.0008	-0.0008	-0.0008	-0.5
0	-0.0008	0	-0.0015	-0.3
0	0.0007	0.0007	-0.0015	-0.6
-0.003	0.0007	-0.0008	-0.0015	-0.4
-0.003	0.0007	-0.0015	0.0015	-0.5
0	0.0015	-0.0015	0.0015	-0.5
0	0.0007	-0.0008	0.0007	-0.3
-0.0008	0.0007	-0.0008	0.0007	-0.5
0	0.0007	-0.0008	0.0015	-0.3
0.0007	0.0007	0.0015	-0.0008	-0.6
0.0007	0.0022	-0.0008	-0.0008	-0.3
0.0007	0.0015	-0.0008	0	-0.6
-0.0015	0.0015	0.0015	-0.0008	-0.3
0.0007	0.0022	0.0007	-0.0008	-0.5
0.0022	0.0015	0.0007	-0.0008	-0.4
-0.0008	0.0015	-0.0008	-0.0008	-0.5
0.0007	0.0015	-0.0008	-0.0008	-0.3
0.0015	0.003	0.0007	0.0007	-0.5
0.0007	0.0022	0.0007	0.0015	-0.3
0.0007	0.0007	0	-0.0008	-0.5
-0.0015	-0.0008	0.0007	0.0007	-0.4
-0.0015	-0.0008	-0.0008	0.0015	-0.3
-0.0015	-0.0015	0.0007	0.0007	-0.5
-0.0023	-0.003	0.0007	0.0007	-0.3
-0.0015	-0.003	0.0007	0.0007	-0.5
-0.0015	-0.0015	0.0007	0.0007	-0.5
-0.0015	0.0007	0.0007	0.0007	-0.5
-0.0023	0.0007	0.0015	-0.0015	-0.4
-0.003	-0.0008	0.0007	-0.0015	-0.5
0.0015	0.0007	0	-0.0015	-0.5
0.0007	0	-0.0008	-0.0008	-0.5
-0.0008	-0.0008	-0.0008	-0.0008	-0.4
0	-0.0008	0.0007	-0.0015	-0.5
-0.0015	0	0.0007	-0.0015	-0.4
0	0	-0.0008	-0.0015	-0.4
0.0007	-0.0008	0	-0.0008	-0.5
0	0.0007	-0.0008	-0.0008	-0.4
0.0007	0.0015	0.0007	0.0007	-0.3
0	0.0015	0.0015	0.0007	-0.5
-0.0015	0.0015	0.0007	0.0007	-0.5
-0.0008	0.0015	0	0.0007	-0.5
0	0.0015	0.0007	0.0015	-0.4
-0.0015	0.0007	0	0.0015	-0.4
-0.0008	0.0007	0.0015	0	-0.4
-0.0008	0.0007	0	0.0015	-0.4
0.0007	0.0007	-0.0015	0.0007	-0.5
0.0015	-0.0008	0	0.0007	-0.5
0.0007	-0.0015	-0.0008	0.0015	-0.3
0	-0.0008	0	0.0015	-0.5
-0.0008	-0.0008	-0.0008	0.0015	-0.4
0.0007	0.0015	-0.0008	0.003	-0.5
0	0.0015	-0.0015	0.003	-0.3
-0.0008	0.0007	-0.0008	0.0015	-0.4
0	0.0007	0	0.0007	-0.5
0.0007	0.0007	-0.0015	0.0007	-0.5
0	0.0015	-0.0008	0	-0.5
-0.0008	0.0015	-0.0015	0.0007	-0.4
0	0.0015	-0.0015	0.0022	-0.5
-0.0008	0.0015	-0.0023	0.0007	-0.3
-0.0015	0.003	-0.0015	0.0007	-0.5
-0.0008	0.0007	-0.0008	0.0015	-0.3
0	0.0007	-0.0015	0	-0.5
0	0.0007	0.0007	0.0007	-0.3
-0.0008	0.0007	0	0.0022	-0.5
-0.0015	0.0007	-0.0008	0.0007	-0.4
-0.0008	-0.0015	-0.0008	0	-0.4
0.0007	-0.0008	-0.0008	-0.0008	-0.4
-0.0008	0	-0.0008	-0.0023	-0.5
-0.0008	-0.0008	0	-0.0015	-0.5
-0.0008	-0.0008	-0.0008	-0.0015	-0.3
-0.0008	-0.0015	-0.0008	-0.0008	-0.4
-0.0008	-0.003	-0.0008	-0.0008	-0.4
-0.0008	-0.003	-0.0008	0	-0.5
-0.0015	-0.0015	-0.0008	0.0015	-0.2
-0.0023	-0.0015	0	0.0007	-0.5
-0.0015	-0.0008	0	0.0007	-0.2
0.0007	-0.0008	-0.0015	0	-0.4
0.0015	-0.0008	-0.0023	0.0007	-0.4
0.0022	-0.0008	-0.0023	-0.0008	-0.3
0.0007	0	-0.0015	0	-0.5
0.0007	-0.0008	-0.0008	0.0015	-0.5
0.0007	-0.0008	0.0015	0	-0.5
-0.0008	-0.0008	0.0015	0.0015	-0.3
0.0007	-0.0008	0.0015	0.0022	-0.5
-0.0008	-0.0008	0.0015	0.003	-0.4
-0.0015	0.0007	0.0007	0.003	-0.4
0.0007	0.0007	0.0015	0.0007	-0.5
-0.0015	0.0022	0.0007	0.0007	-0.5
0.0007	0.0007	0.0015	0.0007	-0.3
0.0007	0.0007	0.0015	-0.0008	-0.4
0.0015	0.0022	0.0022	-0.0008	-0.4
-0.0008	0.0022	0.003	-0.0015	-0.5
-0.0015	0.003	0.0037	-0.0015	-0.5
-0.003	0.0015	0.003	-0.0015	-0.4
-0.003	0.0007	0.003	0.0007	-0.5
-0.0015	-0.0008	0.0007	-0.0008	-0.4
-0.003	0.0015	0	-0.0008	-0.5
-0.0015	0.0015	-0.0008	0.0007	-0.1
-0.0015	0.0022	-0.0015	-0.0008	-0.5
-0.0015	0.003	-0.0015	-0.0008	-0.5
-0.0008	0	0.0007	0.0007	-0.4
-0.0008	-0.0015	-0.0008	-0.0015	-0.5
0.0007	-0.0008	-0.0023	-0.003	-0.3
-0.0008	-0.0008	-0.003	0	-0.5
-0.0008	-0.0008	-0.0015	-0.0015	-0.3
0	0.0007	0.0007	-0.0015	-0.5
-0.0023	0.0015	0	-0.0008	-0.3
-0.0008	0.0007	-0.0008	-0.0008	-0.5
-0.0008	0	-0.0008	-0.0008	-0.2
-0.0015	0.0007	-0.0008	-0.0008	-0.5
0	0.0007	-0.0015	0.0007	-0.2
0.0015	0.0007	-0.0023	0.0022	-0.4
0.0015	0.0007	-0.0008	0.0015	-0.3
0.0015	0	-0.0015	0.003	-0.5
0.0007	0.0007	-0.003	0.003	-0.3
0.0007	0.0015	-0.0008	0.0015	-0.5
0	0.0007	0	0.0015	-0.5
-0.0015	0.0015	0.0007	0	-0.5
0	-0.0008	-0.0008	-0.0008	-0.5
0.0007	-0.0015	0	-0.0008	-0.2
-0.0008	-0.0008	0.0015	-0.0015	-0.5
-0.0008	-0.0008	0.0007	-0.0008	-0.2
0.0007	-0.0015	0.0007	-0.0008	-0.5
0.0015	-0.003	0.0022	-0.0008	-0.3
0.0007	0	0.0007	0	-0.4
0.0015	0.0007	0.0007	-0.0023	-0.2
0.0007	0.0007	0	-0.0015	-0.4
-0.0008	0.0007	0.0007	-0.0015	-0.4
-0.0008	0.0015	0.0007	-0.0008	-0.5
0.0007	0.0007	0.0007	-0.0008	-0.5
0.0015	0.0007	0.0015	-0.0008	-0.5
0.0022	-0.0008	0.0015	-0.0008	-0.3
0.0007	-0.0015	0.0007	0.0007	-0.5
-0.0008	0	0	0.003	-0.4
0.0007	0.003	0	0.0045	-0.3
0	0.0007	0	0.0052	-0.5
0.0007	0.0007	0.0007	0.003	-0.2
0.0007	0.0007	0.0007	0.0007	-0.4
-0.0008	0	0.0007	0.0007	-0.3
-0.0015	0	0.0007	0.0015	-0.4
-0.0015	-0.0008	0	0.0007	-0.4
-0.0015	0.0007	0.0007	0.0007	-0.5
-0.0015	-0.0015	0.0015	-0.0008	-0.4
-0.003	-0.0008	0.0015	0	-0.3
-0.0038	0.0007	0.0015	-0.0008	-0.5
-0.003	0.003	0.0015	0.0007	-0.5
-0.0008	0.0082	0.0007	0.0045	-0.5
-0.0008	0.0112	0.0015	0.0037	-0.4
0.0007	0.012	0.0007	0.0052	-0.3
0.0015	0.012	0.0007	0.0045	-0.5
0.0007	0.0112	0	0.0015	-0.5
-0.0015	0.009	-0.0015	-0.0008	-0.3
0	0.0052	-0.0008	-0.0008	-0.4
-0.0008	0.0015	0	0	-0.5
-0.0015	-0.0068	-0.0023	-0.0023	-0.5
-0.0015	-0.027	-0.0008	-0.0053	-0.5
-0.0015	-0.0495	-0.0008	-0.0053	-0.2
-0.0015	-0.0428	-0.0015	-0.0015	-0.3
-0.0015	-0.0165	-0.003	-0.0008	-0.3
-0.003	-0.0008	-0.0015	0.0007	-0.5
-0.0015	0.006	-0.0015	0.0015	-0.2
-0.0008	0.0052	-0.0015	0.0015	-0.5
0.0007	0.0052	-0.0008	0.003	-0.3
-0.0008	0.0045	0.0015	0.0015	-0.4
0.0007	0.0052	0.0022	-0.0008	-0.4
0.0007	0.0052	0.0022	-0.0015	-0.4
0	0.003	0.0015	-0.003	-0.4
0	0.0052	0.0015	-0.003	-0.4
-0.0015	0.0052	0.0015	-0.003	-0.5
-0.0008	0.0045	0.0007	-0.0015	-0.5
-0.0015	0.0045	0.0015	-0.0008	-0.4
-0.0015	0.0052	0.0007	-0.0015	-0.3
0.0007	0.0052	0.0007	-0.0008	-0.6
-0.0008	0.0052	0.0007	-0.0008	-0.3
-0.0008	0.0045	0.0007	-0.0008	-0.5
0	0.0045	0.0015	0	-0.2
0	0.003	0.0015	-0.0008	-0.6
-0.0008	0.0022	0.0015	0	-0.4
-0.0008	0.0007	0.0007	-0.0008	-0.5
-0.0008	0.0007	0.0007	-0.0015	-0.4
0.0007	0.0015	0.0007	-0.0015	-0.3
-0.0008	0.0007	0.0007	-0.0015	-0.4
-0.0008	0.0007	0	-0.0015	-0.5
0.0015	0.0007	0	0.0007	-0.4
0.0015	0.0015	-0.0015	0.0007	-0.2
-0.0008	0.0015	-0.0023	0.0015	-0.5
-0.0008	0.0007	-0.0008	0.003	-0.2
-0.0008	0.0015	-0.003	0.003	-0.5
0	0	-0.003	0.0022	-0.4
-0.0008	-0.0008	-0.003	0.003	-0.4
-0.0023	0	-0.003	0.0015	-0.3
0	-0.0008	-0.0038	0.0022	-0.4
0.0007	0.0007	-0.0038	0.0015	-0.4
-0.0015	0	-0.0015	-0.0008	-0.5
0.0007	0.0015	-0.0008	-0.0008	-0.4
0.0007	0.0015	-0.0008	-0.0008	-0.4
0.0007	0.0015	0	0.0015	-0.4
0.0007	0.0015	-0.0008	0.0022	-0.5
-0.0015	-0.0008	-0.0015	0	-0.5
-0.0008	-0.0008	0.0007	0	-0.3
0	0	0	0	-0.5
-0.0008	0.0015	0.0007	0.0015	-0.2
-0.0008	0.0007	0.0022	0.0022	-0.6
-0.0008	0	0.0022	0.0015	-0.4
0	-0.0008	0.0007	0.0022	-0.5
0.0007	-0.0015	-0.0008	0.0015	-0.4
0	0.0007	-0.0015	0.0022	-0.5
-0.0008	0.0007	-0.0015	0.0015	-0.4
-0.0008	0	0.0007	0.0015	-0.4
0.0007	-0.0008	0.0015	0.0015	-0.3
0.0007	-0.0015	0	0.0007	-0.5
-0.0023	-0.0023	0.0015	0.0007	-0.4
-0.0038	-0.0015	0.003	0.0007	-0.4
-0.0015	-0.0015	0.0015	0.0007	-0.5
-0.0008	-0.0008	0.0007	0.0007	-0.6
-0.0015	0.0007	0.0015	0.0015	-0.4
-0.0008	0.0015	0.0015	-0.0008	-0.3
0	0.0015	0.0007	-0.0008	-0.5
0.0007	-0.0015	-0.0008	-0.0008	-0.5
-0.0015	-0.0008	0	0	-0.4
-0.0023	0.0007	-0.0008	0.0007	-0.4
-0.0015	0.0007	-0.0015	0.0007	-0.4
0.0007	0.0015	-0.003	0.0015	-0.5
0	0.0007	-0.003	0.0007	-0.4
-0.0008	0.0007	-0.0015	-0.0008	-0.5
0	0.0007	-0.0015	0	-0.2
-0.0008	0.0007	-0.0015	0.0015	-0.3
-0.0008	0.0015	-0.0008	0.0015	-0.5
0	0.0007	-0.0008	0.0007	-0.4
0.0007	0.0007	-0.0008	-0.0008	-0.5
0.0007	0.0007	-0.0015	-0.0008	-0.3
-0.0008	0	-0.0008	-0.0015	-0.3
-0.0008	-0.0008	-0.0008	-0.0008	-0.5
-0.0008	-0.0008	0	-0.0008	-0.4
-0.0008	-0.003	0.0007	-0.0008	-0.4
0	-0.003	0.0007	0.0015	-0.5
0.0007	-0.0015	0.0007	0	-0.4
0	-0.0015	0.0007	0.0007	-0.4
0	-0.0008	0.0007	0	-0.4
0.0007	-0.0008	0.0015	-0.0015	-0.4
-0.0008	0.0007	0.0007	0	-0.2
0	0.0015	0.0007	-0.0008	-0.5
0	0.0015	0.0015	-0.0008	-0.3
-0.0015	0.003	0.003	-0.0008	-0.3
0	0.0015	0.0015	-0.0008	-0.4
0.0007	0.0007	0.0022	0	-0.4
0.0007	0.0007	0.0022	-0.0008	-0.4
0	-0.0008	0.0007	-0.0015	-0.3
-0.0015	-0.0015	0.0007	-0.0008	-0.4
-0.003	-0.0015	0	-0.0008	-0.4
-0.003	-0.0008	0.0007	0.0007	-0.5
-0.0015	0.0007	0.003	0.003	-0.2
0	-0.0008	0.0015	0.0015	-0.5
0.0007	-0.0008	0.0007	0.0007	-0.2
0	0	-0.0008	0	-0.5
-0.0008	-0.0015	0.0007	0	-0.3
0	-0.0015	0.0015	0.0015	-0.5
-0.0015	0	0.0015	0.0015	-0.5
-0.0015	0.0007	0.0015	-0.0008	-0.3
0.0007	0.0022	0.0007	-0.0008	-0.3
0.0015	0.0022	0.0015	-0.0008	-0.4
0.0007	0.003	0.0015	-0.0008	-0.5
-0.0008	0.0007	0.0007	0	-0.3
-0.0015	0.0007	0.0007	0	-0.5
0	0.0015	0.0015	0	-0.3
-0.0015	0.0007	0.0007	-0.0008	-0.4
-0.0008	0.0015	-0.0008	-0.0023	-0.2
0.0007	0.0015	-0.0023	-0.0015	-0.5
-0.0008	0.0007	-0.0038	0	-0.2
-0.0015	0.0007	-0.0023	-0.0008	-0.4
-0.0015	0.0007	-0.0008	-0.0015	-0.3
-0.0008	0.0007	-0.0015	-0.0015	-0.3
-0.0038	0.0022	-0.0015	0	-0.4
-0.0008	0.0015	-0.0023	-0.0008	-0.3
0.0015	0.0015	-0.0015	-0.0015	-0.4
0.0007	0.0015	-0.0008	-0.0008	-0.5
-0.0008	0.0015	0.0007	-0.0008	-0.3
-0.0008	0.0015	0.0015	-0.0008	-0.2
-0.0015	0	0.0007	-0.0008	-0.3
-0.003	0.0007	0.0015	0.0007	-0.3
-0.003	0.0007	0.0015	0.0022	-0.4
-0.0023	0.0007	0.0015	0.003	-0.4
0	0.0007	0.0007	0.0037	-0.3
0.0007	0.0007	0	0.0045	-0.5
-0.0008	0.0015	0.0007	0.003	-0.5
-0.0015	-0.0008	0	0.0015	-0.5
-0.0008	0	0.0007	0.0007	-0.2
-0.0008	-0.0008	0	0	-0.5
-0.0015	0.0007	0	0	-0.2
0.0007	0.0015	0.0007	0	-0.5
-0.0008	-0.0008	0	-0.0008	-0.2
-0.0008	0	0.0007	-0.0008	-0.4
0	0	0.0007	-0.0008	-0.4
-0.0015	0.0007	0	-0.0008	-0.3
-0.0008	0.0015	-0.0015	0.0007	-0.5
0.0007	0.0007	-0.0008	0.0007	-0.4
0.0015	0.0007	-0.0008	0.003	-0.4
-0.0008	0	-0.0015	0.0007	-0.3
0.0007	0	-0.0008	-0.0008	-0.4
-0.0008	-0.0008	-0.0015	-0.0008	-0.3
-0.003	-0.0015	-0.0015	0	-0.4
-0.0008	-0.0015	-0.0008	0.0022	-0.2
0	-0.0023	-0.0008	0.0015	-0.5
0	-0.0015	-0.0008	0.0007	-0.2
0.0007	-0.0015	0.0007	0.0015	-0.5
0	-0.0015	-0.0008	0.0007	-0.2
-0.0008	-0.0015	0.0007	0.003	-0.5
-0.0008	-0.0008	0.0007	0.003	-0.4
0	0.0007	0.0015	0.0037	-0.3
0.0007	0	0.0015	0.0045	-0.3
0.0007	-0.0015	-0.0008	0.003	-0.3
0.0007	-0.0015	0.0007	0.003	-0.5
0.0007	0	0.0015	0.0022	-0.3
0.0007	-0.0008	0.0015	0.0022	-0.5
0.0007	-0.0008	0.0015	0.0007	-0.3
0.0007	-0.0008	0	0.0015	-0.5
-0.0015	-0.0008	0.0015	0.0015	-0.2
-0.0015	-0.0008	0.0007	0.0015	-0.5
-0.0015	0	0.0007	0.0007	-0.2
-0.0008	0.0007	0.0022	-0.0008	-0.3
-0.0015	0.0022	0	0	-0.3
-0.0008	0.003	-0.0008	0	-0.4
0.0022	0.003	-0.0015	-0.0008	-0.2
0.0015	0.0015	-0.0008	-0.0008	-0.5
0	0.0007	-0.0008	-0.0015	-0.4
0.0015	0.0007	-0.0015	0.0007	-0.4
0.0007	0.0007	-0.0008	-0.0008	-0.5
-0.0023	0.0015	-0.0015	-0.003	-0.2
-0.0015	0.0007	-0.0008	-0.0008	-0.5
0	0	-0.0008	-0.0008	-0.2
0.0007	0.0022	-0.0015	-0.0008	-0.5
-0.0015	0.0037	-0.0023	0.0015	-0.2
-0.003	0.0015	-0.003	-0.0008	-0.5
-0.0023	0.0015	-0.0008	0	-0.3
-0.0023	0.0015	-0.0008	0.0015	-0.5
-0.0008	0.0007	-0.0008	0	-0.3
0.0015	0.0007	0	-0.0008	-0.4
0.0015	0.0022	-0.0008	-0.0008	-0.4
-0.0008	0.0015	-0.0008	-0.0008	-0.5
-0.0008	-0.0008	-0.0008	-0.0015	-0.3
-0.0008	-0.0008	0	-0.0008	-0.4
0	0	-0.0008	-0.0008	-0.3
0.0007	0.0007	0.0007	0.0007	-0.5
-0.0008	0	0.0022	0.0022	-0.5
-0.0015	-0.0008	0.0007	0.0007	-0.4
-0.0023	0.0007	0.0007	0	-0.5
0.0007	0.0015	0.0007	-0.0008	-0.4
0.0037	-0.0008	0.0015	-0.0008	-0.4
0.0015	0.0007	0.0007	0	-0.4
0.0015	-0.0008	0.0022	0.0015	-0.3
0.0007	0	0.0037	-0.0008	-0.3
0.0015	0.0007	0.0022	-0.0008	-0.4
-0.0015	-0.0015	0.0015	0.0015	-0.5
-0.0008	0.0007	0	-0.0008	-0.2
0.0007	0	-0.0008	-0.0015	-0.4
-0.0008	-0.0015	-0.0008	-0.0008	-0.4
-0.0008	0.0007	-0.0008	0	-0.4
-0.0015	-0.0008	-0.0023	0.0007	-0.5
-0.0023	0	-0.0023	0.0007	-0.4
-0.0023	0.0037	-0.0015	0.0015	-0.5
-0.003	0.0105	-0.0015	0.0022	-0.5
-0.0023	0.0127	0.0007	0.0022	-0.4
-0.0023	0.0127	0.003	0.0007	-0.3
0	0.0135	0.003	0.0007	-0.5
0.0007	0.0112	0.0045	-0.0008	-0.5
-0.0023	0.0097	0.003	-0.0008	-0.5
-0.0015	0.006	0.0015	-0.0015	-0.2
0	0.003	0.0007	-0.0023	-0.5
-0.0008	-0.0083	0.0007	-0.003	-0.2
-0.0023	-0.033	-0.0008	-0.0046	-0.5
-0.0015	-0.0495	-0.003	-0.0038	-0.3
-0.0015	-0.033	-0.0046	-0.0008	-0.5
-0.003	-0.0083	-0.0053	0.0007	-0.5
0	0.0015	-0.003	0.003	-0.4
0	0.0037	-0.003	0.0037	-0.4
0.0015	0.0045	-0.0023	0.0045	-0.4
0.0007	0.0052	-0.0008	0.0045	-0.4
-0.0015	0.006	0.0007	0.0015	-0.4
-0.0015	0.006	0.0015	0.0007	-0.5
-0.0008	0.0045	0.0007	-0.0008	-0.3
-0.0015	0.0052	-0.0015	-0.0008	-0.5
-0.0008	0.0052	0.0007	-0.0015	-0.3
0.0007	0.0045	0.0007	-0.0008	-0.5
-0.0008	0.0045	-0.0008	0.0007	-0.3
0.0007	0.0045	-0.0008	0.0007	-0.5
0.003	0.003	-0.0008	-0.0008	-0.2
-0.0008	0.003	-0.0008	-0.0015	-0.5
-0.0008	0.0045	-0.0008	0	-0.5
-0.0015	0.003	-0.0008	0	-0.3
-0.0023	0.0015	0	0	-0.4
-0.0015	0.0022	0.0015	0.0007	-0.3
0	0.0045	0.0015	0.0007	-0.5
0.0015	0.003	0.0015	-0.0008	-0.3
0.0007	0.0015	0.0007	0	-0.4
0.0007	0.0015	0.0007	0.0007	-0.3
0.0015	-0.0008	0.0007	0.0007	-0.6
0.0007	0.0007	0	0	-0.3
-0.0008	0	-0.0008	0.0007	-0.5
0.0015	0	-0.0008	-0.0008	-0.4
0.0015	-0.0008	0	0	-0.6
0.0007	-0.0015	0.0022	-0.0008	-0.3
0.0007	0.0007	0.0022	0	-0.6
-0.0023	0.0007	0.0007	0.0007	-0.2
-0.0023	0.0015	0.0015	0.0007	-0.3
-0.0008	-0.0008	0.0022	0.0007	-0.4
-0.003	-0.0015	0.0015	0.0015	-0.4
-0.003	-0.0008	0.0015	0.0022	-0.5
0.0015	-0.0008	-0.0008	0.0015	-0.2
-0.0008	0.0007	-0.0008	0.0015	-0.4
0	-0.0008	0	0.0015	-0.4
0	0	0.0015	0.0015	-0.5
-0.0008	0.0015	0.0007	0.0015	-0.4
-0.0008	0.003	0.0007	0	-0.5
-0.0023	0.003	0.0007	0.0015	-0.2
-0.0015	0.0015	-0.0008	0.0015	-0.5
-0.0008	0	0	0.0007	-0.2
0.0007	0.0015	-0.0008	0	-0.4
0.0007	0.0015	0.0007	-0.0008	-0.4
-0.0008	0.0007	0.0007	0.0007	-0.4
-0.0008	-0.0008	-0.0008	0.0007	-0.2
0	0.0007	0	0.0015	-0.4
0	0.0007	-0.0008	0.0007	-0.5
-0.0015	0	-0.0015	0	-0.3
-0.0015	-0.0015	-0.0015	0.0007	-0.5
0	-0.0008	-0.0008	0	-0.3
0	0	-0.0015	0	-0.5
0.0007	0.0007	-0.0023	0.0007	-0.3
-0.0015	0.0015	-0.0008	0.0015	-0.5
-0.0008	0.0015	-0.0008	0	-0.2
0.0007	0.0015	0	-0.0015	-0.4
0	0.0015	-0.0008	-0.003	-0.2
-0.0008	0.0007	0	-0.0015	-0.5
-0.0015	-0.0008	0	-0.0008	-0.3
0	-0.0008	0.0007	-0.0008	-0.3
0.0007	-0.0008	0.0007	-0.0023	-0.4
-0.0008	-0.0008	0.0007	-0.003	-0.4
-0.0023	0.0015	0.003	-0.003	-0.5
-0.0008	0.0007	0.003	-0.0038	-0.4
0.0007	-0.0008	0.0015	-0.0015	-0.4
-0.003	-0.0015	0.003	-0.003	-0.4
-0.0008	0.0007	0.003	-0.0023	-0.5
-0.0008	-0.0023	0.0022	-0.003	-0.4
-0.0008	-0.003	0.0022	-0.0046	-0.2
0	-0.003	0.0015	-0.0023	-0.4
0.0007	-0.0023	0.0007	-0.0023	-0.4
0.0007	-0.0015	-0.0008	-0.0015	-0.4
-0.0015	-0.0015	-0.0015	-0.0008	-0.5
0.0015	-0.003	-0.0015	0.0007	-0.4
0	-0.003	-0.0023	0.0007	-0.2
-0.0023	-0.0023	-0.0023	0	-0.5
-0.0015	-0.0008	-0.0015	0.0007	-0.5
-0.0015	-0.0008	-0.003	0.0015	-0.3
0.0015	-0.0008	-0.0023	0.003	-0.2
0.003	-0.0008	-0.0008	0.0022	-0.3
0.003	0.0007	-0.0015	0.0022	-0.2
0.0015	0.0007	-0.0008	0.0015	-0.3
0.0007	-0.0008	0.0007	0.0015	-0.4
0.0007	-0.0008	-0.0008	0.0015	-0.2
0	0	-0.0015	0.0007	-0.3
0.0007	-0.0008	-0.0008	0.0015	-0.3
-0.0008	-0.0008	-0.0008	0.003	-0.4
-0.0008	-0.0008	-0.0015	0.0037	-0.2
0	-0.0015	-0.0008	0.003	-0.5
-0.0008	-0.003	0.0007	0.003	-0.3
0	-0.0008	0	0.0022	-0.4
-0.0008	-0.0008	0.0007	0.003	-0.3
0.0007	0.0015	0.0007	0.0015	-0.5
0.0007	0.0037	-0.0008	0.0015	-0.3
-0.0008	0.003	-0.0015	0.003	-0.4
-0.0008	0.003	0.0007	0.0037	-0.4
-0.0015	0.003	0.0015	0.003	-0.4
0	0.0037	0.0007	0.003	-0.4
-0.0015	0.0037	0.0015	0.0037	-0.3
-0.0008	0.003	0.0015	0.0015	-0.4
0	0.0015	0.0022	0.0007	-0.3
-0.0015	0.0015	0.0022	0.0015	-0.3
-0.0008	0.0007	0.0007	0	-0.3
-0.0015	-0.0008	0	-0.0015	-0.5
-0.0008	-0.0008	-0.0008	-0.0008	-0.4
-0.0015	-0.0008	0.0007	0.0007	-0.4
-0.0015	0	-0.0008	-0.0008	-0.2
-0.0015	0	0	-0.0008	-0.3
-0.003	-0.0008	-0.0008	-0.0008	-0.5
-0.0015	-0.0008	-0.0015	-0.0015	-0.4
-0.0008	0	-0.0008	-0.0015	-0.4
0	-0.0008	-0.0015	-0.0015	-0.4
-0.0008	-0.0008	0	-0.0008	-0.4
-0.0008	0.0007	0.0007	0.0007	-0.2
-0.0008	0.0007	0.0007	0.0007	-0.5
-0.0008	0.0015	-0.0015	0.0007	-0.3
0	0.0015	-0.0015	0.0007	-0.5
-0.0015	0.0037	0	0.0007	-0.2
-0.0023	0.003	-0.0015	0.003	-0.4
-0.0046	0.0015	-0.0015	0.003	-0.3
-0.003	0.003	-0.0008	0.0045	-0.3
-0.0008	0.0015	-0.0023	0.003	-0.4
-0.0015	0.0007	-0.0015	0.0022	-0.2
-0.0008	0.0007	0	0.0007	-0.5
0.0007	-0.0015	0.0015	0.0007	-0.3
0.0007	-0.0008	0.0007	0.0015	-0.2
0.0007	-0.0015	0.0022	-0.0008	-0.4
0	-0.003	0.0015	-0.0008	-0.3
-0.0015	-0.0038	0.0007	-0.0008	-0.5
-0.0015	-0.0023	0.0022	-0.0008	-0.5
0.0015	-0.0008	0.0015	0	-0.4
0.0015	-0.0008	0.0015	-0.0008	-0.5
-0.0008	0.0007	0.0015	0.0015	-0.3
-0.0015	-0.0008	0.003	0.0007	-0.3
0	0	0.0022	-0.0008	-0.5
-0.0023	0.0015	0.0015	-0.0008	-0.4
-0.003	0	0.003	-0.0008	-0.5
-0.0015	0.0007	0.0015	-0.0008	-0.3
-0.0008	-0.0008	0.0022	0.0007	-0.5
0.0015	-0.0008	0.0015	0	-0.3
0.0015	0	0.0007	0	-0.5
-0.0008	-0.0008	0.0007	-0.0008	-0.3
-0.0015	0.0015	0	-0.003	-0.3
0.0007	0.0007	0.0015	-0.0015	-0.4
0.0015	0	0	-0.0015	-0.3
0.0007	0.0015	0.0007	-0.0015	-0.5
-0.0015	0.0007	0.0007	-0.0015	-0.5
-0.0008	0	0	-0.0015	-0.4
0.0007	-0.0008	0.0007	-0.0008	-0.4
0	0	0	-0.0008	-0.5
0	-0.0008	-0.0023	-0.0008	-0.3
0.0007	0.0007	-0.0023	-0.0008	-0.5
-0.0008	0.0022	-0.0008	-0.0008	-0.4
0.0007	0.0007	-0.0008	-0.0015	-0.5
0.0015	0.0022	0	-0.0008	-0.3
-0.0008	0.0015	-0.0008	-0.0008	-0.7
-0.0008	0.0007	-0.0023	-0.0015	-0.1
-0.0015	0.0015	-0.0015	0	-0.4
-0.0015	-0.0015	-0.0015	0.0007	-0.5
0.0007	-0.0008	-0.0008	0.0015	-0.3
0.0015	-0.0008	-0.0008	0.0007	-0.3
0.0015	0.0007	0	0	-0.3
0.0007	0.0007	-0.0008	0	-0.5
0.0007	0.0007	-0.0008	-0.0008	-0.3
0.0007	0.0015	-0.0008	-0.0008	-0.5
-0.0008	0.0015	-0.0015	0	-0.3
-0.0008	0.0015	-0.0015	0.0015	-0.5
0.0007	0.0015	-0.0023	0.0015	-0.2
-0.0008	0.0015	-0.0023	0.003	-0.5
-0.0008	0.0015	-0.003	0.0022	-0.2
0.0015	0.0007	-0.003	0.0007	-0.5
0.0007	0.0007	-0.0015	0.0015	-0.4
-0.003	0.0015	-0.0008	0.0015	-0.5
-0.0008	0.0022	-0.0008	0.0015	-0.3
0	0.0007	-0.0015	0.0007	-0.4
-0.0008	0.0007	-0.0015	-0.0008	-0.5
-0.0015	0.0015	-0.0015	-0.0008	-0.3
-0.003	0.0015	-0.0023	-0.0008	-0.5
-0.0015	0.0007	-0.0008	0	-0.2
-0.0008	0.003	-0.0008	0	-0.5
-0.0008	0.0015	-0.0008	-0.0008	-0.3
-0.0008	0.0007	0.0007	0	-0.5
0	0.0007	0.0015	-0.0008	-0.2
-0.0015	0	0.003	0.0007	-0.5
-0.003	0.0007	0.0022	0.0007	-0.4
-0.0008	0	0.003	-0.0008	-0.5
-0.0015	-0.0008	0.0022	0.0007	-0.2
-0.0038	-0.0008	0.0037	0.0007	-0.5
-0.003	0.0007	0.0045	0.0007	-0.3
-0.003	0	0.0022	0.0007	-0.5
-0.003	-0.0023	0.003	0.003	-0.4
-0.0008	-0.003	0.0015	0.0037	-0.2
-0.0008	-0.0008	0.0022	0.003	-0.4
-0.0008	-0.0008	0.003	0.0015	-0.3
0.0007	-0.0023	0.0022	0.0022	-0.3
0.0007	-0.0015	0.0022	0.003	-0.3
-0.0008	0	0	0.0015	-0.5
-0.0008	-0.0008	-0.0008	-0.0008	-0.3
0	0.0015	-0.0015	-0.0015	-0.5
0	0.0015	0	-0.0008	-0.5
0.0007	-0.0008	0.0007	-0.0008	-0.4
-0.0008	0	-0.0008	0	-0.5
-0.0015	-0.0008	0.0007	0	-0.5
0.0007	0	-0.0008	0	-0.4
0	-0.0015	-0.0015	-0.0008	-0.3
-0.0008	-0.0015	0	-0.0008	-0.4
-0.0023	-0.0008	-0.0008	-0.0008	-0.4
-0.0008	-0.0008	0	-0.0008	-0.3
-0.0015	0.0007	-0.0008	-0.0008	-0.3
-0.0008	-0.0008	-0.0015	-0.0008	-0.5
0.0007	-0.0008	-0.0015	-0.0008	-0.4
0	0.0007	-0.0015	0	-0.5
0	0.0007	-0.0008	-0.0008	-0.5
0	0	-0.0008	0.0007	-0.4
0	-0.0008	-0.003	0.0007	-0.4
0.0015	0.0007	-0.003	0.0007	-0.5
0.0007	-0.0008	-0.0015	0.0015	-0.6
0	0	-0.0015	0.0007	-0.4
0	-0.0008	-0.0008	-0.0015	-0.5
-0.0015	0	-0.0008	-0.0023	-0.4
-0.0008	0.0007	0	-0.0015	-0.4
-0.0008	0.0022	-0.0008	-0.0008	-0.5
-0.0015	0.0015	0.0007	-0.0008	-0.3
0.0007	0	-0.0008	-0.0008	-0.5
0.0007	-0.0015	0.0007	-0.0008	-0.5
-0.0008	-0.0015	0.0015	0.0007	-0.5
-0.0008	-0.0015	0.0007	-0.0008	-0.3
0.0015	-0.0008	0.0007	0.0007	-0.6
0.0022	-0.0008	0.0007	0.003	-0.4
0.0015	-0.0008	0.0007	0.003	-0.5
0.003	0.0007	0.0007	0.003	-0.2
0.0015	0.0015	0.0007	0.003	-0.6
-0.0015	0.0007	0.0015	0.0022	-0.4
-0.0046	0	0.0007	0.0015	-0.6
-0.0023	0.0007	0.0007	0.0015	-0.2
-0.0008	-0.0015	-0.0015	0.0015	-0.7
-0.0008	-0.0008	-0.0015	-0.0008	-0.2
0	0.0015	0.0007	-0.0015	-0.5
-0.0015	0.0007	0	-0.0015	-0.4
0	0.0015	0.0007	-0.0008	-0.4
0.0007	0	0.0015	-0.0008	-0.4
0	0.0015	0	0	-0.4
0.0007	0.0015	-0.0008	0.0007	-0.5
0.0015	0.0007	0.0007	-0.0015	-0.4
0.003	0.0015	0.0015	-0.0008	-0.5
0.0015	0.0007	0.0015	-0.0008	-0.4
0.0015	0.0015	0	-0.0008	-0.5
0.0015	0.0015	-0.0008	0	-0.2
-0.0008	0.0037	-0.0008	-0.0015	-0.6
-0.0023	0.0015	-0.0015	0.0007	-0.3
-0.0015	0.0015	-0.0015	0.0015	-0.5
-0.0008	0.003	-0.0015	-0.0008	-0.5
-0.0015	0.0022	-0.0008	-0.0015	-0.5
-0.0015	0.0015	-0.0008	-0.0015	-0.4
-0.0023	0.003	0	0.0015	-0.5
-0.0015	0.0007	-0.0008	0.0007	-0.5
-0.0008	-0.0008	-0.0008	0.0007	-0.5
0.0007	-0.0008	0	0.0022	-0.6
-0.0008	-0.0015	0.0007	0.0015	-0.4
-0.0008	-0.0015	0.0007	0.0007	-0.6
-0.0023	-0.0015	0.0007	0.0007	-0.3
-0.0023	-0.0023	-0.0008	0.0007	-0.6
-0.0008	-0.0023	-0.0008	0	-0.3
-0.003	-0.0015	0.0015	0.0015	-0.6
-0.003	-0.0015	0.0007	0.0015	-0.4
-0.0008	0.0007	0.0007	0	-0.6
0	0	0.0015	0.003	-0.4
0	0.0007	0.0015	0.0022	-0.6
-0.0015	0	0.003	0.0015	-0.5
-0.0015	0	0.0052	0.0007	-0.5
-0.0008	0.0007	0.0037	0	-0.4
-0.0008	0.0022	0.0022	-0.0008	-0.5
-0.0023	0.0082	0.0015	0	-0.5
-0.0008	0.0127	-0.0008	0.003	-0.5
0.0007	0.0127	-0.0015	0.0007	-0.6
-0.0008	0.012	-0.0015	0.0022	-0.3
-0.0008	0.0127	0.0007	0.0015	-0.7
-0.0015	0.009	0.0007	-0.0008	-0.4
-0.0015	0.0082	0.0022	0	-0.7
-0.0023	0.0067	0.0015	0	-0.4
-0.0023	0	0	-0.0015	-0.6
-0.0023	-0.0158	0	-0.0038	-0.5
-0.0015	-0.0413	-0.0008	-0.0046	-0.5
-0.0008	-0.0488	-0.0008	-0.0046	-0.4
-0.0008	-0.0263	-0.0008	-0.0015	-0.6
-0.0008	-0.0053	-0.0015	0.0015	-0.3
-0.0023	0.003	-0.0008	0.003	-0.5
-0.0008	0.0037	0.0007	0.003	-0.6
-0.0008	0.0045	-0.0008	0.0007	-0.5
-0.0015	0.006	-0.0008	0	-0.6
-0.0015	0.0052	-0.0015	-0.0008	-0.3
-0.0015	0.0052	-0.003	0	-0.6
-0.0015	0.0045	-0.0015	0	-0.5
-0.0015	0.0045	-0.0023	-0.0015	-0.5
-0.0008	0.0052	-0.0015	0	-0.5
-0.0015	0.006	-0.0023	0	-0.6
0.0007	0.0052	-0.0015	-0.0008	-0.5
0.0007	0.0052	-0.0008	0	-0.5
-0.0008	0.003	0.0015	-0.0008	-0.6
0.0007	0.0022	0.0015	0.0007	-0.5
0.0007	0.0052	-0.0008	0.0022	-0.5
0.003	0.0067	-0.0008	0.0015	-0.5
0.0007	0.0052	0.0007	0.0015	-0.5
0.003	0.0045	0.0022	0.0015	-0.6
0.003	0.003	0.003	0.0007	-0.4
0	0.0022	0.003	0.0015	-0.4
-0.0008	0.0007	0.0015	0.0007	-0.6
-0.0015	0.0007	0.0022	0.0007	-0.5
-0.0008	0.0007	0.0022	0	-0.5
-0.0008	-0.0008	0.0022	0.0007	-0.5
0.0007	-0.0015	0.003	0.0007	-0.6
0.0007	-0.0008	0.0007	0.0007	-0.5
0	0.0007	0.0015	0.0015	-0.5
0	0	0.0007	0.0007	-0.7
-0.0008	0	-0.0015	0.0007	-0.7
0	0.0022	-0.0008	0.0022	-0.6
-0.0008	0.0007	0.0007	0.003	-0.6
0.0007	-0.0015	0.0007	0.0015	-0.4
0.0007	-0.0015	0.0007	0.0022	-0.5
-0.0008	-0.0008	0.0015	0.0015	-0.5
0.0007	-0.0008	0.0007	0.0015	-0.6
0.0015	0.0007	0.0007	0	-0.5
0	0	-0.0015	0.0007	-0.7
0	-0.0023	-0.0046	0.0007	-0.6
0.0015	-0.0023	-0.003	-0.0015	-0.6
0	-0.0015	-0.0015	-0.0023	-0.5
-0.0008	-0.0023	-0.0015	-0.0015	-0.5
-0.0008	-0.0008	-0.0008	0	-0.5
-0.0008	-0.0015	0.0007	-0.0015	-0.7
-0.0023	-0.0008	-0.0008	-0.003	-0.5
-0.0015	-0.0015	-0.003	-0.0015	-0.7
0	-0.0015	-0.0015	-0.0015	-0.5
0	0.0007	-0.0008	-0.0015	-0.6
-0.0008	0.0007	-0.0015	-0.0008	-0.6
0	0.0007	-0.0015	-0.0015	-0.6
-0.0008	0.0007	-0.0015	-0.0008	-0.5
-0.0008	0.0022	-0.003	-0.0008	-0.5
0	0.003	-0.0015	-0.0008	-0.7
0.0007	0.0022	0	0.0007	-0.5
-0.0015	0.0007	0	0.0007	-0.5
-0.0038	0	-0.0008	0.0007	-0.5
-0.003	0.0007	-0.0015	0.0007	-0.7
0	0	-0.0008	-0.0008	-0.5
0	-0.0008	0.0015	0.0007	-0.6
-0.0008	-0.0008	0.0015	0.0015	-0.5
0.0007	0.0007	0.0007	0.0015	-0.6
-0.0015	-0.0015	0.0007	0.0015	-0.5
0	-0.0008	0.0007	0.0015	-0.7
-0.0008	0.0015	0.0007	0	-0.5
-0.0008	0	0.0015	0.0007	-0.6
-0.0015	0	0.0007	0	-0.6
-0.003	0	0.0007	0.0007	-0.5
-0.003	0.0007	0.0007	0.003	-0.5
-0.0015	0	0.0007	-0.0008	-0.6
-0.0008	-0.0008	0	-0.0008	-0.8
-0.0015	-0.0015	0.0015	0.0007	-0.5
-0.0008	0.0007	0.003	0.0015	-0.7
-0.0015	0.0052	0.0022	0.0022	-0.5
-0.0015	0.0097	0.003	0.003	-0.5
0.0007	0.0127	0.0015	0.0045	-0.6
-0.0008	0.0127	0.0015	0.0045	-0.6
-0.0008	0.012	0.0007	0.0037	-0.6
0	0.0105	0.0015	0.003	-0.7
0.0015	0.009	0.0015	0.0015	-0.6
0	0.0045	0.0015	-0.0008	-0.6
0.0007	-0.0008	0.003	-0.0015	-0.5
0.0007	-0.0143	0.003	-0.003	-0.5
0	-0.039	0.0015	-0.003	-0.7
0	-0.0533	0.0007	-0.003	-0.5
0	-0.033	0.0007	-0.0015	-0.7
-0.0008	-0.0091	0	0.0007	-0.5
-0.0015	0.0015	0.0007	0.0015	-0.8
-0.0008	0.0052	-0.0008	0	-0.5
-0.0008	0.0052	-0.0015	-0.0008	-0.7
-0.0008	0.0067	-0.0015	0	-0.6
-0.0015	0.0037	-0.0015	-0.0008	-0.6
0.0007	0.0045	-0.003	0	-0.6
0.0015	0.0052	-0.0015	0.0007	-0.7
0.0007	0.0045	-0.0015	0.0007	-0.7
-0.0008	0.0037	-0.0008	0.0007	-0.6
-0.0008	0.0037	-0.0008	-0.0015	-0.7
0.0007	0.0045	-0.0015	-0.0008	-0.6
0.0022	0.0052	-0.0008	-0.0023	-0.7
0.0007	0.0045	-0.0008	-0.003	-0.7
-0.0008	0.003	0.0007	-0.0015	-0.5
0.0007	0.0007	0.0037	-0.003	-0.6
-0.0008	0.0007	0.003	-0.0015	-0.6
-0.0015	0.003	0.0022	-0.0008	-0.6
-0.0008	0.0045	0.0007	0.0007	-0.6
-0.0008	0.003	-0.0008	-0.0008	-0.7
0.0015	0.0015	-0.0015	-0.0008	-0.5
0.0015	0.0015	-0.0008	-0.0008	-0.6
0.0007	0.0015	-0.0015	0	-0.6
0	0.003	-0.0008	0.0007	-0.7
-0.0015	0.003	-0.0015	0.0015	-0.5
-0.0015	0.0045	-0.0008	0.003	-0.6
-0.0015	0.0045	-0.0008	0.0007	-0.5
-0.0008	0.003	-0.0008	0.0007	-0.6
0.0007	0.003	-0.0008	0.0007	-0.7
-0.0008	0.0037	-0.0015	-0.0008	-0.8
-0.0015	0.003	-0.0015	-0.0015	-0.7
-0.0038	-0.0008	-0.0015	-0.0008	-0.8
-0.0023	-0.0015	-0.0008	0.0007	-0.8
0.0015	0	-0.0008	0.0022	-0.8
-0.0015	0.0015	-0.0008	0.0045	-0.7
-0.003	0.0015	-0.0008	0.003	-0.6
-0.0008	0	-0.0023	-0.0008	-0.6
0	0	-0.0015	-0.0015	-0.6
-0.0008	0.0007	-0.0015	-0.0023	-0.7
-0.0015	0.0015	-0.0008	-0.0015	-0.6
0	-0.0008	-0.0015	-0.0008	-0.8
0	-0.0008	0	-0.0008	-0.5
-0.0008	-0.0008	0	0.0007	-0.7
-0.0008	-0.0015	0.0007	0.0007	-0.7
0.0007	-0.0015	0.0015	-0.003	-0.8
0.0015	-0.0008	0.0007	-0.0038	-0.7
0.0015	-0.0023	0.003	-0.003	-0.5
0.0015	-0.0015	0.003	-0.0008	-0.7
0.0007	-0.0008	0.003	0.0007	-0.5
0.0015	0	0.0015	0.0022	-0.7
-0.0008	0.0007	-0.0008	0.003	-0.4
0	0.0007	0.0007	0.003	-0.8
-0.0015	-0.0008	0.0015	0	-0.5
-0.0008	-0.0023	0.0015	0.0007	-0.8
0.0007	-0.0015	0	0.0022	-0.6
-0.0008	-0.0008	0.0007	0.0045	-0.8
-0.0008	0	0.0007	0.006	-0.6
-0.0015	0.0007	0.0007	0.0037	-0.7
-0.0015	-0.0015	0.0015	0	-0.5
-0.0008	-0.0023	0	-0.0015	-0.8
-0.0008	-0.0008	-0.0015	0	-0.7
-0.0008	0	-0.0008	0.0007	-0.8
-0.0008	0.0015	-0.0008	-0.0008	-0.7
-0.0015	0.0015	-0.0023	-0.0015	-0.5
0.0015	0	-0.003	0.0007	-0.7
-0.0008	0.0015	-0.0023	0.0007	-0.6
-0.0015	0.003	-0.0015	0.0007	-0.8
-0.0015	0.0007	-0.0015	0.0015	-0.6
-0.003	0.0007	-0.0008	-0.0008	-0.7
-0.0008	-0.0008	0.0007	-0.0015	-0.5
0.0015	0	0	-0.0015	-0.8
0.0007	0.0007	-0.0008	-0.0015	-0.7
0.0007	-0.0008	-0.0008	-0.0015	-0.7
-0.0008	0.0007	0	-0.0008	-0.7
-0.0015	0.0007	-0.0008	0.0007	-0.7
-0.0023	0.0015	-0.0008	0.0007	-0.7
-0.0008	0.0015	0.0007	0.0007	-0.8
0.0007	0.0007	0.0007	0.003	-0.7
0.0007	0.0007	-0.0008	0.0037	-0.6
0.0007	0.0007	-0.0008	0.0045	-0.8
-0.0008	0.0015	0.0022	0.003	-0.6
-0.0008	0.0007	0.0015	0.003	-0.8
-0.0008	0.0007	0.0022	0.003	-0.6
-0.0008	0.0052	0.0015	0.0022	-0.8
-0.0008	0.0105	0.0015	0.0022	-0.6
-0.0023	0.009	0.003	0.0022	-0.7
-0.0008	0.009	0.0015	0	-0.7
-0.0023	0.009	0.0015	0.0007	-0.6
-0.0015	0.0082	0.003	0.0015	-0.7
0	0.0067	0.0045	-0.0008	-0.5
-0.0023	0.003	0.0022	-0.0015	-0.7
-0.0015	-0.003	0.0022	-0.0023	-0.7
-0.0008	-0.021	0.0007	-0.0046	-0.8
0.0007	-0.0458	0.0015	-0.006	-0.8
-0.003	-0.0488	0.0007	-0.0053	-0.7
-0.003	-0.0233	-0.0015	-0.003	-0.6
-0.0008	-0.003	-0.0008	-0.0008	-0.7
0.0015	0.0045	-0.0008	-0.0008	-0.6
0.003	0.0052	-0.0008	0	-0.7
0.0007	0.0052	-0.0015	0.0007	-0.6
0.0007	0.0052	-0.0015	0.0015	-0.7
0	0.0052	-0.0015	0.0015	-0.7
-0.0008	0.006	-0.0015	0.0015	-0.6
0	0.0045	-0.0008	0.0007	-0.5
0.0007	0.0045	0	0.0007	-0.6
0.0007	0.003	0	0.0007	-0.7
0.0007	0.0045	-0.0008	0.0007	-0.5
0.0022	0.0052	0.0015	0.0007	-0.8
0.0007	0.0022	0.0015	-0.0008	-0.7
0.0015	0.003	0.0007	-0.0008	-0.6
0	0.0052	0	0.0045	-0.7
-0.0015	0.0052	0.0007	0.0045	-0.7
0	0.0037	-0.0008	0.0015	-0.7
-0.0015	0.003	-0.0023	-0.003	-0.5
-0.0008	0.0015	-0.0015	-0.003	-0.7
-0.0015	0.003	-0.003	0	-0.5
-0.0015	0.0015	-0.0008	-0.0015	-0.7
0.003	0.0007	0.0007	-0.003	-0.7
0.0022	0.0022	-0.0008	-0.003	-0.8
0.0007	0.0015	-0.0015	-0.003	-0.4
0	0.0022	-0.003	-0.003	-0.7
-0.0008	0.0015	-0.0015	-0.003	-0.5
0.0007	0.003	0	0	-0.8
0.0007	0.0015	0.0007	0.0015	-0.6
-0.0015	0.0015	0.0015	0.0022	-0.5
-0.0015	0.0037	0.0007	0.0015	-0.7
-0.0008	0.0022	-0.0008	-0.0008	-0.7
-0.003	0	0	0.0015	-0.7
-0.003	-0.0008	0	0.0007	-0.5
0.0007	0.0007	0.0022	0.0015	-0.6
0	0	0.0015	0.0007	-0.7
-0.0015	0.0015	-0.0008	0.0015	-0.7
0	0	-0.0008	0	-0.5
-0.0008	-0.0008	-0.0015	-0.0008	-0.7
-0.0008	0.0007	-0.0015	0.0007	-0.5
0.0007	0.0007	-0.0008	0.0007	-0.7
-0.0015	-0.0015	0.0007	0.0015	-0.5
-0.0008	-0.0015	0	0.0022	-0.8
0.0007	-0.0008	0	0.0022	-0.5
0	-0.0015	0.0007	-0.0015	-0.5
-0.0008	-0.0015	0.0007	-0.0008	-0.6
-0.0015	-0.0008	0.0007	0.0015	-0.5
0	0	0.0015	0.0015	-0.5
-0.0008	0	0.0015	0.0022	-0.4
0	-0.0008	0.0015	0.0015	-0.8
-0.0008	-0.0008	0.0007	0.0007	-0.5
-0.0023	-0.0015	-0.0008	-0.0008	-0.8
-0.0008	0.0007	0.0007	-0.0008	-0.5
-0.0015	0.0007	0.0015	0.0007	-0.8
0	0	0.0007	-0.0008	-0.5
0.0007	0.0015	-0.0008	0.0007	-0.6
0.0007	0.0015	-0.0008	0.0007	-0.4
0	0.0007	-0.0008	-0.0015	-0.8
-0.0015	0	-0.0008	-0.0015	-0.5
0.0007	-0.0008	-0.003	-0.0008	-0.7
0.0015	-0.0008	-0.003	0.0015	-0.4
-0.0015	0	-0.0015	0.0022	-0.7
0	0.0015	-0.0008	0.003	-0.6
0.0007	0.0015	-0.0015	0.003	-0.6
-0.0008	0.0015	-0.0015	0.003	-0.5
0.0015	0.0022	-0.0008	0.003	-0.5
0.0007	0.0007	-0.0008	0.0015	-0.7
-0.0015	-0.0008	0	-0.0053	-0.5
-0.0023	-0.0038	0.0007	-0.0091	-0.7
-0.003	-0.003	-0.0008	-0.0046	-0.4
-0.0015	-0.0023	-0.0008	0	-0.6
-0.0015	-0.0015	0	-0.0008	-0.5
-0.0008	0	-0.0008	-0.0008	-0.6
-0.0008	0.0015	-0.0008	0.0045	-0.5
0	0.0045	0.0015	0.0067	-0.6
-0.0008	0.0022	0.0007	0.003	-0.3
-0.0008	0.0015	0.0007	0.0015	-0.6
-0.0008	0.0015	0.0015	0.0007	-0.4
0.0022	0	0.0007	0.0007	-0.5
0.0037	0.0015	0.0007	0.0015	-0.5
0.0022	0.0015	-0.0008	0.0007	-0.5
0.0007	0.0015	0	0.0022	-0.6
-0.0015	0.0007	0.0007	0.0045	-0.5
-0.0015	-0.0015	0.0015	0.0022	-0.6
-0.003	-0.0015	0.0015	0.0015	-0.3
-0.0023	-0.0008	0.0015	-0.0008	-0.6
0.0007	-0.0015	0.003	-0.003	-0.5
-0.0015	-0.0015	0.0037	-0.0053	-0.7
0.0007	-0.0015	0.003	-0.0053	-0.5
-0.0015	0.0007	0.0015	-0.0023	-0.5
-0.003	0.006	0.0015	0.0007	-0.5
-0.0015	0.0105	0.0007	0.0007	-0.5
-0.003	0.0135	-0.0008	0.0007	-0.5
-0.0008	0.0112	-0.0008	0.0015	-0.5
-0.003	0.0112	-0.0023	0.003	-0.5
0.0007	0.0097	-0.0015	0.0015	-0.4
0	0.0075	-0.0015	0.0007	-0.5
-0.0023	0.006	-0.0023	0.0015	-0.4
-0.0015	-0.0023	-0.0015	0	-0.5
-0.0015	-0.021	-0.0008	-0.0046	-0.4
0	-0.0458	-0.0015	-0.0075	-0.5
0	-0.048	0	-0.0046	-0.4
0.0007	-0.021	-0.0008	-0.0015	-0.5
-0.0008	0.0015	-0.0015	0.0015	-0.5
0	0.0082	-0.0008	0.0045	-0.5
-0.0008	0.0067	-0.0023	0.0015	-0.5
-0.0015	0.0067	-0.0015	0.0007	-0.5
0	0.0067	-0.0015	-0.0015	-0.5
-0.0015	0.0052	-0.0015	-0.0015	-0.5
-0.0015	0.0045	-0.0008	-0.0015	-0.4
0	0.003	-0.0008	-0.003	-0.5
-0.0008	0.0015	0.0007	-0.003	-0.4
-0.0008	0.0015	-0.0008	-0.0015	-0.4
0.0007	0.003	0.0007	0.0007	-0.5
0.003	0.003	0.0015	0.0037	-0.4
0.0015	0.0037	0	0.0067	-0.4
0.0007	0.006	0.0015	0.006	-0.5
0.0015	0.0052	0.0015	0.0015	-0.3
0.0007	0.003	0.0022	-0.0008	-0.5
-0.0008	0.0037	0	0.003	-0.3
0	0.0045	0.0015	0.0067	-0.5
0	0.0045	0.0015	0.0082	-0.3
0.0007	0.0045	0.0007	0.0045	-0.5
-0.0008	0.0015	-0.0015	-0.0008	-0.3
-0.0023	0.0022	0	0.003	-0.5
-0.003	0.0015	0.0007	0.0037	-0.4
-0.0023	0	-0.0008	0.0015	-0.3
-0.0023	0	-0.0015	0.0015	-0.5
-0.0015	0.0007	-0.0008	0.0015	-0.3
-0.0008	0.0022	-0.0008	0.0015	-0.4
-0.0008	0.0015	0	0	-0.2
0.0007	0	0.0007	-0.0015	-0.4
0	-0.003	-0.0008	-0.0046	-0.3
-0.0015	-0.0015	-0.0015	-0.0053	-0.4
-0.0015	-0.0015	0	-0.003	-0.3
-0.003	-0.003	-0.0008	-0.0023	-0.5
-0.003	-0.0015	-0.0008	-0.0008	-0.3
-0.0046	-0.0008	0.0007	0.0015	-0.3
0.0007	0.0015	0.003	0.0045	-0.3
0	0.0015	0.0045	0.003	-0.5
-0.0023	-0.0008	0.0022	0	-0.3
-0.0008	0	0.0015	0.0007	-0.3
0.0015	-0.0008	0.0015	0.0007	-0.3
0.0015	0.0007	0.0007	0.0022	-0.4
0	0.0015	0.0007	0.0015	-0.4
0.0015	-0.0008	0.0007	0	-0.3
0.0007	-0.0008	0.0007	0.0007	-0.4
-0.0015	-0.0008	0.0007	-0.0008	-0.3
0.0007	0	0.0015	-0.003	-0.4
0	0.0015	0.0007	-0.0015	-0.3
-0.0008	0.0007	-0.0008	-0.0008	-0.4
0	0.0007	0.0022	-0.0008	-0.3
-0.0008	0.0007	0.003	0	-0.3
-0.0008	0.0007	0.003	-0.0008	-0.3
0.0007	0.0022	0.003	0.0015	-0.2
0.0007	0.0007	0.003	-0.0008	-0.4
-0.0008	-0.0008	0.003	-0.0015	-0.3
0	-0.0008	-0.0008	-0.0008	-0.3
0.0007	-0.0015	-0.0015	-0.0023	-0.3
-0.0008	-0.0015	-0.0008	-0.003	-0.3
-0.0015	-0.0015	-0.0015	-0.0023	-0.3
-0.0008	-0.0015	-0.0015	-0.0008	-0.4
-0.0015	-0.0008	-0.0015	0	-0.2
-0.0015	-0.0008	-0.0023	-0.0015	-0.2
-0.0008	-0.0015	-0.0015	0	-0.4
0.0015	-0.0015	-0.0008	0.0007	-0.3
0	-0.0015	0	0.0007	-0.2
-0.0008	-0.0015	0	0.0015	-0.3
0.0015	-0.0023	-0.0008	0.0015	-0.3
0.0007	0	-0.0015	-0.0008	-0.3
-0.0008	0.0015	-0.0008	-0.0008	-0.3
-0.0008	0.0015	0	0.0007	-0.2
-0.0015	0.003	0.0015	0.0015	-0.2
-0.0008	0.0015	0	0	-0.3
-0.0015	0.0015	-0.0015	0.0015	-0.3
0	0.0007	-0.0023	0.0007	-0.3
0.0007	-0.0008	-0.0015	-0.0015	-0.2
0.0007	-0.0015	0	-0.0015	-0.2
0.0007	-0.0023	-0.0015	-0.0015	-0.2
0	0.0007	-0.0008	0.0007	-0.2
-0.0015	0	-0.0015	-0.0008	-0.1
-0.003	0.0007	-0.0023	0	-0.3
-0.003	0.0015	-0.0023	-0.0008	-0.2
-0.0023	0.0015	-0.0023	-0.0023	-0.2
-0.0015	0.003	-0.0008	-0.0008	0
-0.0015	0.0007	-0.0008	-0.0008	-0.4
-0.0008	0.0007	-0.0008	-0.0008	-0.2
-0.0015	0.0015	0.0007	0.0007	-0.4
-0.0023	0.0052	0	0.003	-0.2
-0.0008	0.009	-0.0008	0.0045	-0.2
0.0022	0.0105	0.0007	0.0037	-0.2
-0.0008	0.0097	0.0022	0.0045	-0.1
-0.0015	0.009	0.0015	0.0022	-0.1
0.0007	0.0082	0.0015	0.0037	-0.1
-0.0008	0.0075	0.0022	0.0045	-0.3
-0.0015	0.0045	0.0015	0.0037	-0.1
-0.003	-0.0046	0.0015	0.0007	-0.3
-0.0023	-0.024	0.0007	-0.0046	0
-0.0015	-0.048	0.0007	-0.0105	-0.3
0	-0.0428	0.0007	-0.0068	-0.1
0.0015	-0.0143	0	0.0022	-0.2
-0.0008	0.0007	0.0007	0.0037	-0.1
-0.0008	0.0052	0.0022	0.003	-0.1
0.0007	0.0052	0.0015	0.0015	0
0.0007	0.006	0.0015	0.0015	-0.2
0.0015	0.0052	-0.0008	0.0045	-0.1
0.0007	0.0037	-0.0015	0.003	-0.1
-0.0008	0.0045	-0.0015	0.003	-0.2
-0.0015	0.0045	-0.0008	0.0045	0
-0.0015	0.0045	0	0.003	-0.1
-0.003	0.003	-0.0008	0.0007	0
-0.0023	0.0045	-0.0008	-0.0015	-0.2
-0.0008	0.0045	0.0015	0	0.1
-0.0015	0.0045	-0.0008	0.0007	-0.1
-0.0008	0.0037	-0.0008	-0.0008	0.1
0	0.003	-0.0008	0.0007	0
-0.0015	0.0045	0.0007	0.0015	0
-0.0008	0.0067	0	0.003	-0.2
0.0007	0.0052	0	-0.0008	0.2
0.0007	0.003	0.0007	-0.0046	-0.1
0	0.0037	0.0015	-0.0015	0
-0.0008	0.0022	0.0015	-0.0008	0
0.0007	0.0015	0.0007	-0.0015	0
0.0015	0.0007	-0.0008	-0.003	0
-0.0008	0.0007	0.0007	-0.0008	0
0	0.0007	0	0.0007	0.3
0.0007	-0.0008	-0.0015	0.0015	-0.1
0.0015	-0.0015	-0.0023	0.0022	0.2
0.0022	-0.0015	-0.0015	0.0015	-0.1
0.0007	-0.0015	-0.0023	0.0037	0.2
-0.0008	-0.0008	-0.0015	0.0045	0
0	0.0007	0	0.0037	0.2
-0.0015	0	0.0007	0.0022	0
-0.0023	0.0015	0	0.0022	0.1
-0.0015	0.0015	0.0007	0.003	0.1
-0.0023	0.0007	0.0015	-0.0015	-0.1
0.0007	0.0007	0.0015	-0.0068	0
0.0007	0.0007	0.0022	-0.0023	0
-0.003	0	0.0015	0	0.1
-0.0023	-0.0008	-0.0008	-0.0015	0.1
-0.0015	0.0015	-0.0015	0.0015	0
-0.0023	0.0022	0	0.0015	0.1
-0.0023	0.0015	-0.0008	0.0015	0.1
-0.0015	0.0007	-0.0008	0.0015	0
-0.0015	-0.0008	0	0	0.1
0.0007	0.0007	-0.0008	-0.0008	0
-0.0015	0.0015	0.0007	-0.0015	0.1
-0.0023	0	0.0007	-0.0008	0.1
-0.0023	0.0007	-0.0015	-0.0008	0
-0.0008	0	-0.0023	-0.0008	0.1
-0.0008	0.0007	-0.003	0.0007	0.1
0	0.0007	-0.003	-0.0008	0.2
-0.0008	0.0007	-0.0015	-0.0015	0.2
-0.0015	0.0007	-0.0015	-0.0008	0.1
-0.0008	0	-0.0015	-0.0015	0.1
0	-0.0015	-0.0008	-0.0008	0.2
-0.0008	-0.0008	-0.0015	0.0007	0.2
0	-0.0008	-0.0023	-0.0015	0.3
0.0007	-0.0008	-0.0015	-0.0008	0.1
0	0	-0.0008	-0.0008	0.1
-0.0015	-0.0008	-0.0008	-0.0008	0.1
-0.0015	-0.0015	-0.0008	0.0007	0.1
-0.0015	-0.0008	-0.0008	0.0007	0.1
-0.0023	0	0.0007	0.0015	0.1
0.0007	-0.0023	0.0015	-0.0015	0.1
-0.0008	-0.0046	0.0015	-0.003	0.1
-0.0015	-0.0046	0.003	-0.0038	0.2
0	-0.003	0.0022	-0.0046	0.1
0.0015	-0.0038	0.0022	-0.0053	0.1
0.003	-0.0015	0.0045	0	0.2
0.0007	0.0015	0.003	0.0052	0.2
0.0007	0.0022	0.0015	0.0007	0.1
0.0022	0.0007	0.0022	0.0007	0.1
0.0015	0.003	0.003	0.0052	0.2
0.0015	0.003	0.003	0.0052	0.1
0.0007	0.0015	0.0015	0.0052	0.4
-0.0015	0.0007	0.0022	0.0015	0.1
-0.0008	-0.0015	0.0015	0.003	0.4
-0.0015	0.003	0.0015	0.006	0
-0.0008	0.0127	0.0007	0.0037	0.4
0	0.0172	-0.0008	0.0007	0.1
-0.0015	0.0105	-0.0008	-0.003	0.4
-0.0008	0.0037	0	-0.0038	0.1
0.0015	-0.0015	-0.0015	-0.0038	0.4
-0.0008	0	-0.0008	-0.0015	0.2
-0.0023	0.0052	-0.0015	0.0022	0.4
-0.0008	0.003	-0.0015	0.003	0.3
-0.0015	-0.0091	0	-0.0008	0.4
-0.0008	-0.0338	0.0007	-0.0053	0.4
0.0007	-0.0465	0.0015	-0.0015	0.2
0.0007	-0.0278	-0.0008	0.0015	0.4
0	-0.0053	-0.0008	0.0015	0.3
-0.0008	0.0037	-0.0008	0.0015	0.5
0	0.0052	-0.0008	0.0015	0.2
0.0007	0.0052	-0.0015	0.0007	0.5
0	0.0052	-0.0008	-0.0015	0.2
-0.0008	0.006	0.0007	-0.0015	0.4
0.0007	0.0082	0.0007	-0.003	0.4
-0.0008	0.006	-0.0008	-0.003	0.4
-0.0008	0.0052	-0.0008	-0.0038	0.3
-0.0008	0.0037	0	-0.0053	0.4
-0.0008	0.0015	-0.0008	-0.0053	0.4
-0.0008	0.0022	0.0007	-0.0046	0.4
-0.0015	0.0045	0.0007	0	0.4
-0.0015	0.0052	0.0007	0.0007	0.2
0.0007	0.003	-0.0015	0	0.6
0	0.0045	-0.0008	0.0015	0.4
0	0.0045	-0.0008	0.003	0.6
0.0007	0.003	-0.003	0.0022	0.3
0	0.0045	-0.003	0.0037	0.4
-0.0015	0.003	-0.0015	0.003	0.4
-0.0008	0.003	-0.003	0.003	0.5
-0.0015	0.003	-0.0046	0.0045	0.4
-0.0038	0.003	-0.003	0.0007	0.4
-0.003	0.003	-0.0015	-0.0008	0.5
-0.0015	0.0052	-0.0008	0.0007	0.6
-0.0015	0.003	-0.0008	0.0015	0.5
-0.0008	0.0015	-0.0008	0.0007	0.5
-0.0015	0.003	0	0	0.4
-0.003	0.0015	-0.0008	-0.0008	0.4
0.0007	-0.0008	0	0.0015	0.6
0.0007	-0.0023	0	0.0007	0.4
-0.0008	-0.0015	0	0	0.7
-0.0008	0	0.0007	0.0015	0.4
-0.0008	-0.0008	0.0015	0.003	0.6
0	-0.0008	0.003	0.0022	0.5
0.0007	-0.0008	0.003	0.0022	0.7
-0.0015	-0.0015	0.003	0.0007	0.5
-0.0008	0.0007	0.0015	-0.0023	0.4
0	0.0007	0.0007	-0.0015	0.7
-0.0008	0.0007	0.0015	0.0015	0.6
0.0007	-0.0008	0.0007	-0.0008	0.7
-0.0015	-0.0008	0.0007	-0.0008	0.5
-0.0023	-0.0008	0.0007	0.0007	0.7
-0.0015	-0.0008	0	0	0.7
-0.0023	-0.0015	0.0007	0.0007	0.6
0	-0.0008	0	0	0.7
0.0007	-0.0008	0.0007	-0.0008	0.5
0.0015	0	0	-0.0015	0.6
-0.0008	-0.0023	0.0007	-0.0015	0.6
-0.0023	-0.0023	0.0007	-0.0008	0.5
-0.0008	-0.0015	-0.0008	-0.0015	0.7
0.0007	-0.0023	0.0007	-0.003	0.7
0.0007	-0.0023	0.0007	-0.0023	0.6
0.0015	-0.0008	0.0007	0.0007	0.7
0.0007	0.0015	0.003	0.0007	0.7
-0.0008	0	0.0022	-0.0008	0.7
0.0022	-0.0008	0.0022	0.0015	0.6
-0.0008	-0.0008	0.003	-0.0008	0.7
0.0007	-0.0023	0.0007	-0.0023	0.6
0.0022	-0.0015	0.0007	-0.0015	0.7
0.0007	-0.0008	0.003	-0.0008	0.7
0.0015	0.0007	0.0015	-0.0008	0.7
0.0015	-0.0008	0.0022	-0.003	0.7
0.0007	-0.0015	0.0015	0	0.7
0.0007	-0.0008	-0.0015	-0.0023	0.8
0.0007	-0.0008	0	-0.003	0.7
-0.0008	0.0015	0.0007	0.0022	0.8
-0.0008	0.0045	0.0015	0.006	0.7
-0.0008	0.0052	0.0015	0.0067	0.7
-0.0015	0.003	0.0015	0.0022	0.6
0.0007	0.0015	0.0015	0.0015	0.9
0.0015	0.0022	0.0007	0.0007	0.7
0	0.0015	-0.0008	0	0.9
-0.0015	0.0015	0.0007	0	0.7
-0.0046	0.0007	-0.0038	-0.0008	0.8
-0.0015	-0.0008	-0.0015	0.0007	0.9
-0.0023	0.0007	0	0.0007	0.7
-0.0038	0.0007	-0.0023	0.0015	0.9
-0.003	-0.0015	-0.0008	0.0015	0.8
-0.0023	-0.0015	-0.0023	0.0015	0.9
-0.003	-0.0015	-0.0015	0.0007	0.8
-0.0008	-0.0008	-0.0015	-0.0008	0.9
-0.0015	-0.0008	-0.0015	-0.0015	0.9
0	-0.0015	-0.0015	0	0.9
-0.0008	0	-0.0015	0	0.7
0	0	-0.0015	-0.0008	1
-0.0015	0.0015	-0.0008	0	0.8
-0.003	0.003	0	0.0022	0.9
-0.0008	0.0022	-0.003	0.0022	0.9
-0.0008	0.0015	-0.003	-0.0008	0.9
-0.0015	-0.0008	-0.003	-0.003	0.9
-0.0008	0	-0.0038	-0.003	0.9
-0.0015	0	-0.0023	-0.0008	0.9
-0.0015	0.0015	-0.0015	0.0007	0.9
-0.0008	0.003	-0.0008	0.003	0.9
-0.0008	0	-0.0008	0.0052	0.9
-0.0015	-0.0008	0.0007	0.0082	1
-0.0008	0.0037	0.0015	0.0097	1
-0.0015	0.0082	0.003	0.009	1.2
-0.0015	0.0105	0.0015	0.006	0.9
-0.0008	0.0135	0.0015	0.0015	1.2
-0.0008	0.0127	0.0015	-0.0023	0.9
-0.0015	0.0142	0.0022	0	1
-0.0008	0.0142	0.0015	-0.0023	1.2
-0.0015	0.0082	-0.0008	-0.0075	1
-0.0008	0.009	-0.0008	-0.0023	1
-0.0015	0.0075	-0.0008	-0.0008	1
-0.0015	-0.0023	-0.0015	-0.003	1.2
-0.0015	-0.021	-0.0015	-0.003	0.9
-0.0008	-0.0473	-0.0015	-0.003	1.2
0.0015	-0.048	-0.0015	-0.0008	1.1
-0.0015	-0.0218	-0.003	0.0015	1.2
-0.0008	-0.0023	-0.003	0.0037	1.1
0.0007	0.003	-0.0008	0.0015	1.2
-0.0015	0.003	0	0.0015	1.3
-0.0008	0.0045	0.0007	0.0015	1.2
0.0007	0.0052	0.003	-0.0008	1.2
0.0007	0.003	0.0022	-0.0008	1.1
0.0015	0.0022	0.003	-0.0023	1.2
0.0007	0.0022	0.0015	-0.0038	1.2
-0.0008	0.0022	0.0007	-0.0046	1.3
0	0.0015	0.0007	-0.003	1.3
0	0.003	-0.0008	-0.0015	1.3
0.0007	0.0015	0.0022	-0.0015	1.2
0	0.0015	0.0015	-0.0023	1.2
0	0.0022	0.0022	-0.0015	1.2
0.0007	0.0022	0.0015	-0.0023	1.3
0.0022	0.0015	0.0015	-0.003	1.3
0.0015	0.0015	0.0015	0	1.3
0.0015	0.003	0	-0.0015	1.3
0	0	0.0015	-0.0008	1.3
-0.0015	0.0007	0.0007	0.0007	1.3
-0.0008	0.0022	0.0007	-0.0015	1.3
-0.0015	0.0015	0.0007	-0.003	1.5
-0.0015	0.0007	-0.0008	-0.0008	1.3
-0.0015	0	0	0.0007	1.4
-0.0015	0.0007	-0.0008	0.0052	1.3
-0.0015	0.0007	-0.0008	0.0067	1.3
-0.003	0.0007	0.0007	0.0045	1.3
0	0	0.0007	0.0022	1.4
-0.0008	0.0007	-0.0015	-0.0023	1.4
0	0.0015	-0.0015	0	1.4
0.0007	0.0007	-0.0015	0.0082	1.4
-0.0008	0.0015	-0.0008	0.0097	1.5
-0.0008	0.0022	-0.0008	0.0075	1.5
-0.0015	0.0015	-0.0008	0.0045	1.3
0.0015	0.0015	-0.0008	0.0007	1.5
0.0007	0.003	-0.0015	0.0015	1.4
-0.0008	0.0037	-0.0008	-0.0008	1.6
0.0015	0.0045	-0.0008	-0.003	1.3
-0.0015	0.0045	0.0007	-0.0046	1.7
0	0.009	0	-0.003	1.3
0.0007	0.0082	-0.0015	-0.0015	1.6
-0.0008	-0.0083	-0.0008	-0.0046	1.3
0.0007	-0.0143	-0.0015	-0.0053	1.6
0.0007	-0.0068	0.0007	0	1.6
0.0015	-0.0015	0.003	0.003	1.5
0.0015	0.0015	0.003	0.0022	1.6
0.003	-0.0008	0.0022	0.0007	1.5
0.0007	-0.003	0.0007	0.0015	1.7
-0.0015	0	0.0015	0.0045	1.5
0	0	-0.0015	0.0052	1.8
0	0.0007	-0.0008	0.0007	1.5
0	-0.0015	0.0007	-0.0008	1.8
-0.0015	-0.0015	0.0015	-0.0008	1.5
-0.0023	-0.0008	0.0007	0.0015	1.8
-0.0008	0.0007	0.0015	0.003	1.5
-0.0015	0.003	0.0007	0.003	1.8
-0.0008	0.0022	-0.0008	0.0015	1.5
-0.0015	0.0007	-0.003	-0.0008	1.9
-0.0015	0.0007	-0.003	0	1.7
-0.0008	-0.0015	-0.003	0.0007	1.7
-0.0008	-0.003	-0.0015	0.0007	1.8
0.0007	-0.0015	0.0022	-0.0015	1.6
-0.0015	0.0007	0.0022	-0.0015	1.8
-0.0008	0.003	0.003	-0.0008	1.5
0.0015	0.0007	0.0022	-0.0008	2
0	-0.0015	0.003	-0.0008	1.7
0.0015	-0.0015	0.0022	-0.0015	1.9
0	0	0.0022	0.0015	1.8
0.0015	0.0015	0.0045	0.0037	1.8
0.003	0.003	0.0022	0.003	1.8
-0.0023	0.0037	0.0015	0.0037	1.9
-0.0023	0.0022	0.0022	0.0015	1.8
0	0.003	0.0007	0.0007	2
-0.0015	0.003	-0.0008	0.0007	1.8
-0.0023	0.0007	-0.0008	0	1.8
-0.0015	0.0015	-0.0015	-0.0008	1.9
-0.0023	0.0007	-0.0008	-0.0008	1.9
-0.003	0.0015	0	0.0007	2.1
-0.0015	0.0015	0	0.0015	1.7
-0.0008	0.0007	-0.0023	0.0022	2.1
0.0007	0	-0.0015	0.0015	1.9
0.0007	0	-0.0015	0.003	1.9
-0.0015	0.0015	-0.0008	0.0052	1.8
-0.003	0.0015	-0.0008	0.0037	2
-0.003	-0.0008	-0.0015	0.003	1.8
-0.0008	0	-0.0015	0.0022	2.1
-0.0015	0	-0.003	-0.0008	2
-0.0023	-0.003	-0.003	-0.0038	2
-0.0015	-0.003	-0.003	-0.0053	2
-0.003	-0.0023	-0.0038	-0.0038	2.2
-0.0015	-0.003	-0.0015	-0.0053	2.1
0.0015	-0.003	0	-0.0068	2.1
0.0015	-0.003	0.0015	-0.0075	2.1
0.0015	-0.0015	0.0007	-0.0075	2
0.0015	-0.0023	-0.0008	-0.0068	2.2
0.0015	-0.0046	-0.0008	-0.0068	2.1
0.0022	-0.003	-0.0008	-0.0046	2.2
0.0007	-0.0023	-0.0008	-0.0015	2.1
0.003	-0.0008	0.0007	0.0015	2.1
0.0022	0.003	0.0007	0.003	2.2
0.0015	0.0007	0.0015	0.0037	2.1
-0.0008	0.0015	0.0045	0.0037	2.1
-0.0015	0.006	0.0045	0.0052	2.1
0	0.0097	0.0015	0.006	2.1
0.0007	0.0082	0.0015	0.0037	2.1
-0.0015	0.0082	0	0.0037	2.2
-0.0015	0.009	-0.0008	0.0022	2.2
0.0007	0.0075	0.0022	0.0007	2.2
-0.0008	0.0082	0.0022	0	2.2
-0.0015	0.006	0.0007	-0.003	2.3
0.0007	-0.0023	0.003	-0.0053	2.1
0.003	-0.0203	0.003	-0.0023	2.4
-0.0008	-0.0436	0.0015	-0.0015	2.2
0.0007	-0.042	0.0015	-0.0023	2.2
0.0015	-0.0143	0.0007	-0.0015	2.3
-0.0015	0.0022	0.0007	0.0007	2.3
-0.0015	0.0045	-0.0008	-0.0008	2.4
-0.0008	0.006	-0.0008	-0.0015	2.3
-0.0015	0.0067	-0.0023	-0.0008	2.3
-0.0023	0.0082	-0.0023	-0.0008	2.3
-0.003	0.0067	-0.0008	-0.0008	2.4
-0.003	0.0052	-0.0008	0.003	2.4
-0.0023	0.0052	-0.0008	0.0067	2.4
-0.003	0.0052	0.0007	0.0082	2.5
-0.0046	0.0052	0.0007	0.0037	2.4
-0.0038	0.0052	0.0007	0.0007	2.6
-0.003	0.0045	0.0007	-0.0015	2.3
-0.0008	0.003	0.0015	-0.003	2.6
-0.0008	0.003	0	-0.0015	2.4
0	0.0015	-0.0008	-0.0015	2.5
0	0.003	0.0007	-0.0046	2.4
-0.003	0.0015	0.0015	-0.003	2.8
-0.0015	-0.0008	-0.0015	-0.003	2.4
0	-0.0008	-0.003	-0.0015	2.7
0.0007	0	-0.0015	0	2.4
0.0015	0.003	-0.0008	0.0007	2.7
0.0015	0.0045	-0.0015	0.0045	2.4
0.0015	0.003	-0.003	0.0045	2.6
0	0.0022	-0.0046	0.0015	2.6
0	0.0015	-0.0046	0.0007	2.6
-0.0008	0.0015	-0.0015	-0.0015	2.7
-0.0008	0.0015	-0.0023	-0.0008	2.6
-0.0008	0.0007	-0.0023	0.003	2.8
0.0007	0.0007	-0.0008	0.0052	2.6
0.0015	0.0015	-0.0008	0.003	2.9
-0.0015	0.003	-0.0008	0.009	2.7
-0.0015	0.0022	-0.0015	0.0097	2.9
-0.0023	-0.0023	0.0007	0.0045	2.4
-0.0023	-0.0015	0.0007	0.003	2.9
-0.0008	-0.003	0.0007	-0.0023	2.6
0	-0.0023	-0.0008	-0.0083	2.9
-0.0008	-0.0008	-0.0023	-0.0135	2.7
-0.0008	-0.0008	0	-0.0091	3
-0.0023	0.0045	-0.0008	0.0045	2.8
-0.0015	0.0067	-0.0023	0.0052	2.9
0	0.0067	-0.0015	0.0007	3
0.0007	0.0007	-0.0038	0.0007	3
-0.0015	0.0015	-0.003	0.0015	3
-0.003	0.003	-0.003	0.003	2.8
-0.0008	0.0007	-0.003	0.0015	3.1
0.0015	0.0007	-0.0023	0.0007	2.7
0.0015	0.0015	-0.0015	0.0052	3.2
0.0007	0.003	-0.0023	0.0082	2.9
-0.003	0.0007	-0.0038	0.0052	3.2
-0.0023	0.0015	-0.0068	0.0037	2.9
-0.0015	0.0007	-0.0068	0.0007	3.1
0	-0.0008	-0.0053	0.0007	3
-0.0008	0	-0.0038	0.006	3.1
0	0.0007	-0.0015	0.009	3
0	0.0022	-0.0015	0.009	3.2
-0.0008	0.0007	-0.0015	0.0082	3.1
-0.0008	0.0007	0.0015	0.0015	3.1
-0.0015	-0.0015	0.0052	-0.0098	3
-0.0015	-0.003	0.0082	-0.012	3.1
-0.0023	-0.0015	0.0082	-0.0083	3.4
-0.0015	-0.0015	0.0067	-0.0083	3.1
0.0007	-0.003	0.0082	-0.0083	3.3
0.0015	-0.0053	0.0112	-0.0083	3.3
-0.0008	-0.0046	0.012	-0.0083	3.4
0.0007	-0.003	0.009	-0.0046	3.2
0.003	-0.0015	0.0075	-0.003	3.4
0.0007	-0.0015	0.0067	-0.003	3.2
-0.0008	-0.0008	0.0052	-0.003	3.3
-0.0008	-0.0008	0.003	-0.0023	3.2
-0.0008	0.0007	0.0015	-0.0015	3.3
-0.0015	0.0015	0.0007	-0.003	3.2
-0.0015	0	0.0015	-0.0015	3.3
-0.0046	-0.0015	0.0007	0	3.3
-0.0046	-0.0008	0.0007	0.0007	3.3
-0.003	-0.0008	-0.0008	0.0022	3.4
-0.003	0.0007	-0.003	0.006	3.2
-0.0008	0.0045	-0.0015	0.012	3.4
-0.0046	0.0052	-0.0015	0.012	3.3
-0.0038	0.0037	-0.0023	0.0075	3.4
-0.0023	0.0007	-0.0023	0.003	3.2
-0.0023	-0.0015	-0.0038	-0.0015	3.5
-0.0008	-0.0023	-0.003	-0.003	3.4
-0.0008	-0.0015	-0.0015	-0.0046	3.5
-0.0015	-0.0008	-0.0015	-0.006	3.6
-0.0015	0.0022	0	0	3.4
0	0.0022	-0.0008	0.0037	3.7
0.0022	0.0007	-0.0008	-0.003	3.5
0.0007	-0.0008	-0.0015	-0.003	3.6
0.0015	-0.0015	0.0015	-0.003	3.6
0.0037	-0.0023	0.003	-0.0075	3.6
0.0015	-0.003	0	-0.003	3.6
0.0015	-0.0023	-0.0015	-0.0046	3.7
-0.0008	-0.0015	-0.0008	-0.0053	3.6
-0.0008	-0.003	0.003	-0.0053	3.7
0.0015	-0.0023	0.003	-0.003	3.6
0	-0.0015	0.0022	0.0007	3.8
-0.0015	0.0015	0.006	0.0037	3.8
-0.0015	0.0007	0.0067	0.0015	3.7
-0.0008	-0.0015	0.0052	0.0015	3.8
-0.0015	0.0022	0.0045	0.0082	3.8
-0.0008	0.0022	0.003	0.0067	3.9
0	-0.0008	0.0015	0.0037	3.8
-0.0015	-0.0008	0.003	0.0067	3.8
-0.0023	0.003	0.0007	0.0112	4
-0.0015	0.0045	-0.0008	0.009	3.9
-0.0008	0.0007	0.0007	0.0045	4
-0.0008	0.0007	0.0007	0.006	4
-0.0023	0.0007	0.0007	0.0037	3.9
-0.0008	-0.0008	0.0007	0	4.1
-0.0008	0.0007	0.0022	0	4.1
-0.0015	-0.0008	0.003	-0.0015	4
-0.0015	-0.003	-0.0008	-0.0023	4.1
-0.0015	-0.0015	0.0007	-0.0046	4.1
-0.0015	0	0	-0.0046	4.2
-0.0023	0.0015	-0.0023	-0.003	4
-0.0008	-0.0008	-0.0053	-0.0015	4.2
-0.003	0.0015	-0.0053	-0.0008	4.1
-0.003	-0.0008	-0.0053	-0.0023	4.3
-0.003	-0.0015	-0.006	-0.0008	4.1
0.0007	-0.0008	-0.0053	0	4.3
0	-0.0008	-0.006	0.0007	4.3
0.0007	0.0015	-0.0046	0	4.3
0.0015	0.0015	-0.0038	0.0015	4.4
0.0007	0.003	-0.0046	0.0082	4.3
0.003	0.003	-0.003	0.0127	4.4
0.0022	0.0037	-0.0023	0.0112	4.4
0.003	0.0045	0.0007	0.006	4.5
0.0015	0.0037	0.0015	0.0007	4.5
0.0007	0.003	0.0015	-0.0068	4.5
0.0007	0.0007	0.0007	-0.0105	4.4
-0.0015	0.0007	-0.003	-0.0083	4.6
-0.0008	0.0007	-0.003	-0.0015	4.5
-0.0015	0.003	-0.003	0.003	4.6
-0.0015	0.0015	-0.0053	0.0022	4.4
0	0.0015	-0.0068	0.0037	4.6
0	0.006	-0.0053	0.0075	4.7
0.0022	0.0082	-0.0023	0.0067	4.8
0.0022	0.0067	-0.0015	0.003	4.7
0.003	0.0082	-0.0015	-0.0008	4.5
0.0015	0.0082	-0.0015	-0.003	4.8
0	0.0082	-0.0023	-0.0068	4.7
0.0007	0.0067	-0.0023	-0.0068	4.8
0.0015	0.0082	0.0007	-0.0053	4.7
0.0007	0.0015	0.003	-0.0038	4.9
0.0015	-0.0188	0.0015	-0.003	4.8
0	-0.0443	0.0007	-0.0053	5
-0.0008	-0.0473	0.0015	-0.0068	4.8
0.0015	-0.0203	0.0007	-0.0053	4.9
0.003	-0.003	0.0022	-0.0046	4.9
0.0015	0.0007	0.003	-0.0053	5.1
0.0015	0.0045	0.0022	-0.0008	5
0.0015	0.0052	-0.0008	0.0045	5
0	0.0067	-0.0008	0.009	4.9
-0.0015	0.009	-0.0015	0.0082	5
-0.0008	0.0082	-0.0015	0.0052	5.1
-0.0008	0.0082	-0.0008	0.0015	4.9
0	0.0067	0	0.003	5.1
0.0015	0.0075	0.0037	0.0112	4.9
0.0015	0.0112	0.0067	0.012	5.4
0.0015	0.0082	0.0052	0.003	5.1
0.0015	0.0045	0.0052	0.0045	5.3
0.0007	0.0022	0.0052	0.0075	4.9
0.0007	0.003	0.0075	0.0067	5.2
0.0015	0.006	0.009	0.006	5.3
0.0022	0.0045	0.0105	0.003	5.3
0.0022	0	0.0127	-0.0015	5.3
0	-0.0023	0.012	-0.006	5.4
-0.0008	-0.0008	0.012	-0.0091	5.3
-0.0015	-0.0015	0.0135	-0.0068	5.4
-0.0023	-0.0015	0.0127	-0.006	5.5
-0.0023	-0.0008	0.012	-0.0053	5.5
-0.0015	0.003	0.0105	0.0045	5.5
-0.003	0.0022	0.0112	0.0022	5.6
-0.0023	-0.0008	0.0135	-0.003	5.6
-0.0046	-0.0015	0.0127	-0.0008	5.6
-0.0046	-0.0008	0.0112	-0.0038	5.8
-0.0023	0.0007	0.0097	-0.003	5.6
-0.003	-0.0015	0.0105	-0.0046	5.7
-0.0015	-0.0015	0.0105	-0.0015	5.7
-0.0008	-0.0015	0.0082	0.003	5.7
-0.003	-0.0015	0.0082	-0.0008	5.8
-0.003	-0.003	0.009	-0.0023	5.8
-0.0023	-0.0023	0.009	-0.0046	5.9
-0.003	-0.0023	0.0105	-0.0098	5.8
-0.003	-0.0038	0.0075	-0.0165	5.8
-0.0038	-0.0015	0.003	-0.0135	5.9
-0.0046	0.0007	-0.0023	-0.0053	6
-0.0008	-0.0008	-0.0075	-0.0015	5.9
-0.0008	0.0022	-0.0105	0.003	6.1
-0.0015	0.003	-0.0143	0.006	6
-0.0023	-0.0008	-0.0165	0.0052	6.1
-0.0038	-0.0008	-0.0203	0.0052	5.9
-0.003	0.0007	-0.0248	0.006	6.1
-0.0023	0.0022	-0.03	0.0082	6
-0.0023	0.0007	-0.0346	0.012	6
-0.0015	-0.0015	-0.0368	0.0082	6.2
0	0	-0.0368	0.0052	6.1
-0.0008	-0.0038	-0.0361	-0.0038	6.3
-0.003	-0.0068	-0.0353	-0.0158	6.2
-0.003	-0.006	-0.0308	-0.0218	6.3
-0.003	-0.003	-0.0315	-0.0203	6.4
-0.0023	-0.0015	-0.0293	-0.0046	6.3
-0.0015	0.0007	-0.0233	0.0075	6.3
-0.0023	0.0045	-0.0195	0.012	6.4
-0.0015	0.0075	-0.0173	0.0112	6.4
-0.0015	0.0067	-0.0135	0.0045	6.4
-0.0008	0.0045	-0.0143	0.0082	6.4
0	0.003	-0.0158	0.0082	6.4
0	0.0015	-0.0158	0.009	6.6
0.0007	0.0007	-0.015	0.0082	6.6
-0.0008	0	-0.0135	0.0022	6.6
-0.0015	-0.0008	-0.012	0.0045	6.6
-0.0008	0.0015	-0.0113	0.0015	6.7
-0.0015	0.0015	-0.0113	0.0015	6.5
-0.0008	0.0007	-0.0128	0.0015	6.9
-0.0008	0.0007	-0.0128	0	6.8
0	0	-0.0105	-0.0008	6.7
0	-0.0015	-0.0046	-0.0015	6.7
0.0007	-0.0008	0.0007	-0.0008	6.9
0.0007	0.0007	-0.0015	-0.0008	6.9
0.0022	0.0007	-0.0053	0.0015	6.9
0.003	0.0015	-0.0038	0.0022	7
0.0015	0	-0.0053	0.0022	6.7
0.0022	0.0007	-0.0091	0.0022	7.1
0.0015	0.0022	-0.0091	0.003	7
0.0015	0.0007	0.003	0.003	7.2
0.0015	0.0007	0.0195	0.0007	7.1
0.0015	-0.0008	0.0277	-0.0015	7.2
0.003	-0.0008	0.0352	-0.0015	7
0.0022	-0.0023	0.0412	-0.003	7.4
0.0015	-0.003	0.0427	-0.0068	7.2
-0.0023	-0.0015	0.0427	-0.0075	7.2
-0.0015	-0.0023	0.0397	-0.0053	7.3
0	-0.003	0.0397	-0.0046	7.2
-0.0015	-0.0008	0.039	-0.003	7.5
-0.0015	0.0015	0.0382	-0.0023	7.2
-0.0008	0.0007	0.0345	-0.0015	7.6
0	0	0.0352	-0.0015	7.5
-0.0008	0	0.0352	-0.003	7.7
-0.0008	0.0007	0.0292	-0.003	7.5
-0.0008	0.0007	0.027	-0.0015	7.7
-0.003	-0.0008	0.0247	-0.0008	7.5
-0.0015	-0.0008	0.0225	0.0015	7.8
-0.0008	0.0007	0.021	0.003	7.6
-0.003	0.0045	0.0172	0.003	7.8
-0.0023	0.0022	0.0135	0.0007	7.6
-0.0015	0.0015	0.0127	0.0007	8
-0.003	0.0007	0.0135	0.003	7.8
-0.0015	-0.0008	0.012	0.0007	7.8
0.0007	0.0015	0.0097	0.0007	7.9
0.0015	0.0007	0.0082	0.0007	7.8
-0.0008	-0.0015	0.0075	-0.0038	8
0.0007	-0.003	0.0075	-0.0053	7.8
0	-0.0038	0.0067	-0.0008	8.1
0.0015	-0.0038	0.006	0.0007	8
0.0022	-0.003	0.0052	0.0015	8.2
0	-0.0008	0.0067	0.0067	8
0.0015	0.003	0.006	0.0075	8.3
0.0022	0.0037	0.0037	0.0045	7.8
0.0015	0.0022	0.0007	0.0045	8.4
0.0007	0.0015	0	0.0067	8.1
0	-0.0008	-0.0008	0.003	8.4
-0.003	0	-0.0015	0.0007	8.2
0.0007	0.0007	-0.003	-0.003	8.4
0.0015	-0.0008	-0.0068	-0.012	8.3
-0.0008	-0.0008	-0.0083	-0.0128	8.3
-0.0008	0.0007	-0.0068	0.0015	8.5
0	0.0045	-0.0053	0.0067	8.3
0	0.003	-0.0053	0.0015	8.5
-0.0008	0.0015	-0.0083	-0.0008	8.4
-0.0015	-0.0008	-0.0105	-0.0068	8.7
-0.0015	-0.003	-0.0105	-0.0053	8.4
0.0007	-0.0023	-0.0113	0	8.7
0	-0.0008	-0.012	0.0007	8.4
-0.0015	0.0022	-0.012	0.0052	8.7
-0.0008	0.003	-0.0128	0.0067	8.4
0.0007	0.003	-0.012	0.0105	8.7
-0.0015	0.006	-0.0098	0.015	8.7
-0.0008	0.0067	-0.0105	0.0112	8.8
0.0015	0.0037	-0.0091	0.0127	8.7
0	0.0007	-0.0098	0.0157	8.7
-0.0008	-0.0015	-0.0105	0.0082	8.8
0.0007	-0.0015	-0.0128	0.003	8.7
-0.0015	-0.0015	-0.0135	0.0045	9
-0.0023	-0.0046	-0.0128	0.0022	8.7
-0.0008	-0.0015	-0.012	0.0082	8.9
-0.0008	0.0015	-0.0083	0.0067	8.8
-0.0015	0.0007	-0.0113	-0.0008	9
-0.0008	-0.0015	-0.0143	-0.0091	8.9
0.0007	-0.0053	-0.0128	-0.0158	9
-0.0015	-0.0068	-0.0143	-0.0158	9
-0.0015	-0.0053	-0.0135	-0.0105	9.1
0.0022	-0.0015	-0.0128	-0.0046	9.1
0.003	-0.0023	-0.012	-0.0015	9
0.0007	0.003	-0.0128	0.0097	9
-0.0015	0.012	-0.0143	0.0165	9.2
0	0.0075	-0.0113	0.0015	9.2
0.0015	0.003	-0.012	-0.0023	9.4
-0.0015	0.0015	-0.0098	-0.0015	9.2
-0.003	0.0007	-0.0075	-0.0015	9.3
-0.0008	0.0015	-0.0083	-0.0008	9.3
0	0.0007	-0.0068	-0.0023	9.5
-0.0015	0.0007	-0.0053	0.0007	9.5
-0.0008	0.0007	-0.0046	0.0007	9.6
0	-0.0008	-0.0038	-0.0015	9.5
0	-0.0015	-0.0046	-0.0015	9.7
-0.0008	-0.0015	-0.003	-0.0015	9.4
0.0007	0	-0.0008	-0.0015	9.6
0	-0.0015	0	0	9.6
-0.0023	-0.0015	0	0.0007	9.9
-0.003	-0.0008	0.0007	-0.0008	9.7
-0.0008	-0.0008	0.0007	0	9.8
0.003	-0.0015	0.003	0.0007	9.8
0.0007	-0.0015	0.003	-0.0008	9.8
0	0.0007	0.0052	-0.0015	9.9
-0.0008	0	0.0022	-0.0023	9.8
-0.0023	-0.0008	0.0022	-0.0015	9.9
-0.0015	0.0015	0.0022	-0.0008	9.9
-0.0008	0.0007	0.0007	-0.0015	10
-0.0008	-0.0008	0.0015	0	9.9
-0.0023	0	0.0007	-0.0008	10
-0.0008	0.0007	0.003	-0.003	9.9
-0.0008	0	0.003	-0.0008	10.1
-0.0015	0.0015	0.0045	0.0007	10
-0.0008	0	0.0067	-0.0008	10.2
-0.0023	-0.0008	0.006	-0.0015	10.1
-0.0023	0	0.0045	-0.0046	10.2
-0.0053	-0.0015	0.0052	-0.0083	10.1
-0.0046	-0.0023	0.0067	-0.0091	10.2
-0.0046	0	0.0045	-0.0083	10.3
-0.0046	0	0.0037	-0.0015	10.2
-0.0008	-0.0015	0.0015	0.0045	10.4
0	-0.0008	0.0007	0.009	10.3
-0.0015	-0.0008	0	0.006	10.4
-0.0008	-0.0023	-0.0046	0.0045	10.3
0.0007	-0.0015	-0.0046	0.0015	10.5
-0.0015	-0.0015	-0.0046	-0.0046	10.3
0	-0.0008	-0.003	-0.0105	10.6
-0.0008	0.0022	-0.0015	-0.0158	10.4
-0.0023	0.003	-0.0023	-0.0053	10.6
-0.0015	0.0022	0	0.003	10.4
-0.0038	0.0007	-0.0015	-0.0015	10.6
-0.003	0.0007	-0.0015	-0.0015	10.5
-0.0015	0.0015	-0.003	-0.0105	10.6
-0.0015	-0.0023	-0.003	-0.0113	10.5
0.0007	-0.003	-0.0023	-0.006	10.6
0.0015	-0.003	-0.0023	-0.0113	10.9
0.0015	-0.0046	-0.0008	-0.0075	10.6
0	0.0007	0	0.0052	10.9
-0.0015	0.0067	0.0007	0.0127	10.7
0	0.0052	0.0022	0.0067	10.9
0.0007	0.0037	0.0015	0.0075	10.7
-0.0008	0.003	-0.0015	0.0127	11
0.0007	0.0007	0	0.0105	10.7
0	0.0022	0.0015	0.009	11
-0.0015	0.0037	0.0045	0.0022	10.8
-0.0008	0.0015	0.0045	0.0067	11.1
-0.0008	0.003	0.0022	0.015	10.8
-0.0008	0.0037	0.0007	0.0165	11
-0.0015	0.003	0	0.0142	11
-0.003	0.003	0.0007	0.0165	11.1
-0.0023	0.0022	0.0007	0.0127	11
-0.0015	0	0.0007	-0.006	10.9
-0.003	-0.003	-0.0023	-0.0165	11.2
-0.003	-0.003	-0.0015	-0.0046	11.1
-0.0008	0	0	-0.0068	11.2
-0.0023	-0.0015	0.0007	-0.0248	11.1
-0.0038	-0.0023	-0.0015	-0.0128	11.3
-0.0015	-0.0046	-0.003	-0.0046	11.2
-0.0023	-0.0083	-0.0008	-0.015	11.4
-0.0038	-0.0053	0.0015	-0.0023	11.2
-0.0008	0	0.0037	0.003	11.4
-0.0008	0.006	0.0052	-0.003	11.2
-0.0008	0.009	0.0067	-0.0038	11.3
0.0007	0.012	0.003	0.0015	11.2
0.0015	0.0112	0.0045	0.0045	11.3
0.0015	0.0067	0.0037	0.0202	11.4
0.0015	0.0082	0.0045	0.0465	11.5
0.0052	0.0052	0.0075	0.0495	11.4
0.0052	0.0015	0.0052	0.0427	11.4
0.0015	-0.0015	0.0045	0.0255	11.6
0.003	-0.0068	0.0052	-0.0008	11.6
0.0015	-0.0105	0.0082	-0.0398	11.7
0.0015	-0.0083	0.0067	-0.063	11.5
0.0007	-0.003	0.0067	-0.0405	11.6
0.0015	-0.0015	0.0052	-0.0315	11.7
0.0007	-0.0015	0.0052	-0.0315	11.7
0.0007	0.0037	0.0045	-0.0143	11.7
-0.0015	0.0045	0.0037	-0.0046	11.7
-0.0038	0.0045	0.0045	0.0007	11.8
-0.0023	0.0007	0.0037	0.0052	11.7
-0.0015	0.0015	0.003	0.0075	11.8
-0.0015	0.003	0.0015	0.009	11.7
-0.0015	0.0007	-0.0015	0.0127	11.8
-0.0008	0	-0.0023	0.0067	11.8
-0.0015	-0.003	-0.0038	-0.003	11.9
-0.0023	-0.0046	-0.003	-0.0008	11.9
-0.003	-0.0015	-0.0023	0.0052	12
-0.0046	0.0007	-0.0015	0.0052	12.1
-0.0023	-0.0008	-0.0053	0.003	11.9
-0.0023	-0.0008	-0.0046	0.003	12.1
-0.0015	0.0015	-0.003	0.0045	11.9
-0.0008	0.0007	-0.0046	0.006	12.2
0.0007	0.0007	-0.0015	0.006	12.1
0.0015	-0.0008	-0.0023	0.0075	12.1
0.0015	-0.0008	-0.003	0.0067	12.1
0.0007	-0.0023	-0.003	0.0045	12.2
0.0007	-0.0015	-0.0015	0.0022	12.4
-0.0008	-0.0015	-0.0008	0.0037	12.1
-0.0008	-0.0023	-0.0015	0.0037	12.3
-0.0008	-0.0015	0.0015	0.003	12.3
-0.0008	-0.0008	0.0037	0.003	12.4
-0.0008	0.0007	0.0052	0.0015	12.4
-0.003	-0.0008	0.0045	0.0015	12.5
-0.0023	-0.003	0.0045	0.0007	12.4
-0.0008	-0.0046	0.0045	0.0007	12.6
-0.0008	-0.003	0.0067	-0.0015	12.4
0.0007	-0.003	0.0082	-0.003	12.6
-0.0008	-0.0015	0.0097	0.0075	12.5
-0.0008	0.003	0.0105	0.0165	12.6
0	0.0045	0.009	0.0112	12.6
-0.0015	0.0037	0.009	0.0052	12.7
0.0007	0.006	0.0082	0.0045	12.5
0.0007	0.0045	0.0052	-0.0053	12.7
-0.0008	0.0022	0.0022	-0.0128	12.8
-0.0023	0.0022	0.0015	-0.0083	12.8
-0.003	-0.0015	0.0007	0.0097	13
-0.003	-0.0008	-0.0008	0.0225	12.9
-0.0038	-0.0023	-0.0023	0.0255	13
-0.0038	-0.0068	-0.003	0.0315	12.9
-0.0023	-0.0038	-0.0008	0.0097	13.1
0.0007	0.0007	0.0015	-0.0128	13
-0.0008	0.0052	0.003	-0.0128	13.3
-0.003	0.0067	0.0015	-0.0113	13.1
-0.003	0.0052	0.0007	0.0015	13.3
-0.003	0.0037	0.0015	-0.0046	13.2
-0.003	0.003	-0.0008	-0.0098	13.3
-0.003	0.0015	-0.003	-0.0135	13.4
-0.0015	-0.0038	-0.0015	-0.027	13.4
-0.0015	-0.0053	-0.0008	-0.0263	13.5
-0.0008	-0.003	-0.0008	-0.024	13.3
0.0007	-0.0008	0	-0.0173	13.5
-0.0015	0.0007	-0.0008	-0.0083	13.5
-0.003	-0.0008	-0.0015	-0.0015	13.6
-0.0015	-0.0008	-0.0015	0.0127	13.5
-0.003	0.0015	0.0007	0.033	13.7
-0.003	0.0015	0.0015	0.036	13.8
-0.0008	0.0022	0	0.0052	13.7
0	0.0007	-0.0015	-0.0158	13.9
-0.0023	0.0007	-0.0068	-0.0263	13.8
-0.0015	-0.0015	-0.0098	-0.0398	13.9
-0.0015	-0.0008	-0.0091	-0.0256	13.7
-0.0015	0.0082	-0.0128	0.0015	13.9
0.0015	0.0052	-0.0173	0.0022	13.9
0.0015	0.0007	-0.0165	-0.0008	14
0.0022	0.0015	-0.0158	0.003	14.2
0.003	-0.0015	-0.0143	0.0022	14.2
0.0045	-0.0008	-0.0098	0.048	14.1
0.0007	0.0007	-0.0053	0.1777	14.3
0	0	-0.003	0.2332	14.4
0.0007	-0.0008	-0.0008	0.1335	14.4
-0.0015	-0.0023	0.0015	0.093	14.4
0.003	0.0007	0.0052	0.0615	14.3
0	-0.0008	0.0075	0.0097	14.6
-0.0015	-0.0015	0.009	0.0052	14.4
-0.0008	0	0.012	-0.027	14.7
-0.0023	0.0007	0.015	-0.024	14.6
-0.0008	-0.0008	0.0157	-0.0308	14.8
-0.0023	-0.0008	0.0165	-0.0361	14.6
-0.003	-0.0015	0.0142	-0.0428	14.8
-0.0053	-0.003	0.0082	-0.063	14.7
-0.003	-0.0046	0.0052	-0.06	14.8
0	-0.003	0.0037	-0.0706	14.8
-0.0015	-0.0023	0.0007	-0.0668	14.9
-0.0023	-0.003	-0.0015	-0.0615	15
-0.0008	-0.003	-0.0015	-0.0548	14.8
0.0015	-0.003	-0.003	-0.0668	15.2
0.0022	-0.0046	-0.0075	-0.0653	15
0.0007	-0.0008	-0.0083	-0.0338	15.2
-0.0008	0.0045	-0.0068	-0.0046	14.8
0	0.0052	-0.0068	0.0345	15.3
-0.0008	0.009	-0.0046	0.0307	15
0.0007	0.0067	-0.0038	-0.0015	15.4
0.0007	0	-0.0046	-0.0368	15.1
0.0015	-0.0046	-0.0053	-0.084	15.3
0.0007	-0.0083	-0.0053	-0.0885	15.3
0.0007	-0.0046	-0.0083	-0.0233	15.5
0.0015	-0.0008	-0.0075	0.0082	15.4
0.0015	-0.0053	-0.0068	-0.0046	15.4
0.0015	-0.0105	-0.006	-0.006	15.6
0.003	-0.0091	-0.006	-0.0285	15.4
0.003	-0.0091	-0.0068	-0.024	15.7
0.0015	-0.0083	-0.0075	0.0007	15.3
0.0015	0.0052	-0.0046	-0.003	15.7
0.0015	0.0165	0	-0.0068	15.7
0.0007	0.0172	-0.0008	0.0105	15.8
-0.0008	0.0232	0.0037	0.009	15.7
0.0007	0.0157	0.0067	-0.0046	15.8
0	0.006	0.003	0.0127	15.8
0.0007	0.0052	0.0007	0.0142	15.9
0	0.0022	-0.0015	-0.0105	15.9
-0.0015	-0.0038	-0.003	-0.0533	15.9
-0.0023	-0.0075	-0.0075	-0.0585	16
-0.003	0.0067	-0.0098	-0.0105	16.1
-0.0038	0.0195	-0.0008	0.009	16.1
-0.003	0.0165	0.0082	0.024	16.2
-0.003	0.0142	0.0105	0.042	16.3
-0.003	0.0082	0.0067	0.0367	16.2
-0.0023	0.0052	0	0.027	16.4
-0.0046	0.003	-0.0023	0.0105	16.2
-0.003	-0.0008	-0.0023	0.003	16.5
-0.0008	-0.0015	-0.0046	0.0277	16.4
-0.003	-0.0046	-0.0038	0.0705	16.6
-0.003	-0.0053	-0.003	0.0742	16.6
-0.0015	-0.0068	-0.0046	0.0457	16.6
-0.0008	-0.0113	-0.006	0.0345	16.6
-0.0038	-0.0158	-0.0053	0.045	16.7
-0.003	-0.0105	-0.0008	0.0652	16.7
-0.0008	-0.0008	0.006	0.0495	17
0.0007	0.0015	0.0075	0.027	16.9
0.0022	0	0.0082	0.0127	16.9
0.0022	-0.0008	0.0112	-0.0113	17
0.0015	-0.0008	0.0142	-0.0128	17
0	0.0015	0.012	-0.015	17.3
0.0007	-0.0046	0.0097	-0.012	17
0.0007	-0.0158	0.0105	-0.0218	17.3
0.0015	-0.0203	0.0112	-0.042	17.3
0	-0.0181	0.0105	-0.0578	17.3
-0.0015	-0.0046	0.0097	-0.0638	17.3
-0.003	0.0075	0.0075	-0.0368	17.5
-0.0038	0.0105	0.0067	-0.006	17.5
-0.0015	0.0127	0.0075	0.009	17.6
-0.0008	0.0105	0.0067	0.0067	17.6
0	0.0022	0.0045	-0.0053	17.7
-0.0015	-0.0008	0.0037	-0.0128	17.9
-0.0015	-0.0008	0.0007	-0.03	17.9
-0.0023	-0.0008	0.0007	-0.027	18
-0.003	0.0037	0.0015	-0.012	18.1
0	0.0037	0	-0.0143	18
-0.0008	0.0045	-0.0008	-0.0128	17.9
-0.0015	0.0015	-0.0015	-0.0083	18.3
-0.0023	-0.0015	-0.003	-0.0091	18.3
-0.0023	0.0007	-0.0046	-0.0046	18.4
-0.0015	0.0007	-0.003	0.0045	18.3
-0.003	0.0015	-0.0038	0.0142	18.6
-0.003	-0.0015	-0.0038	0.0187	18.7
-0.003	-0.0046	-0.0038	0.0127	18.6
-0.0015	-0.0075	-0.0083	-0.003	18.7
-0.003	-0.0098	-0.0083	-0.0143	18.7
-0.003	-0.006	-0.0075	-0.0053	18.7
-0.0023	0.0022	-0.0083	0.0015	18.8
-0.0015	0.006	-0.006	-0.0008	18.9
-0.0023	0.0037	-0.0068	0.0022	19
-0.0008	0.0022	-0.0083	0.0105	19
0.0007	0.0045	-0.0091	0.0112	19.1
0	0.0037	-0.0075	0.0067	19.2
-0.0008	0.0037	-0.0083	0.0112	19.2
-0.003	0.003	-0.0068	0.0112	19.3
-0.0015	-0.0008	-0.0053	0.0097	19.4
-0.0008	-0.0023	-0.0015	0.0165	19.5
-0.0015	-0.0008	-0.0008	0.0187	19.6
-0.0038	0.0015	-0.0008	0.0135	19.6
-0.003	0.0007	0.0015	0.0067	19.8
-0.0015	-0.0008	0.003	0.0022	19.7
-0.0038	0.003	0.0015	0.0015	20
-0.0015	0.0022	0.0007	0.0045	19.8
-0.0015	0.0015	0.0015	0.009	20
-0.0008	0.0015	0.0045	0.009	20
0.0007	-0.0015	0.0015	0.0067	20.2
-0.0008	-0.0046	0.0015	0.0052	20.2
0.0007	-0.0046	0.0045	-0.0015	20.5
-0.0023	-0.0068	0.0022	-0.0053	20.5
-0.003	-0.0113	0.0037	-0.0113	20.4
-0.003	-0.015	0.0045	-0.0338	20.6
-0.003	-0.0158	0.0052	-0.0346	20.7
-0.0008	-0.006	0.0082	-0.0263	20.7
0.0007	0.006	0.0075	-0.0225	20.8
0.0015	0.0127	0.0075	-0.003	21
0.0015	0.0195	0.0067	0.0195	20.8
-0.0015	0.0195	0.0037	0.0525	21.1
-0.003	0.0105	0.0045	0.0825	21.1
-0.0008	0.003	0.0082	0.0817	21.4
0.0007	-0.0053	0.0067	0.0547	21.2
0	-0.0128	0.003	-0.0091	21.3
-0.0008	-0.0188	-0.0023	-0.1125	21.4
-0.0008	-0.0068	-0.003	-0.1575	21.5
0.0007	0.018	0	-0.078	21.7
0.0015	0.0277	0.0045	0.0015	21.5
0.003	0.0255	0.012	0.0045	21.9
0.0037	0.0157	0.012	0.0037	21.9
0.0007	0.009	0.0067	0.003	21.9
0.0007	0.003	0.0067	-0.0038	22
0	-0.0015	0.009	0.0015	22.1
-0.0008	-0.0068	0.009	-0.0015	22.1
-0.0015	-0.0091	0.0045	-0.0053	22.4
-0.0038	-0.0113	0.0015	-0.0143	22.3
-0.003	-0.0165	-0.0015	-0.024	22.7
-0.0015	-0.0173	-0.0068	-0.0256	22.4
0.0007	-0.0143	-0.0091	-0.0068	22.7
0.003	0	-0.0075	0.0232	22.7
0.0045	0.0105	-0.006	0.024	22.8
0.0022	0.009	-0.0083	0.024	22.8
0.0007	0.0097	-0.012	0.0247	22.9
0.0007	0.0082	-0.0113	0.0135	23.3
0.0007	0.0045	-0.0105	0.009	23.1
0.0015	0.003	-0.012	0.012	23.4
0.003	-0.0008	-0.0105	0.0255	23.3
0.0007	-0.0046	-0.0105	0.0472	23.6
0.0007	-0.0038	-0.0083	0.0487	23.4
0.003	-0.0008	-0.0105	0.0172	23.7
0	-0.0015	-0.0098	-0.027	23.6
0	-0.0075	-0.0091	-0.033	23.8
0.0007	-0.0053	-0.0083	0.0157	23.8
0.0015	-0.0075	-0.003	0.0427	24.3
0.0022	-0.0135	-0.0008	0.0315	24
0.0007	-0.0098	0.0045	-0.0098	24.2
-0.0008	0	0.0045	-0.0405	24.3
-0.0038	0.0052	0.003	-0.0315	24.3
-0.003	0.0052	0.0007	-0.027	24.5
-0.0015	0.0067	0.0007	-0.0128	24.4
0.0007	0.0022	-0.0008	0.03	24.7
0	0.0007	-0.0046	0.069	24.5
-0.0008	0.0067	-0.0038	0.1065	24.9
-0.0015	0.0105	-0.0038	0.0817	24.7
-0.0038	0.0037	0	-0.0158	25
-0.0015	-0.003	0.0067	-0.0968	25
-0.0008	-0.0091	0.0052	-0.1118	25.2
-0.003	-0.006	0.0015	-0.0465	25.1
-0.0038	-0.0008	-0.0008	-0.0203	25.3
-0.0046	-0.0053	-0.003	-0.0165	25.4
-0.0038	0.0045	-0.0046	0.018	25.6
-0.003	0.0045	-0.0053	0.0232	25.6
-0.0015	0.0015	-0.0015	0.0375	25.7
-0.0008	0.0067	0.0007	0.0465	25.8
-0.0008	0.0007	0.0022	0.018	25.8
-0.0015	-0.0083	0.0045	-0.0158	26.1
-0.0023	-0.0083	0.0045	-0.0346	25.9
-0.0015	-0.0008	0.0045	-0.06	26.3
-0.003	0.0052	0.0067	-0.0458	26.1
0	0.015	0.009	0.0015	26.5
0.003	0.0157	0.009	-0.0053	26.3
-0.0015	0.0067	0.0052	-0.0195	26.6
-0.0015	0.006	0.0015	-0.0038	26.6
0.0022	0.009	0.0007	0.009	26.9
0.0022	0.0067	-0.0015	0.0045	26.8
0.0022	-0.003	-0.0015	0.003	26.9
0.0015	-0.006	-0.0015	0.0097	27
0.0007	-0.0046	-0.0023	0.0195	27.1
-0.0008	-0.0083	-0.003	0.0292	27.3
0	-0.015	-0.006	0.0165	27.4
-0.0008	-0.0188	-0.0068	-0.0105	27.3
-0.0038	-0.0143	-0.0023	-0.0113	27.6
-0.0008	-0.0075	-0.0008	-0.0091	27.7
-0.0015	-0.0046	-0.003	-0.033	27.8
-0.0053	0	0.0015	-0.0195	27.9
-0.0038	0.006	0.0112	0.0037	27.8
0.0007	0.0045	0.009	0.0172	27.9
0.0015	0.003	0.0052	0.0465	28.1
0.0037	0.0052	0.0067	0.0705	28.2
0.003	0.0127	0.0052	0.0862	28.3
-0.0023	0.024	0.0045	0.075	28.3
-0.0023	0.0165	0.006	0.0292	28.4
-0.0023	-0.0008	0.0052	-0.0503	28.5
-0.0023	-0.0113	0.0015	-0.0691	28.6
-0.0046	-0.0046	0.0015	-0.0128	28.7
-0.003	0.0112	0.0015	-0.0173	28.8
-0.0015	-0.0015	-0.0015	-0.0691	29
-0.0046	-0.0046	-0.0008	-0.0668	29
-0.0015	0.0067	0.0015	-0.0165	29.1
0	-0.0008	-0.0008	-0.0075	29.1
-0.0023	-0.0091	-0.0091	-0.0098	29.1
-0.0038	-0.0075	-0.0135	0.003	29.3
-0.003	0.0007	-0.012	0.0067	29.5
-0.003	0.0127	-0.0053	0.0367	29.6
-0.003	0.0097	-0.0015	0.0255	29.8
0.0015	-0.0053	-0.0023	-0.0046	29.6
0.0022	-0.0098	0.0015	0.0067	29.9
0.003	-0.0105	0.003	0.0007	29.9
0.0015	-0.0053	0.0052	-0.0015	30.1
0.0022	0.018	0.0067	0.0262	30.1
0.0007	0.027	0.0015	0.0412	30.2
-0.0046	0.0067	0.0007	0.0052	30.3
-0.003	-0.0075	-0.0008	-0.0308	30.4
-0.003	-0.0083	-0.0068	-0.0361	30.6
-0.0038	-0.006	-0.0053	0.0105	30.7
-0.0023	-0.0008	-0.006	0.048	30.8
-0.0015	0.0045	-0.0053	0.0495	30.8
-0.0015	0.0075	-0.0046	0.051	31
-0.0008	0.0015	-0.0053	-0.0046	31.1
-0.0015	-0.0053	-0.0023	-0.0675	31.2
-0.0015	-0.0083	0.0007	-0.054	31.2
-0.0015	-0.0023	0.0015	0.0135	31.4
0.0007	0.0007	-0.0008	0.0352	31.5
0.0007	0.0052	-0.0023	0.0427	31.6
0	0.0022	-0.003	0.039	31.6
0.0007	-0.0105	-0.0008	-0.0128	31.6
0.0007	-0.015	0.0045	-0.0593	31.9
0.0007	-0.0165	0.0045	-0.0998	32
-0.0015	-0.0038	0.0007	-0.06	32.2
-0.003	0.003	-0.0008	-0.0038	32.2
-0.0008	-0.0046	0.0045	0.0225	32.4
0.0022	-0.0038	0.0097	0.0397	32.4
0.003	-0.0143	0.003	0.0277	32.6
-0.0023	-0.0158	0	0.0742	32.6
-0.0023	-0.0075	-0.003	0.15	32.9
-0.003	-0.0105	-0.0038	0.1822	32.9
-0.0038	-0.0203	0.0015	0.108	33
-0.0023	-0.0278	0.0007	-0.1013	32.9
-0.0015	-0.024	0.003	-0.2378	33.1
0.0015	-0.0046	0.0052	-0.1875	33.4
0.0007	0.0172	0.0067	-0.111	33.4
-0.003	0.0157	0.009	-0.0608	33.5
-0.0008	0.0225	0.012	-0.0533	33.6
0.0015	0.0315	0.0097	-0.057	33.8
0.0007	0.0217	0.0052	-0.0008	33.8
0.0007	0.0112	0.006	0.0495	34
-0.0008	0.006	0.006	0.1057	34.1
-0.0008	0.0082	0.0067	0.141	34.1
0	0.012	0.0052	0.1237	34.4
0.0015	0.0045	0.0022	-0.0023	34.4
-0.0008	0.0022	-0.0015	-0.156	34.6
-0.0015	0.027	-0.0023	-0.0863	34.6
0	0.033	0.0015	0.0202	34.7
0	0.024	-0.0015	0.0247	34.7
-0.003	0.027	-0.0091	0.0472	35
-0.0075	0.0157	-0.0075	0.0112	34.9
-0.0098	0.003	-0.0068	-0.0428	35.2
-0.0083	-0.0023	-0.0091	-0.0518	35.2
-0.0068	-0.0008	-0.0135	0.009	35.3
-0.0046	0.0037	-0.0135	0.0622	35.5
-0.0023	-0.0053	-0.0091	0.0517	35.5
-0.0008	-0.0091	-0.0068	0.0532	35.6
0.0015	-0.0038	-0.006	-0.0135	35.8
0.0015	0.0045	-0.0023	-0.039	36
0.0015	0.0082	0.0037	-0.0353	36
0.0007	-0.0023	0.0067	-0.0495	36.2
0.0022	-0.0083	0.0052	-0.0233	36.2
0.003	-0.0158	0.0052	-0.033	36.5
0.0045	-0.0181	0.006	-0.0083	36.4
0.0045	-0.0128	0.0037	0.027	36.8
0.0015	-0.0068	0.006	0.0577	36.8
0.0015	0.003	0.0037	0.081	37.2
0.0015	-0.0098	-0.0015	0.0405	36.8
0.0022	-0.0225	-0.003	-0.0143	37
0.0007	-0.024	-0.0083	-0.0368	37.2
0.0007	-0.0181	-0.0128	0.006	37.3
-0.0008	-0.0023	-0.0143	0.018	37.6
-0.0008	-0.0008	-0.0143	-0.0353	37.4
0.0015	-0.0068	-0.012	-0.0428	37.8
-0.003	-0.0015	-0.0091	-0.0046	37.6
-0.0015	0.0067	-0.0068	0.0015	38.1
-0.0008	0.0082	-0.0046	0.0015	37.9
0	0.003	-0.0008	0.003	38.3
-0.0023	-0.0046	0.0045	-0.0091	38.2
-0.003	-0.0075	0.0045	0.0052	38.4
-0.0008	-0.003	0.0022	0.0187	38.4
-0.003	0.0015	0.0037	0.0367	38.6
-0.0023	0.0045	0.003	0.048	38.7
-0.0038	0.003	0.0022	0.018	39
-0.0038	-0.0068	-0.003	-0.012	38.9
-0.0015	-0.0143	-0.003	0.0172	39
-0.0015	-0.0165	0.0015	0.0457	39.1
-0.0008	-0.0091	0.003	0.003	39.2
-0.0015	-0.0023	0.003	-0.0225	39.5
-0.0046	-0.0023	0.0037	-0.003	39.4
-0.0046	0.0157	0.0082	0.0217	39.6
-0.0015	0.018	0.0075	0.0202	39.5
-0.0015	-0.003	0.003	-0.0383	39.9
-0.0015	-0.0091	0	-0.0878	39.9
-0.0015	0.0105	0.0015	-0.048	39.9
-0.0015	0.0232	0.0082	0.0097	40.2
0.0015	0.0202	0.006	0.0045	40.2
0.0007	0.018	0.0022	0.0007	40.3
0.0007	-0.0038	0.0045	-0.0023	40.5
0.003	-0.0188	0.0037	0.0007	40.4
0.003	-0.033	0.003	-0.003	40.5
0.0007	-0.0375	0.003	-0.0256	40.8
-0.003	-0.0338	0.003	-0.0068	40.8
-0.0038	-0.0323	0.009	0.0142	40.8
0	-0.0248	0.018	-0.0083	41
-0.0008	-0.0053	0.0195	-0.0428	41.1
-0.0015	0.0412	0.0225	-0.0278	41.1
0.0007	0.0585	0.027	0.0247	41.4
0.003	0.0472	0.0247	0.0127	41.5
0.0022	0.0367	0.0172	0.003	41.4
0.003	0.0315	0.0127	0.03	41.6
0.003	0.018	0.0082	0.0195	41.6
0.003	0.0315	0.0015	0.0682	41.9
0.0007	0.0637	-0.0038	0.1552	41.9
0.0007	0.0555	-0.0098	0.192	42.1
0.0015	0.0135	-0.0143	0.123	41.9
0	-0.0375	-0.0203	-0.0968	42.2
-0.0015	-0.0645	-0.0188	-0.2595	42.2
-0.0046	-0.0495	-0.015	-0.1913	42.3
-0.0015	-0.015	-0.0046	-0.0443	42.7
0.0007	-0.0046	0.0067	-0.0188	42.7
-0.0015	-0.0083	-0.0008	-0.0023	42.8
-0.0046	0	-0.0083	0.045	42.8
-0.0046	0.0127	-0.0091	0.0915	43
-0.003	0.0195	-0.0075	0.1447	43
-0.0015	0.0007	-0.0015	0.072	43.2
-0.0008	-0.033	0.003	-0.0825	43.2
-0.003	-0.0405	-0.0008	-0.183	43.4
-0.0053	-0.0105	-0.0046	-0.1313	43.5
-0.0008	0.0015	-0.0046	-0.0361	43.7
0.003	-0.012	-0.0008	-0.0083	43.6
0.0045	-0.0383	0.0022	0.0127	43.9
0.0052	-0.0458	0.0007	0.0015	43.8
0.0015	0.0067	0.0015	0.0315	44.1
0.0022	0.0525	0.0112	0.0345	44.1
0.0045	0.057	0.0097	0.0007	44.1
0.0022	0.0427	0.0045	0.0495	44.5
0.0022	0.0232	0.003	0.0915	44.4
0.0007	-0.003	-0.003	0.1252	44.7
-0.0008	-0.042	-0.0053	0.0517	44.5
0.0007	-0.0495	-0.0053	-0.1013	44.8
0.0007	-0.0158	-0.0105	-0.12	44.8
-0.0015	0.012	-0.0113	-0.0353	45
-0.003	0.009	-0.0068	0.0577	45
-0.0015	-0.0083	-0.0053	0.0345	45.3
-0.0015	-0.0038	-0.0083	-0.042	45
-0.0023	0.0262	-0.012	-0.075	45.4
-0.0046	0.0255	-0.0083	-0.0458	45.3
-0.0046	0.0187	-0.0046	-0.0181	45.6
-0.003	0.0195	-0.0038	-0.0323	45.6
-0.0038	0.0007	-0.003	0.0307	45.8
-0.0038	-0.012	-0.0023	0.054	46
-0.0015	-0.027	-0.0023	0.0427	45.9
0.0007	-0.027	-0.0008	0.03	46.2
-0.0015	-0.0165	-0.0015	-0.0225	45.9
-0.003	-0.0248	-0.0068	-0.0555	46.3
0.0007	0.0075	-0.0053	-0.0278	46.1
0.0007	0.0337	-0.0053	-0.0068	46.5
-0.0008	0.0037	-0.006	-0.0458	46.4
0.0015	0.003	-0.003	-0.0173	46.8
0.0007	0.0165	-0.0015	-0.0046	46.6
-0.0023	0.0255	0.0007	0.0165	46.8
-0.0015	0.027	0.0015	0.0495	46.9
-0.0008	0.0022	0.0007	0.0352	47.2
-0.003	-0.0075	0	0.0562	47.1
-0.0046	-0.0135	0	0.0607	47.3
-0.0015	-0.0218	-0.0008	0.0577	47.3
-0.0008	-0.0308	-0.003	0.0307	47.3
-0.0023	-0.033	-0.003	-0.0143	47.6
-0.003	-0.0008	0.0045	-0.0308	47.6
0	0.0277	0.0105	-0.0353	47.9
0.0007	0.0157	0.015	-0.03	47.7
0.0007	0.0165	0.0165	-0.012	48.1
0.0007	0.0067	0.0142	-0.012	48.1
0.0007	-0.0098	0.0105	-0.0158	48.2
-0.0008	0.0007	0.0097	-0.0046	48.3
-0.003	-0.0038	0.0082	-0.0083	48.5
-0.0015	0.003	0.0052	0.0067	48.6
0.0007	0.0082	0.0075	0.0345	48.5
0	0.003	0.0082	0.0367	48.7
0.0007	-0.0105	0.0052	0.0157	48.8
0	-0.0195	0.0015	-0.0128	48.9
-0.0023	-0.0046	0.0022	-0.0256	48.9
-0.003	0.0052	0.0007	-0.0195	49.2
-0.003	0.0165	-0.003	0.0255	49.1
-0.0038	0.042	-0.0023	0.0615	49.4
-0.0046	0.0435	-0.003	0.0412	49.4
-0.0015	-0.0023	-0.0008	0.009	49.6
-0.0008	-0.0436	0.0007	0.015	49.6
-0.0015	-0.054	-0.0038	0.0247	49.6
-0.0008	-0.0488	-0.0083	0.0045	49.7
-0.0015	-0.0263	-0.0113	0.0667	49.9
0.0007	-0.0203	-0.0128	0.1095	50
-0.0008	-0.0195	-0.0091	0.024	49.9
-0.0008	0.0007	-0.0015	-0.0968	50.2
-0.0008	0.0142	-0.0008	-0.2093	50.2
-0.0046	0.0097	0.003	-0.159	50.4
-0.0046	-0.0053	0.0142	-0.0495	50.5
-0.0008	0.0015	0.0157	-0.0323	50.5
-0.0008	0.03	0.0052	-0.0128	50.7
-0.0015	0.0757	0.0007	-0.0046	50.8
-0.0015	0.054	0.0022	0.0022	50.9
-0.0015	-0.0046	-0.0015	0.0315	50.9
0.0007	0.0045	-0.006	0.063	50.9
-0.0008	-0.0023	-0.0091	0.1177	51.1
-0.003	0.0007	-0.0105	0.162	51.2
-0.0046	-0.0015	-0.0098	0.12	51.3
-0.003	-0.0091	-0.0015	-0.015	51.6
0	-0.0158	0.0015	-0.1463	51.2
0.0007	-0.0225	0.0007	-0.0765	51.7
-0.0008	-0.0105	0.0015	0.0495	51.7
0.0007	-0.0068	-0.0008	0.0375	51.9
0.0007	0.009	0.0007	-0.0315	51.8
0	0.0015	0.003	-0.0953	51.9
0.0007	0.0112	-0.0008	-0.0278	52.2
0.0015	0.0195	-0.0015	-0.0188	52.1
0.0015	0.0157	-0.0046	-0.0518	52.4
-0.0008	0.03	-0.0053	-0.033	52.3
-0.0023	0.0172	-0.003	-0.0518	52.5
-0.0023	0.0165	-0.0038	0.0022	52.5
-0.0008	0.0022	-0.0083	-0.0173	52.5
0	-0.0181	-0.006	-0.0181	52.5
0.0015	-0.0158	-0.003	0.0165	52.8
-0.0008	-0.0188	-0.006	0	52.8
-0.0008	0.0127	-0.0075	0.012	53
0.0007	0.0465	-0.0008	-0.0143	52.9
-0.0015	0.0292	0	-0.0038	53.1
-0.0015	0.0105	-0.0046	0.018	53.1
0	0.012	-0.0053	0.018	53.3
0.0007	-0.0015	-0.0038	0.0225	53.4
-0.003	-0.0383	0	0.0217	53.5
-0.003	-0.054	0.0067	0.0307	53.5
-0.0023	-0.0511	0.009	0	53.6
-0.0015	-0.033	0.0052	-0.0458	53.9
-0.0008	-0.0015	0.0045	-0.0368	53.7
-0.0015	0.0112	0.0067	0.0165	54
-0.0023	-0.0181	0.006	0.042	54.1
0.0007	-0.0203	0.0015	0.0585	54.4
0.0007	0.018	0.0015	0.0517	54.2
-0.0008	0.0375	0	-0.0233	54.3
-0.003	0.0427	-0.003	-0.0518	54.4
-0.003	0.0315	-0.0023	0.0052	54.6
0.003	0.0322	-0.0015	0.0427	54.5
0.003	0.015	-0.0068	0.0495	54.7
0	-0.0353	-0.0091	0.0442	54.8
-0.0008	-0.0833	-0.0091	0.0007	54.7
-0.0015	-0.108	-0.0091	-0.0533	54.9
0.0007	-0.0818	-0.0046	-0.045	55
0.0015	0.0007	-0.003	0.0315	55.1
0.0037	0.0487	-0.0053	0.0307	55
0.0045	0.0322	-0.0128	0.0007	55.3
0.0045	0.0217	-0.0195	-0.0008	55.3
-0.0008	-0.0038	-0.0256	-0.0195	55.4
-0.0038	-0.0083	-0.0225	-0.0046	55.4
0.0022	0.0045	-0.012	0.0202	55.6
0.003	0.042	-0.006	0.0502	55.7
0.0022	0.0795	-0.003	0.0255	55.7
0.0007	0.0202	-0.0023	-0.042	55.8
-0.0015	-0.0653	0.0015	-0.0871	55.8
-0.0008	-0.0578	0.003	-0.0668	55.9
0.0022	-0.0128	0.0045	0.0217	56
0.0015	-0.0323	0.0022	0.0292	56.2
-0.0015	-0.054	-0.0015	0.015	56.2
-0.0015	-0.0195	-0.003	0.0217	56.2
-0.0015	0.0052	-0.0015	0.0067	56.4
-0.0038	0.0202	0.0045	0.0277	56.4
-0.0046	0.0555	0.012	0.0547	56.5
-0.0008	0.0577	0.0142	0.075	56.5
-0.0023	0.0382	0.015	0.03	56.6
-0.003	0.0067	0.0127	-0.0458	56.8
-0.0053	0.012	0.012	-0.0225	56.8
-0.0068	0.036	0.0157	0.024	56.8
-0.003	0.0232	0.0157	0.003	57
-0.0038	0.0187	0.0097	-0.0083	57
-0.003	0.0165	0.0067	0.0142	57.3
-0.0023	0.009	0.0052	0.0187	57.2
-0.0038	-0.0091	0.0007	0.0652	57.4
-0.0038	-0.0128	-0.0015	0.0907	57.5
-0.0015	-0.0203	-0.0053	0.0202	57.4
-0.0023	-0.0443	-0.0053	-0.054	57.4
-0.0046	-0.0278	0.0022	-0.1553	57.6
-0.003	0.0165	0.009	-0.1575	57.7
-0.003	0.0105	0.0165	-0.0825	57.7
0	-0.0165	0.0217	-0.0503	58
0.0007	-0.0091	0.0195	0.012	57.9
-0.0008	0.0232	0.0142	0.015	58.1
0.0007	0.0307	0.009	0.0052	58
0	0.0037	0.0112	0.0007	58.2
0.0045	0.024	0.018	0.033	58.2
0.0037	0.0517	0.015	0.1012	58.4
0.0015	0.033	0.0105	0.057	58.3
0.0015	-0.0195	0.0067	-0.0361	58.5
0	-0.0518	0.0037	-0.1095	58.5
-0.0008	-0.0218	0.0067	-0.0443	58.8
-0.0015	0.0052	0.012	0.0382	58.6
-0.0008	-0.0023	0.0097	-0.0135	58.6
-0.0015	0.0037	0.0075	0.0067	58.9
-0.0015	0.003	0.0052	0.045	58.8
-0.0015	-0.0188	0.0007	0.0352	59.1
-0.0015	-0.0105	-0.0008	0.0622	59
0.0007	-0.0015	-0.0023	0.0517	59.2
0.0007	-0.0068	-0.0038	-0.0263	59
0	-0.0233	-0.0046	-0.0893	59.3
-0.0015	-0.0181	-0.0046	-0.078	59.1
-0.0046	0.0195	-0.0053	-0.0315	59.4
-0.0038	0.0412	-0.0023	0.009	59.3
-0.0008	0.0202	-0.0023	0.0165	59.6
-0.0008	0.0007	-0.0046	-0.0008	59.4
-0.0015	0.0022	-0.0068	-0.0203	59.4
-0.0008	0.0217	-0.012	0.009	59.5
0.0015	0.051	-0.0098	0.1065	59.7
0.003	0.039	-0.0098	0.1275	59.8
0.0015	-0.0165	-0.012	0	59.7
-0.0008	-0.0788	-0.0203	-0.1103	59.9
-0.0008	-0.108	-0.0203	-0.075	59.9
-0.0015	-0.075	0	-0.0046	60.2
0.0007	-0.0495	0.0127	0.0097	60
0.0007	-0.06	0.009	-0.0068	60.3
-0.0023	0.0195	0.003	0.009	60.2
-0.0015	0.081	0.0082	0.0277	60.4
0	0.0622	0.012	0.0045	60.3
0.0015	0.0487	0.006	-0.0091	60.5
0	0.0337	0.0007	-0.0195	60.4
0	0.0015	0	-0.0233	60.6
-0.0015	-0.0518	0.0045	-0.0203	60.6
-0.003	-0.024	0.0045	-0.0135	60.7
-0.0038	0.0157	0.0075	0.0015	60.7
-0.0046	-0.0015	0.0127	0.0232	60.7
-0.0068	0.0105	0.012	0.0405	61
-0.0091	0.0007	0.0052	0.009	60.7
-0.0068	-0.0113	-0.0008	0.009	61.1
-0.003	0.0292	-0.0038	0.0975	61
0.0007	0.0307	-0.0105	0.0997	61.1
-0.0008	-0.0038	-0.0165	-0.0458	61.1
-0.0008	-0.0233	-0.0173	-0.1193	61.2
0.0007	-0.039	-0.0165	-0.0181	61.1
0.0015	0.0067	-0.0075	0.0427	61.4
0.0052	0.0375	0.0022	0.0157	61.4
0.0052	0.0457	0.0015	0.0225	61.5
0.003	0.0555	0.0007	-0.0091	61.4
0.003	0.054	-0.0008	0.0225	61.7
0.0037	0.0472	0.0045	0.0255	61.6
0.0037	0.018	0.006	-0.0368	61.6
-0.0008	0.0232	0.006	-0.0248	61.8
-0.0015	-0.0143	0.0015	-0.0653	61.6
-0.0023	-0.0503	-0.0038	-0.0675	62
-0.0046	-0.0923	-0.0023	-0.0398	61.7
-0.0046	-0.09	-0.0023	-0.0233	62
-0.0015	-0.0263	-0.0008	0.0015	62
0	-0.0706	-0.0015	0.0232	62.2
0	-0.063	-0.0015	0.033	62.1
-0.003	-0.0361	0	-0.024	62.2
-0.003	-0.0383	-0.0008	-0.0165	62.2
0.0007	0.012	-0.0046	0.0817	62.3
0	0.018	-0.0128	0.114	62.3
0.0007	0.0195	-0.0083	0.0787	62.5
0.0037	0.0292	0	0.0097	62.5
0.0022	0.033	-0.003	-0.0871	62.5
0.0007	0.0517	-0.0023	-0.0923	62.6
-0.003	0.0487	0.0067	-0.042	62.7
-0.0015	0.057	0.0105	-0.003	62.7
-0.0008	0.0592	0.0075	0.015	62.7
-0.0015	0.0502	0.0045	0.0292	62.8
-0.003	0.0555	0.003	0.0577	62.8
-0.0053	0.0307	0.003	-0.0105	63
-0.0038	0.0105	0.003	-0.084	62.9
0.0007	-0.0105	0.0045	-0.0555	63
0.0022	-0.0361	0.0045	0.009	63
-0.0008	-0.054	-0.003	0.042	63.1
-0.0023	-0.0863	-0.0068	0.069	63.3
-0.0023	-0.0975	-0.006	0.0487	63
-0.0008	-0.0788	-0.0053	0.0367	63.2
0.003	-0.0518	-0.0068	0.0885	63.2
0.003	-0.0203	-0.0091	0.0532	63.1
0.003	0.0375	-0.003	-0.0848	63.4
0.0037	0.0532	0.0015	-0.1463	63.4
0.0007	0.0247	0.0007	-0.027	63.5
-0.0023	0.0247	0.0007	0.0247	63.4
0.0007	0.0067	0.003	-0.033	63.4
0.0135	-0.0533	0.0105	-0.0563	63.5
0.0307	-0.0428	0.009	-0.015	63.8
0.0277	0.0592	0.0045	0.0982	63.8
0.015	0.1035	-0.0068	0.1192	63.7
0.0082	0.0382	-0.0233	0.0847	63.7
-0.003	0.0067	-0.024	0.0532	63.9
-0.003	0.0082	-0.0165	0.024	63.8
-0.003	-0.0053	-0.0105	-0.0091	64.1
-0.0046	0.042	-0.003	-0.1441	63.9
-0.0023	0.081	0.0052	-0.1328	63.9
-0.0046	0.0622	0.009	-0.024	64
-0.0053	0.0405	0.0067	-0.048	64.1
-0.0083	0.0367	0.0082	-0.0256	64.2
-0.0098	0.0007	0.0052	-0.0308	64.1
-0.0113	-0.0555	0.0045	-0.039	64.3
-0.012	-0.0968	0.0015	-0.003	64.3
-0.0105	-0.078	-0.003	-0.0098	64.4
-0.0091	-0.0256	-0.0008	0.0067	64.3
-0.0083	0.003	0.0007	-0.0128	64.5
-0.0128	0.0045	-0.0023	-0.0128	64.3
-0.0091	0.018	-0.0075	0.027	64.5
-0.006	0.0465	-0.0091	0.0885	64.6
-0.0075	0.015	-0.0113	0.1252	64.6
-0.0083	-0.0495	-0.0195	0.0795	64.4
-0.0046	-0.0938	-0.0128	0.0217	64.8
-0.0008	-0.0638	-0.0053	-0.0361	64.6
-0.0015	-0.0248	0	-0.0383	64.8
-0.0008	0.0105	0.012	-0.0135	64.7
0.0022	0.0345	0.012	0.027	64.7
-0.0015	-0.0008	0.0082	0.0202	64.9
-0.0015	-0.0203	0.0097	-0.0533	64.8
0.0007	0.0082	0.012	-0.0623	64.9
0.003	0.0195	0.006	-0.0368	64.9
0.0015	-0.0533	0.0007	0.009	65.1
0.0015	-0.1028	0.003	-0.033	65
0	-0.0856	0.0052	-0.0818	65.2
0	-0.042	0.0082	-0.0158	64.9
0.0007	0.0045	0.006	-0.0008	65.3
-0.003	0.0157	0.003	-0.0046	65.1
-0.0046	0.0352	0.0067	0.0067	65.4
-0.0046	0.0742	0.0112	0.027	65.2
-0.0008	0.0937	0.0157	0.0277	65.3
0.0045	0.0637	0.015	0.021	65.3
0.003	0.0277	0.003	0.069	65.3
-0.0038	0.0172	-0.0091	0.0825	65.4
-0.003	0.0037	-0.0068	0.0165	65.3
-0.0038	-0.0188	-0.0083	-0.0233	65.5
-0.0046	0.0172	-0.012	0.0127	65.3
-0.003	0.0352	-0.0128	-0.0128	65.7
-0.0053	0.0135	-0.0135	-0.0293	65.4
-0.0023	0.0217	-0.0135	0.0007	65.7
-0.0008	0.0135	-0.012	0.018	65.4
0.0015	-0.003	-0.012	0.0412	65.7
0	-0.0361	-0.0143	0.0037	65.6
-0.0023	-0.0165	-0.012	-0.0256	65.7
-0.0015	-0.0008	-0.0075	-0.0653	65.8
-0.0008	-0.0203	-0.0053	-0.0668	66
0.0015	-0.0008	-0.0083	-0.0068	65.8
0.0015	0.0045	-0.0083	0.0052	65.9
-0.0008	0.0007	-0.003	0.0067	66
0.0007	0.009	-0.0015	0.0217	65.9
0.0022	0.027	-0.0008	0.0292	66.2
0.0007	0.0082	-0.0046	-0.0075	66
-0.0015	0.012	-0.006	0.0427	66.2
0	0.0315	0.0007	0.0975	66.1
0.0015	-0.0165	0.0022	0.018	66.3
-0.0008	-0.0495	0.0007	-0.0675	66
-0.0038	-0.0383	0	-0.0585	66.4
-0.003	0.0015	0.0037	0.0127	66.3
-0.0015	0.0525	0.0105	-0.012	66.4
0.0007	0.054	0.0142	-0.0256	66.3
0.0007	0.0225	0.0067	0.0352	66.5
-0.0008	0.0015	0.0045	0.027	66.4
0.003	-0.0248	0.0052	0.003	66.5
0.0015	-0.0413	0.0045	0.0405	66.6
0	-0.0075	0.006	0.0555	66.6
-0.0015	0.0502	0.003	-0.0398	66.5
-0.0038	0.0577	0.0075	-0.114	66.6
-0.0023	0.0232	0.0105	-0.0458	66.7
-0.0023	0.0292	0.0082	0.0112	66.6
-0.0008	-0.0075	0.0052	-0.0165	66.7
-0.0008	-0.0871	0.0015	-0.0053	66.8
0.0022	-0.099	0.0052	0.0277	66.8
0.0015	-0.0825	0.0067	0.0315	66.8
-0.0053	-0.0308	0.0015	0.0247	66.8
-0.0053	0.012	-0.003	-0.0158	66.8
-0.0023	0.0397	-0.0046	-0.0233	66.9
-0.0038	0.1042	-0.0046	0.0225	66.9
-0.003	0.0937	-0.003	0.042	67
-0.0015	0.063	-0.003	0.0427	67
-0.0015	0.0382	-0.0068	0.006	67
-0.0015	-0.0383	-0.0165	-0.033	67
-0.003	-0.063	-0.0128	0.0592	67.1
0.0007	-0.042	0.0052	0.09	67.1
0.003	0.006	0.0142	-0.0098	67.1
0.0007	0.0127	0.003	-0.1103	67.2
-0.0015	-0.0225	-0.0046	-0.1253	67.2
-0.0008	-0.0398	0.0045	-0.0285	67.4
0.003	-0.0218	0.012	-0.0128	67.2
0	0.0315	0.0202	-0.0195	67.3
0.0007	0.0007	0.0187	0.0195	67.3
-0.0008	-0.0113	0.0067	0.0285	67.4
-0.0008	0.0135	-0.0015	0.0435	67.4
0.0015	-0.0458	-0.003	-0.003	67.4
0.0037	-0.0728	-0.0038	-0.0803	67.6
0.0045	-0.0713	-0.0053	-0.0563	67.5
-0.0038	-0.0758	-0.0053	0.0045	67.6
-0.003	-0.033	-0.006	-0.003	67.5
-0.003	0.0285	-0.0143	-0.0068	67.5
-0.0053	0.0517	-0.0203	0.0007	67.7
-0.0046	0.0412	-0.0203	0.021	67.8
-0.0038	0.0592	-0.0203	0.108	67.7
-0.0015	0.0697	-0.012	0.1695	67.9
0.0037	0.0172	0	0.129	67.8
0.006	-0.054	-0.0015	-0.0248	67.9
-0.0008	-0.0721	-0.0083	-0.1403	67.9
-0.0046	-0.0105	-0.0008	-0.0765	67.7
0.0007	0.0277	0.0112	-0.027	68
0.006	0.0375	0.0157	-0.0098	67.9
0.0105	0.027	0.0067	0.0232	68.1
0.0097	-0.0555	-0.0046	0.0405	67.9
0.0075	-0.078	-0.0098	0.048	68
0.003	-0.0511	-0.0091	-0.0203	68.1
-0.0015	-0.0398	-0.0068	-0.0511	68.2
-0.0038	0.0187	-0.0008	-0.0075	68.3
-0.0053	0.0337	0.0007	0.0202	68.3
-0.0053	0.0315	-0.003	-0.0091	68.3
-0.0068	0.0052	-0.0068	-0.0353	68.3
-0.0083	0.0045	-0.0091	-0.063	68.3
-0.0098	0.0735	-0.0053	-0.1013	68.4
-0.0068	0.0495	0.0067	-0.0653	68.5
-0.003	0.018	0.0105	-0.0091	68.4
-0.0008	0.0225	0.0052	0.0307	68.6
0.003	0.0292	-0.0015	0.0465	68.6
0.0015	0.0405	-0.0053	0.0637	68.7
-0.0008	0.0262	-0.003	0.0525	68.6
0.0015	-0.0368	-0.0015	0.012	68.7
-0.0015	-0.0743	-0.0008	-0.0495	68.8
-0.0008	-0.0346	0.0127	-0.0728	68.8
0.0052	0.012	0.0247	0.0577	68.9
0.0082	0.0615	0.0255	0.0952	68.8
0.0045	0.078	0.0202	0.0082	68.8
-0.0008	0.0697	0.0165	-0.024	68.9
-0.0015	0.087	0.0195	-0.033	68.9
0.0015	0.1177	0.0157	0.0232	69
0.003	0.09	0.0075	0.0367	69
0.003	0.0112	0.006	0.0082	69
0.003	-0.0683	0.0015	-0.0008	69.1
0	-0.1545	-0.003	-0.0105	69.2
-0.0015	-0.12	0.0022	0.021	69.4
-0.003	-0.0413	0.006	0.0442	69.3
-0.0053	-0.0795	0.0052	0.0127	69.3
-0.0038	-0.108	0.0037	-0.0885	69.1
-0.0038	-0.054	-0.0008	-0.0908	69.4
-0.0038	0.027	0.0052	0.0075	69.4
-0.0008	0.0067	0.0082	-0.0068	69.4
-0.0015	-0.0233	0.0015	-0.0091	69.5
-0.0008	-0.0158	-0.003	0.0202	69.6
0.0007	-0.0105	-0.0046	0.021	69.7
0.0007	0.027	-0.0068	0.0502	69.6
-0.0015	-0.0023	-0.012	0.0465	69.7
-0.0046	-0.0038	-0.0143	0.006	69.5
-0.0046	0.0187	-0.0181	-0.0533	69.7
-0.0038	0.024	-0.0083	-0.093	69.7
0.0022	0.0082	0.009	-0.0563	70
0.0052	0.042	0.0202	0.0367	69.7
0.0075	0.0975	0.024	0.0465	69.9
0.0037	0.027	0.012	0.0105	69.9
-0.0008	-0.0015	0.0015	0.0577	70.1
-0.0015	-0.0165	0.0015	0.075	70
-0.0015	-0.0773	-0.0023	0.0187	70.2
-0.0015	-0.0698	-0.0046	-0.0503	70
-0.006	-0.0503	-0.0068	-0.0473	70.1
-0.0075	0.0015	-0.0083	-0.0068	70.2
-0.0053	0.033	-0.0053	-0.0188	70.2
-0.003	0.0337	-0.003	0.0045	70.5
-0.0046	0.0675	-0.003	-0.0046	70.2
-0.003	0.0577	0.0015	-0.0195	70.5
0.0015	0.0532	0.0007	0.027	70.3
0.0045	0.051	-0.0023	0.048	70.5
0.0037	-0.0128	-0.006	0.0622	70.5
0	-0.033	-0.0158	0.0892	70.6
-0.0053	-0.0383	-0.0195	0.1275	70.6
-0.0083	-0.0353	-0.024	0.0877	70.6
-0.0068	-0.0038	-0.0165	-0.003	70.6
-0.0008	-0.054	-0.003	-0.0578	70.6
0.0007	-0.0436	0.0007	-0.123	70.6
-0.0046	0.0232	0.0045	-0.0833	70.8
-0.003	0.0255	0.0142	-0.0015	70.8
0.0007	-0.024	0.0135	-0.0346	70.8
0.003	0.0315	0.0135	0.003	71
0.003	0.0952	0.0157	0.0045	70.8
-0.0008	0.0517	0.0052	-0.0735	71.1
0.0007	0.0502	0.003	-0.045	70.8
0	0.0412	0.0007	0.0015	71.1
-0.003	-0.0233	0.0007	0.0367	71
-0.0046	-0.1478	-0.0053	0.0637	71.1
-0.0053	-0.1613	-0.0135	0.075	71.1
-0.0053	-0.1898	-0.0098	-0.033	71.1
-0.0046	-0.2295	-0.012	-0.1298	71.1
-0.003	-0.0248	-0.0068	-0.0856	71.4
-0.003	0.156	0.0097	-0.0795	71.4
0.0045	0.1335	0.024	0.0157	71.6
0.0082	0.0465	0.0135	0.009	71.5
0.003	0.0345	0.0015	-0.024	71.5
0.0007	0.0855	0.0015	0.0607	71.6
-0.0023	0.0607	-0.0098	-0.0091	71.5
-0.0046	0.009	-0.0135	-0.0083	71.6
-0.0008	0.0202	-0.0091	-0.0143	71.5
0.0007	0.0472	-0.0053	-0.0195	71.7
0.003	0.0712	-0.0023	0.0232	71.8
0.003	0.0592	-0.0008	0.0345	71.9
0.0037	0.0562	-0.0038	0.0652	71.9
0.003	0.0765	-0.0046	0.075	72
0.0052	0.078	-0.003	0.1252	72.1
0.003	0.0292	-0.0105	0.0337	71.9
-0.0053	-0.0075	-0.0113	-0.111	72
-0.0046	0.024	-0.0015	-0.1133	72.1
0.0007	0.0585	0.0067	-0.0181	72.3
0.0037	-0.0638	0.0165	0.0015	72.3
0.0022	-0.2378	0.0157	-0.021	72.4
0.0015	-0.114	0.0112	0.021	72.3
-0.0008	0.0052	0.0067	0.012	72.5
0	-0.0256	0.0007	0.0457	72.4
0.0007	-0.0308	-0.0023	0.0472	72.7
-0.0015	-0.0668	-0.0068	-0.0008	72.5
-0.0023	-0.0383	-0.006	-0.0593	72.6
-0.0008	-0.006	-0.0015	-0.0885	72.8
-0.0008	0.0247	-0.003	-0.0098	72.8
-0.0023	0.0225	-0.003	0.0405	72.8
0.0015	-0.0203	-0.0015	0.0052	72.9
0.0045	-0.003	-0.0023	-0.054	72.9
0.0045	0.0037	-0.003	-0.0158	72.8
0.0015	-0.0856	-0.0098	0.0427	72.9
-0.0023	-0.1403	-0.0135	0.018	73
-0.0008	-0.0015	-0.0105	0.0082	73.1
-0.0008	0.048	-0.0083	0.0135	73.2
-0.0008	0.0292	-0.0053	0.033	73.4
-0.0046	0.0465	0.003	0.0285	73.4
-0.0046	0.009	0.006	-0.0135	73.3
-0.003	0.0187	-0.003	-0.0383	73.4
-0.0038	0.057	-0.0038	0.0097	73.5
0	0.0637	0.0007	0.0667	73.7
0	0.0495	0.0082	0.063	73.6
-0.0008	0.0412	0.0157	0.0487	73.7
-0.0046	0.0337	0.0142	-0.0315	73.7
-0.0038	0.0585	0.0157	-0.066	73.7
-0.003	0.087	0.0082	0.0015	73.8
-0.0046	0.027	0.003	-0.003	74
-0.0068	-0.0743	-0.0038	-0.0443	73.9
-0.0068	-0.09	-0.0091	-0.0555	74
-0.0015	-0.0015	-0.0015	-0.0443	73.9
0.0007	0.0322	0.0015	0.024	74.1
-0.0015	-0.0713	-0.003	0.039	74.3
-0.0015	-0.0593	-0.0046	-0.0165	74.2
-0.0008	0.0082	0.0007	-0.0203	74.4
-0.0008	-0.0135	0.0007	0.0165	74.2
-0.0015	0.0345	0.003	0.042	74.6
0	0.0352	0.006	0.0067	74.3
0.0015	0.0682	0.0082	-0.0218	74.6
0.0022	0.1327	0.0075	0.0232	74.4
0.0045	0.1297	-0.0008	0.072	74.7
0.0007	0.0757	-0.0083	0.0465	74.5
-0.003	-0.1193	-0.0105	-0.027	74.8
-0.0015	-0.2438	-0.0098	-0.0968	74.6
-0.0008	-0.2438	-0.0038	-0.1088	74.8
-0.0008	-0.1613	0.009	-0.0218	74.9
0.003	0.0045	0.0082	0.0045	75
0.0045	0.069	0.0037	0.006	75.1
0.0022	0.0592	-0.003	0.027	74.9
-0.0008	0.042	-0.0091	0.033	75.2
-0.0008	0.0225	-0.0068	0.0405	75.1
-0.0015	0.0307	-0.0075	0.0187	75.2
-0.0015	0.045	-0.0053	0.0615	75.1
0.0007	0.036	-0.0083	0.0637	75.4
-0.0015	0.003	-0.0083	0.012	75.3
0.0007	-0.0143	-0.0053	-0.0548	75.5
-0.003	0.0135	-0.0091	-0.1298	75.4
-0.0038	0.0457	-0.0038	-0.0915	75.5
0.0015	0.009	0.0007	-0.0113	75.5
0.0015	-0.0158	0.003	0.0345	75.7
0.0007	0.0105	0.0007	0.051	75.9
-0.0008	-0.0165	0.0015	0.024	75.8
0	-0.0578	0.0015	0.0015	76
-0.0015	-0.0608	-0.0015	-0.003	75.9
-0.0046	-0.0346	0.0022	0.0045	76
-0.0023	-0.03	-0.0008	0.0292	76
-0.0046	0.0217	-0.0015	0.0915	76.3
-0.006	0.15	-0.0015	0.165	75.9
-0.003	0.1027	-0.0075	0.1515	76.3
-0.0023	0.0322	-0.0068	0.0165	76
-0.0038	0.0045	-0.0046	-0.1335	76.4
-0.0046	-0.0383	0	-0.1515	76.2
0	-0.0248	0.0067	-0.1455	76.3
0.0037	-0.048	0.0075	-0.093	76.3
0.0052	-0.015	0.006	-0.0068	76.6
0.0067	-0.0443	0.003	-0.0105	76.5
0.006	-0.0893	0.0045	0.0247	76.7
0.0037	-0.03	0.0045	0.0232	76.8
0.0022	0.0292	-0.0046	0.0397	76.7
0.0007	-0.0038	-0.0053	0.0622	76.8
