File Name: sentado.log
Channel 4: 'Recto Femoral', 38971 values, engineering units: mV, no filters.
Channel 5: 'Biceps Femoral', 38971 values, engineering units: mV, no filters.
Channel 6: 'Vasto Medial', 38971 values, engineering units: mV, no filters.
Channel 7: 'EMG Semitendinoso', 38971 values, engineering units: mV, no filters.
Channel 8: 'Flexo-Extension', 38971 values, engineering units: deg, no filters.

-0.0008	-0.0008	0	-0.0008	87.1
-0.0015	-0.0015	0.0007	-0.003	87
-0.0008	-0.0008	-0.0008	-0.0015	87.2
-0.0008	-0.0008	-0.0008	-0.0008	86.9
-0.0015	0	-0.0023	0.0007	87.2
-0.0008	0.0015	-0.0008	0.0007	87
-0.0008	0	-0.0015	0.0007	87.1
-0.0023	0.0007	-0.0015	0.0007	87
-0.003	0.0007	-0.0008	-0.0008	86.8
-0.0008	0.0007	-0.0015	-0.0015	87.1
-0.0015	0.003	0.0007	-0.003	87.1
-0.0015	0.0045	-0.0008	-0.0015	87
-0.0015	0.0045	-0.0008	-0.0008	87
0	0.0022	-0.0008	-0.0015	87
-0.0008	0.003	0.0007	-0.0008	87
-0.003	0.0022	0.0007	0	86.9
-0.0015	0.003	-0.0008	0.0007	87.2
-0.0008	0.0007	0	0.0007	87.1
0.0007	-0.0008	-0.0015	0.0007	87.2
0.0022	-0.0008	-0.0008	0.0007	86.8
0.0007	-0.0015	0	0.0007	87.2
0	-0.0008	0.0007	0.0015	86.9
0	0.0007	0.0007	0.0007	87
-0.0008	0.0015	-0.0008	-0.0008	87
0.0015	0.0015	-0.0015	-0.0015	87.1
0.0007	0.0015	-0.0015	-0.0008	87
-0.0008	0.0015	-0.0008	0.0007	86.9
0.0015	0	0.0007	0.0015	87
0	-0.0008	-0.0008	0.0022	87.2
-0.0008	-0.0015	-0.0008	0.003	86.9
0.0007	-0.0023	0	0.0022	86.9
-0.0008	-0.0015	0.0007	0.0015	87.2
0	-0.0008	0.0015	0	87
0	-0.0008	0.0007	-0.0015	87.1
0.0007	-0.0015	0.0007	-0.003	87
-0.0008	-0.0023	0.0007	-0.003	87.1
-0.0008	-0.0008	0.0007	-0.003	86.9
-0.0008	-0.0015	0	-0.0046	87.1
-0.0015	-0.0023	-0.0008	-0.0015	86.9
-0.003	-0.003	0.0007	-0.0015	87.1
-0.0008	-0.003	0.0015	-0.0008	87
0.0007	-0.0046	0.0022	0.0007	87.3
-0.0008	-0.0053	0.003	0.0007	86.9
-0.0015	-0.0046	0.003	0	87.2
-0.0015	-0.0046	0.003	-0.0015	87.1
-0.0008	-0.003	0.0022	-0.0015	87.2
0.0015	-0.003	0.0015	-0.0008	87
0.0007	-0.003	0.0022	0.0015	87.2
-0.0008	-0.0008	0	0.0022	87
-0.0008	-0.0008	-0.0008	0.0015	87
-0.0008	0.0015	-0.0008	0.0015	87.2
0.0007	0.0015	0	0.0022	86.9
0.0007	0.0007	0.0007	0.003	87.2
-0.0023	0.0015	-0.0008	0.0045	86.9
-0.0015	0.003	0	0.0045	87.1
0	0.003	0	0.0045	87.1
0.0015	0.0015	-0.0008	0.0045	87.1
0.0007	0.0015	-0.0015	0.003	87
-0.0008	0.0015	-0.0023	0.0022	87.2
-0.0008	0.0022	-0.0008	0.0037	87
-0.0015	0.0037	-0.0008	0.003	87.1
0	0.0045	-0.0008	0.0022	86.9
0.0015	0.0045	-0.0015	0.0015	87.1
-0.0015	0.003	-0.0008	0.0007	86.9
-0.0023	0.0037	-0.0008	0.0015	87.1
0	0.003	0	0.0007	87.1
-0.0008	0.0022	0.0015	0.0007	86.9
-0.0008	0.0015	-0.0008	0.0022	87.2
-0.0015	-0.0008	-0.0015	0.003	87.1
-0.0023	-0.003	0	0.0015	87.1
-0.0015	-0.0023	0.0007	0.0007	87.1
-0.0015	-0.0015	0.0022	0.0015	86.9
-0.0023	-0.0008	0.003	0	87.1
-0.0023	-0.0008	0.0022	-0.0008	87
0	-0.0015	0.0022	-0.0008	87
0.0015	-0.0015	0.0015	-0.0023	86.9
-0.0015	-0.003	0.0022	-0.0015	87
-0.0023	-0.0015	0.0015	-0.0015	87
-0.0008	-0.0023	0.003	-0.0015	87
0	-0.0008	0.003	-0.0023	86.9
-0.0008	0.003	0.0015	-0.003	87
-0.003	0.0022	0.003	-0.0023	87.1
-0.0015	0.003	0.0007	-0.0015	87
-0.0015	0.0022	-0.0008	-0.0015	86.9
-0.0046	0.0015	0	0.0007	87.1
-0.0023	0.0015	0	0.0015	87.2
0	0.0022	-0.0015	0.0007	87.1
-0.0008	0.0022	-0.0023	0.0015	86.9
-0.0008	0.0015	-0.0015	0.0015	87
0	0.0007	-0.003	-0.0008	87
-0.0008	-0.0008	-0.0015	-0.0008	87
0.0007	-0.0015	-0.0008	0.0007	87.2
0.0007	-0.0015	-0.0008	0	87
0.0007	-0.0008	-0.0008	-0.0008	87
0.0015	-0.0015	-0.0015	0.0007	87.1
0.0007	-0.0015	0.0007	-0.0008	87.1
-0.0008	-0.0008	0.0007	-0.0008	87
0	0.0007	-0.0008	-0.0023	86.9
-0.0008	0.0007	0	-0.0038	87.2
-0.0008	0.0007	-0.0015	-0.0023	87
0.0007	0.0007	-0.003	-0.0023	87.1
0.0007	-0.0015	-0.003	-0.003	87
0.0007	-0.0015	-0.0023	-0.003	87.2
0.0007	-0.0015	-0.003	-0.0015	86.9
0.0007	-0.0015	-0.0008	-0.0008	87.1
-0.0008	-0.0023	-0.0015	-0.0015	86.9
-0.0008	-0.0015	-0.0015	-0.0008	87.3
-0.0008	-0.0008	-0.0008	0.0007	86.9
0	-0.0015	-0.0008	-0.0008	87.1
-0.0008	-0.0008	0	-0.0008	87
0	-0.0008	0.0007	0.0015	86.9
0.0015	-0.0008	0.0015	0.003	87
-0.0015	-0.0015	0.0007	0.0037	87.1
-0.003	-0.0015	0.0007	0.0045	87.1
-0.0015	-0.0015	0.0022	0.0045	86.9
0.0007	-0.0023	0.0015	0.003	87.1
0.0015	-0.0015	0	0.003	86.9
-0.0008	-0.0008	0.0007	0.0037	87.2
-0.0008	-0.0008	0	0.0052	87
0.0015	0.0007	0	0.0045	87.2
0.0007	0.0022	0	0.003	87
0.0007	0.0045	0.0007	0.003	87.1
-0.0008	0.003	-0.0008	0.0037	87
0.0007	0.003	-0.0008	0.0015	87.2
0.0015	0.0045	0	0	86.9
-0.0008	0.0037	-0.0008	0	87.1
0.0007	0.003	0	-0.0023	87
0.003	0.0022	0.0015	-0.0015	87.1
0.0007	0.003	-0.0008	-0.0008	86.9
0	0.003	-0.0008	-0.0008	87.1
0.0015	0.0015	-0.0008	0.0007	87.2
0.0015	-0.0008	-0.0015	0.0007	86.9
0.0015	-0.0008	-0.0008	-0.0008	87.2
0.0022	-0.0015	-0.0008	-0.0008	86.9
0.0007	0	0.0007	-0.0008	87.2
-0.0008	0.0007	0	0.0007	86.9
-0.0015	-0.0015	-0.0023	0.0007	87.1
-0.0015	-0.0015	-0.0023	-0.0015	87
-0.0008	-0.0015	-0.0015	-0.0008	87
-0.0008	-0.0008	-0.003	-0.0015	87.1
0	-0.0015	-0.0023	-0.0008	87.1
-0.0008	0	0	-0.0015	86.9
-0.0015	0.003	0.0015	-0.0015	86.9
-0.003	0.003	0.0015	0.0007	87
-0.0015	0.003	0.0007	0.0022	87
-0.0015	0.0015	0.0015	0.0007	87.1
-0.0008	0.003	0.0007	0.0007	86.9
0.0007	0.0015	0.0015	0.0022	87.1
0.0007	0.0007	0.003	0.0022	86.8
0	0.0007	0.0022	0.0007	87.1
-0.0023	-0.0008	0.003	0	87.2
0	0	0.003	0	87
-0.0008	-0.0015	0.0022	-0.0008	87.1
-0.0015	-0.0008	0.0015	-0.0008	87.1
-0.0008	-0.0023	0.0022	0.0007	87.2
-0.0008	-0.0023	0.0007	0.0015	86.9
0.0015	-0.0008	-0.0008	0	87.2
0.0007	0	0.0007	-0.0008	87
0.0007	0	0.0007	-0.0015	87
0	-0.0008	-0.0008	-0.0015	87
-0.0015	-0.0015	0.0007	-0.0015	87.1
0.0007	-0.0008	-0.0008	-0.0008	86.9
0.0007	0	0.0015	-0.0015	86.9
0	-0.0008	0.003	-0.0015	86.9
-0.0015	-0.0015	0.0015	0.0007	87.1
0	-0.0015	0.0015	-0.0008	87
-0.0008	0	0.0015	0.0007	86.9
-0.0046	0.0007	0.0015	0.0015	87.1
-0.0023	-0.0008	0	-0.0008	86.8
-0.0015	0.0015	-0.0008	0.0015	87
-0.0008	0.003	-0.0008	0.0015	86.9
0	0.0045	-0.0008	0.0007	87.1
0.0007	0.0052	-0.0015	0	87.1
0.0007	0.0052	-0.0015	0.0007	87.1
-0.0008	0.0022	0	0.0015	87.1
0.0015	0.003	0.0007	0.0015	86.9
0.0007	0.003	0	0.0015	86.9
-0.0015	0.0007	0.0015	0.0015	86.9
-0.0023	0.003	0.0007	-0.0008	87
-0.0023	0.0022	0	0.0007	86.9
-0.0008	-0.0008	-0.0008	0.0007	87
0	0	-0.0008	-0.0015	86.9
-0.0008	-0.0008	-0.0015	0	87.1
0.0007	-0.0008	-0.0015	0.0007	86.9
-0.0008	0.0015	-0.0008	-0.0008	87.1
-0.0008	0.0007	-0.003	-0.0008	87
-0.0008	0.0007	-0.003	-0.0008	86.9
-0.0008	0.0007	-0.0015	-0.0008	87
-0.0008	-0.0008	-0.0023	-0.0015	86.9
0	-0.0015	-0.0015	-0.0015	86.8
-0.0015	-0.0038	-0.0015	-0.0008	87
-0.0015	-0.003	-0.0015	-0.0008	87.1
-0.0008	-0.003	0	-0.0008	86.9
-0.0015	-0.003	0	-0.0008	87
-0.0008	-0.003	0.0007	-0.0008	86.9
0	-0.0008	0.0015	-0.0015	87.1
0	0	0.0007	-0.0015	86.9
0	0.0015	0.0007	-0.0038	87.1
0	0.0015	0.0022	-0.0015	87
0.0007	0.0015	0.0015	-0.0008	87
0.0007	0.0022	0	-0.0015	86.9
0.0015	0.0037	0.0007	-0.003	86.9
0.0007	0.0037	0	-0.0015	87
0.0007	0.0022	-0.0008	0.0015	87
0.0007	0.0007	-0.0015	0.0015	87.1
0.0007	0.0022	-0.0015	0.003	86.9
0.003	0.0022	-0.0008	0.003	87.1
0.0015	0.0007	0	0.003	87
0	0.0007	0	0.003	86.9
0.0007	0	0.0007	0.0015	87
0.0007	0	0.0015	0.0015	87.1
0.0007	-0.0008	0.0007	0.0022	86.9
-0.0015	-0.003	0.003	0.003	87
-0.0008	-0.0015	0.0052	0.003	87
0.0007	0	0.006	0.0015	86.9
-0.0008	0.0015	0.0037	0.0015	87
-0.0015	0.0007	0.0007	0.0015	87
-0.0023	0	0.0015	0.0015	87
-0.0008	0.0007	0.0015	-0.0008	86.9
-0.0008	-0.0008	0.0007	0.0007	87.1
-0.0015	-0.0008	0.0007	0.0015	86.9
-0.003	-0.0015	-0.0008	0.0007	87.2
-0.003	-0.0015	-0.0015	-0.0015	87
-0.0008	-0.003	-0.0015	-0.0008	87.1
-0.003	-0.003	-0.003	-0.0008	87
-0.0023	-0.0023	-0.003	-0.0015	86.9
-0.0023	-0.0015	-0.0015	-0.003	87
-0.0023	-0.003	-0.0008	-0.003	86.9
-0.0008	-0.003	-0.0008	-0.0023	87.3
-0.0015	-0.0015	-0.0015	-0.003	87
-0.0015	-0.0015	-0.0008	-0.0023	87.1
-0.0015	-0.0008	-0.0015	-0.0008	86.8
-0.0008	-0.0008	-0.0015	-0.0008	87.2
-0.0015	0	-0.0015	-0.0015	86.9
-0.0015	0.0007	-0.0023	-0.003	87.2
-0.0008	0.003	-0.0015	-0.0008	86.9
0.0007	0.0037	0.0007	-0.0015	87.2
0.0007	0.0015	0.0015	-0.0038	86.9
-0.0015	0.003	0	-0.003	87.1
-0.003	0.0052	0.0007	-0.0008	87
-0.0015	0.0045	0.0007	0.0007	87
-0.0015	0.0022	0.0007	0.0007	87.1
-0.0015	0	0.0007	0.0022	86.9
-0.0023	-0.0008	0.0007	0.0015	87.2
-0.0008	0	0.0007	0.0022	87
0.0015	-0.0015	0.0007	0.0045	87.2
0.003	-0.0015	0.0015	0.003	86.9
0.0015	-0.0008	0.0007	0.003	87.1
0.0015	0.0007	0.0007	0.003	86.9
0.0007	0.0007	0	0.0015	87
-0.0008	0	0.0007	0.003	87
0.0022	0	0.0007	0.0015	87
0.0015	-0.0008	0.0015	0.0015	87
0.0007	-0.003	0.0015	0.0037	87
0.0007	-0.0038	-0.0008	0.0037	87.1
0.0007	-0.003	-0.0015	0.0007	86.9
0.0015	-0.0015	-0.0008	0.0007	86.9
0.0015	-0.003	0	0	87.1
0.0007	-0.003	0	0	87.1
-0.0008	-0.0015	0.0007	0.0007	87
-0.0015	-0.0015	0	-0.0008	87.2
0.0007	-0.0008	-0.0015	0.0007	87.1
0	0.0007	-0.003	0.0015	87
-0.0015	0.0015	-0.0038	0.0015	87.2
-0.0015	0.0015	-0.0046	0.0007	87.1
0.0007	0.0015	-0.006	0.0022	87
0.0007	0.0007	-0.0053	0.003	86.9
-0.0008	0.0015	-0.0053	0.0037	87.2
-0.0015	0.0007	-0.0038	0.0045	86.9
0	0.0015	-0.0023	0.0015	87.2
0	0.003	-0.0015	0.0015	87.1
-0.0008	0.003	-0.0008	0.0015	87
-0.0008	0.003	0.0007	0.0007	86.9
-0.0008	0.003	0.0022	0.0015	87
-0.0015	0.003	0.0015	0.0007	87.1
-0.0015	0.0022	0.0037	0	87
0.0007	0.003	0.0037	-0.0008	87.2
-0.0015	0.0007	0.003	0.0007	87
-0.0015	0.0007	0.003	0.0007	87.2
0.0007	0	0.003	-0.0015	86.9
-0.0015	-0.0008	0.0045	-0.0008	87.1
-0.0008	-0.0015	0.003	0.0007	87
-0.0023	-0.0008	0.0007	0.003	87.2
-0.0015	0	0.0015	0.0022	86.8
-0.0015	0	0.0022	0.0007	87.2
-0.0015	-0.0008	0.0007	0.0015	86.9
-0.0015	0.0007	-0.0008	0.0007	87
0.0007	0.0015	0	0.0015	87.1
0.0007	0.0015	-0.0008	0.0037	87
0	0.0015	-0.0008	0.003	87.2
0.0007	0.0015	0.0015	0.003	87.1
0	0.003	0.0015	0.003	87.1
-0.0008	0.003	0.0022	0.0015	86.9
0	0	0.0015	0.0015	87.2
-0.0015	-0.0008	0.0015	0.0007	87
-0.0015	-0.0008	0.0022	-0.0008	87.1
-0.0015	0.0015	0.0022	-0.0008	86.9
-0.003	0.0007	0.0015	0.0007	87.2
-0.0015	0.0007	0.003	0	86.9
-0.0023	-0.0008	0.003	-0.0008	87.1
-0.0015	-0.0015	0.0007	-0.0023	86.9
0.0007	-0.0015	-0.0015	-0.0023	87.2
0.0015	-0.0008	-0.003	-0.003	87
0.0007	0	-0.0023	-0.003	87.1
0	-0.0008	-0.0015	-0.003	87.1
0	0.0007	-0.0008	-0.0038	87.1
0.0007	0.0007	-0.0023	-0.003	87.2
0.0007	0.0007	-0.003	-0.003	86.9
0.0007	0.0007	-0.0008	-0.0015	87.1
-0.0008	0.0015	-0.0008	-0.0015	86.9
-0.0008	0.0015	-0.0015	-0.0023	87.2
-0.0008	0.003	-0.0015	-0.0008	86.9
0.0007	0.0037	-0.0008	-0.0008	87.2
0	0.0037	0	-0.0008	86.9
0.0007	0.0045	0.0007	0	87.2
0.0015	0.0045	0.0007	0	86.9
0.0015	0.0045	-0.0008	0	87.1
0.0007	0.003	0.0007	0.0007	86.9
-0.0015	0.0015	0.0015	0.0007	87
-0.0015	0.0015	0.0007	0	86.9
-0.0008	0.0015	0.0015	0.0007	87
-0.0008	0.0007	0.003	0.0007	87
0	-0.0008	0.0022	0.0015	87
-0.0015	-0.0015	0.0015	0.0015	87.2
-0.0008	-0.0023	0.0007	0.0007	86.9
0	-0.003	-0.0015	0.003	87.2
-0.0008	-0.0053	-0.003	0.0007	86.9
-0.0008	-0.0083	-0.003	0.0007	87.1
0	-0.0068	-0.0015	0.0015	86.9
0	-0.0053	-0.0023	0.0015	87.2
0.0007	-0.0053	-0.0008	0.0022	87
-0.0008	-0.006	0.0015	0.003	87.1
-0.0015	-0.003	0.0015	0.0037	87
-0.0008	-0.0015	0.0022	0.0037	87.1
0.0007	0	0.003	0.006	87.1
0.0015	0.0015	0.0015	0.0052	87.1
0	0.0007	0	0.0067	87.2
-0.0008	0.003	0.0015	0.0075	87
-0.0008	0.0037	0	0.0052	87.1
-0.0008	0.0052	0.0007	0.0052	86.9
-0.0015	0.006	0.0007	0.0037	87.1
-0.0015	0.0067	0.0015	0.0015	87
0	0.0052	0.003	0.0015	87.2
0	0.0022	0.0015	0.0022	87
0.0007	0.0007	0.0015	0.0015	87
0	0.0007	0.0015	0.0015	87
-0.0015	0.0015	0.0015	-0.0008	87
-0.0008	-0.0008	0	-0.0015	87
-0.0008	0	0.0015	-0.0015	86.9
-0.0008	0	0.0022	-0.003	87.1
-0.0015	0.0007	0.0007	-0.0046	87
-0.0023	0.0007	-0.0008	-0.0046	87.1
-0.0015	0	-0.0015	-0.0053	87.1
0	0	-0.0015	-0.0046	86.9
-0.0008	-0.0015	-0.0015	-0.0046	87.2
-0.0008	-0.0015	-0.0008	-0.0053	87
-0.0008	-0.0023	-0.0008	-0.0046	87.1
-0.0008	-0.003	-0.0008	-0.003	86.9
0	-0.0015	0	-0.0023	87.2
-0.0008	-0.0023	-0.0008	-0.003	87
0	-0.0015	-0.0008	-0.0038	87.1
-0.0008	-0.0015	-0.0008	-0.0046	87
-0.0008	-0.0015	0	-0.003	87.2
-0.0008	-0.0015	0.0007	-0.003	87
-0.0008	-0.0015	-0.0008	-0.003	87.1
0.0007	-0.0008	-0.0015	-0.0023	87
0.0007	-0.0023	-0.003	-0.003	86.9
-0.0008	-0.003	-0.003	-0.0023	87
0.0007	-0.003	-0.0046	-0.003	86.9
0	-0.0008	-0.0046	-0.0015	87.2
0.0007	-0.0008	-0.003	-0.0008	87
0.0007	-0.0008	-0.003	-0.0008	87.2
0.0007	0.0015	-0.0015	0.0007	86.9
0.0007	0.003	-0.0015	0.0015	87.1
-0.0008	0.003	-0.0015	0.0007	87
0	0.0015	-0.0008	0	87
0.0015	0.0037	0.0007	0.0022	86.9
0	0.0037	0	0.0037	87
0.0015	0.003	-0.0008	0.003	86.9
0	-0.0008	0.0007	0.0015	87
-0.0015	-0.0015	0.0007	0.0007	87.1
0.0007	-0.0008	0	0.0007	87
-0.0008	-0.0008	0	0.0015	87.1
-0.0015	-0.0008	-0.0008	-0.0008	87.1
-0.003	0	-0.0008	-0.0008	86.9
-0.003	-0.0008	-0.0008	0.0007	87
-0.003	0	0.0007	-0.0008	86.9
-0.0015	0.0037	0.0007	-0.0008	87.1
-0.0015	0.0045	0.0015	-0.0008	87.1
-0.003	0.003	0.0022	-0.0015	86.9
-0.0008	0.0015	0.0022	-0.0015	86.9
-0.0008	0	0.0022	-0.0015	87.1
-0.003	0.0015	0.0022	-0.0008	86.9
-0.0023	0.0007	0.003	0.0007	87.1
0.0007	-0.0015	0.0015	0.0007	86.9
0.0007	-0.0015	0.0007	-0.0008	87.1
-0.0008	-0.0023	0.0015	-0.0008	86.9
-0.0008	-0.0023	-0.0008	-0.0008	87.2
-0.0015	-0.0023	-0.0015	0.0007	87.1
0	-0.003	-0.0008	0.0007	87
0	-0.0015	-0.0008	0	87.1
-0.0008	-0.0008	-0.0008	-0.0008	87
0.0007	0.0007	0	-0.0023	87.1
-0.0008	0.0015	0.0007	-0.0015	87
0	0.0007	0.0007	-0.0008	87.1
-0.0008	0	-0.0008	-0.003	87.1
0.0015	0.0007	-0.0008	-0.0046	87.2
0.0007	0.0022	-0.0008	-0.0046	86.8
-0.0008	0.0015	-0.0008	-0.0023	87.2
-0.0008	0.0015	-0.0015	0.0007	86.9
-0.0015	0.003	-0.003	0.0015	87.1
-0.0008	0.003	0.0007	0.0022	86.9
-0.0038	0.0037	0.0015	0.0045	87.1
-0.0008	0.0045	0.003	0.0052	86.8
0.0015	0.003	0.0022	0.0052	87.1
0.0007	0.0015	0.003	0.0037	87.2
0.0007	0.0015	0.003	0.003	87
-0.0008	0.0015	0.0015	0.0022	87.2
-0.0008	0.0015	0.0015	0.0022	86.9
-0.0015	0.0015	0.0022	0.0015	87.2
-0.0008	0.0015	0.0015	0.0022	87.1
-0.0008	0.0015	0.0007	0.0007	87.2
-0.0008	0.0015	0.0007	0.0015	86.9
0	-0.0008	0.0007	0.0015	86.9
-0.0023	-0.0023	0.0007	0.0007	87.1
0.0007	-0.0023	0.0007	0.0015	87.2
0.0015	-0.0015	0.0007	0.0007	86.9
0.0015	-0.0038	0.0007	0.0015	87
0.003	-0.003	-0.0008	0.003	87.2
0.0015	0	0.0015	0.003	87
0.0015	-0.0015	0	0.0015	86.9
0	-0.0015	-0.0008	0	86.9
0.0007	0	-0.0015	0.0007	87.1
0	-0.0008	-0.0008	0.0015	87
-0.0015	0.0007	0	0.0015	87
0.0007	0	0.0007	0.003	87
0.0007	0.0007	0.0015	0.0022	87.1
0.0015	0.0015	0.0007	0.003	87
0.0007	0.003	0.0007	0.003	86.9
-0.0008	0.003	0.0015	0.003	87
0	0.0007	0.0007	0.003	86.9
-0.0008	0.0007	0	0.0022	87.1
-0.0023	0.0007	0.0015	0.003	86.9
-0.0015	0.0015	0.0015	0.0022	87
-0.0008	0.0015	0.0007	0.0045	86.9
-0.003	0.0022	-0.0008	0.003	87.1
-0.0015	0.0015	-0.0008	0.0015	87
0.0007	0.0007	-0.0008	0	87
-0.003	0.0022	0	0.0007	86.9
-0.0015	0.0015	0.0007	0	86.9
0	0.0015	0.0007	-0.0008	86.9
0.0007	0.003	-0.0008	-0.0015	86.9
0	0.0015	-0.0015	-0.0015	87.1
-0.0023	0.0007	-0.0015	-0.0008	86.9
-0.0008	0.0007	-0.0015	-0.0008	87.2
0	0.0015	-0.0015	-0.0008	87
0	0.0007	-0.0046	0.0007	87
0.0007	-0.0008	-0.0038	0.0007	86.9
-0.0023	-0.0023	-0.0023	0.0007	87.2
-0.0023	-0.003	-0.003	-0.0008	87
-0.0008	-0.0038	-0.0038	-0.0015	87.4
-0.0015	-0.0046	-0.003	-0.0015	87
0	-0.0046	-0.0015	-0.0015	87
0	-0.0038	-0.0008	-0.0023	87
-0.0023	-0.003	0	-0.0015	86.9
-0.0038	-0.0015	0.0007	-0.0015	87.1
-0.0008	-0.0008	0	-0.0008	86.9
0	-0.0015	-0.0008	0	87.1
-0.0008	0.0007	0.0007	0	86.9
-0.0008	0.0007	0.0022	0	87.2
-0.0015	-0.0015	0.003	0	86.9
-0.0008	-0.003	0.003	-0.0008	87.2
-0.0008	-0.0023	0.0022	-0.0008	86.9
-0.0015	-0.0015	0.003	0.0015	87.2
0	-0.0015	0.003	0.0015	86.9
0.0015	-0.0015	0.0037	0.0007	87.1
0.0015	-0.003	0.003	0.0007	86.9
0.003	-0.0008	0.0022	0.0022	87
0.003	0.0015	0.0022	0.003	87
0	0.0015	0.0022	0.0037	87.2
-0.0008	0.0015	0.0015	0.0045	87.1
0	0.0007	0.0007	0.003	87.1
0.0007	0.0022	0	0.003	87.1
0.0007	0.003	-0.0008	0.0022	86.9
0	0.0037	-0.0008	0.003	87.1
0.0007	0.0015	0	0.0015	87
0.0022	0	-0.0008	0	87
0.0007	0.0007	-0.0015	-0.0015	86.9
0.0015	0	-0.003	-0.0008	87
-0.0008	0.0007	-0.0046	-0.0015	87.1
0	0.0022	-0.0046	-0.0015	87.2
0.0007	0.0015	-0.0038	-0.003	87
0	0.0015	-0.003	-0.0015	86.9
0.0015	0.0015	-0.0015	-0.0008	87.1
0.0015	-0.0008	-0.0023	-0.0015	86.9
0	-0.0023	0	-0.0023	86.9
-0.0008	-0.0008	0.0007	-0.0015	86.9
0.0022	-0.0015	0.0015	-0.0008	87.1
0	-0.0015	-0.0008	-0.0015	87
-0.0023	-0.0015	-0.0008	-0.003	87.2
-0.0015	0	0.0007	-0.0015	86.9
-0.0008	0.0015	0.0007	-0.0023	86.9
-0.0008	0.0007	0.0015	-0.0008	87
-0.0015	0.0015	0.0007	0.0007	86.9
-0.0038	0.003	0	-0.0008	87.1
-0.0053	0.003	-0.0008	0.0007	87
-0.0053	0.003	-0.0015	0.0007	87.2
-0.0038	0.0045	-0.0008	0	87
-0.0015	0.0052	0.0007	0.0015	87.1
-0.003	0.0045	0	0.0007	86.9
-0.0038	0.0045	-0.0008	0.0015	87.1
-0.0015	0.0052	-0.0015	0.0015	86.9
-0.0008	0.003	-0.0015	0.0022	86.9
0.0007	0.0007	0	0.0022	87
0.0022	-0.0008	0	0.0007	86.9
0.0007	-0.0008	-0.0008	0	87.1
0	0.0007	0.0007	0.0015	86.9
0.0007	-0.0008	0	0.0015	87
0	0.0007	-0.0008	0.0015	87
0.0007	0.0015	-0.0008	0.0015	87.1
0.0007	0.0015	-0.0008	-0.0008	87
0	0.0007	-0.0008	-0.003	87.1
0.0007	0.0007	-0.0008	-0.0015	87
0.0015	-0.0008	-0.0015	-0.0015	87
0.0007	-0.0015	0.0007	-0.003	87
-0.0008	-0.0008	0.0015	0	87.1
-0.0008	-0.0023	0.003	0.0007	87
-0.0008	-0.0038	0.003	0.0007	87.1
-0.0015	-0.0038	0.0045	0.0015	87
0	-0.0015	0.0045	0.0015	87.1
0.0007	-0.0008	0.0022	0.003	87.1
-0.0008	-0.0008	0.003	0.0037	86.9
0	0	0.0022	0.0045	87
0.0007	0.0007	0.0015	0.0015	87
-0.0008	0.0015	0.0015	0.0015	87
-0.0015	0.0015	-0.0008	0.0015	86.9
0	0.0015	0	0	86.9
-0.0008	0.0007	-0.0008	-0.0008	86.9
-0.0008	0.0015	0.0007	-0.0008	86.9
0.0007	0.0007	0.0022	-0.0008	87.1
0.0007	-0.0008	0.003	0.0007	87.1
-0.003	-0.0015	0.0015	0.0007	87.1
-0.0023	-0.0015	0.0007	0.0007	87
0.0015	-0.0023	0.0007	0.0015	87
0.0015	-0.0008	0.0007	0.0007	87
-0.0008	-0.003	0	0.0007	86.8
0.0007	-0.003	-0.0008	0.0015	87.2
0.0007	-0.0015	-0.0008	0	86.9
-0.0008	-0.003	-0.0008	-0.0015	87.1
0.0007	-0.003	-0.0015	-0.0023	86.9
0.0007	-0.0046	-0.0008	-0.0023	87.2
0.0007	-0.0038	-0.0008	-0.0023	86.9
-0.0008	-0.0015	-0.0008	-0.0038	87.2
-0.0008	-0.0008	0	-0.0046	87
-0.0015	-0.0008	0.0007	-0.003	87.1
-0.003	-0.0008	0.0007	-0.0038	86.9
-0.0008	0.0007	-0.0008	-0.0046	87
-0.0008	0.0007	-0.0008	-0.0046	87
-0.003	-0.0015	-0.0023	-0.003	87
-0.003	-0.0008	-0.003	-0.0008	87.1
-0.0015	0	-0.0023	-0.0008	87.2
-0.0015	0.0015	-0.0015	-0.0008	87.1
0	0.003	-0.0015	-0.0008	87
0	0.003	-0.0015	-0.0008	87.2
-0.0008	0.003	-0.0008	0	86.9
-0.0008	0.0022	0.0007	0.0007	87.2
-0.0023	0.003	0.0015	0.0007	87
-0.0015	0.0022	0.0007	0.0007	87
-0.0008	0.0022	0.0007	0.0015	87.1
0	0.0015	0	0.0007	87.2
0.0007	0.0007	-0.0008	0.0007	87
-0.0023	0.0007	-0.0015	-0.0008	86.9
-0.0023	0.0007	0.0007	-0.0015	87.1
-0.0008	0.0015	-0.0008	0	86.9
-0.0015	0.0007	-0.0008	0.0015	87
0.0015	0	0.0007	0.0015	87.1
0.0022	0.0007	-0.0008	0.0007	86.9
0.0007	0.0015	0.0015	0.0022	87.1
0.0007	0.0015	0.0015	0.0015	87.1
0.0007	0.0007	0.0015	0.0022	87.2
0.0007	0.0007	0.0015	0.0045	86.9
-0.0008	0	0.0015	0.0037	87.2
-0.0008	0.0015	0.0022	0.0045	86.8
0.0007	0.0022	0.0015	0.0045	87.2
0.0015	0.0007	0.0015	0.0052	86.9
-0.0008	0.0007	0.0007	0.0045	87.2
-0.0015	0	0.0007	0.0037	86.9
0.0015	0.0015	0.0015	0.0037	87
0.0015	0.003	0	0.0015	87
-0.0008	0.0007	-0.0015	0.003	87.2
-0.0008	0.0015	-0.0008	0.003	87
0	0.0015	-0.0015	0.0015	87
0	0.0007	-0.0015	0.0015	87.1
0.0015	0.0007	-0.0015	0.0015	87
0.0022	-0.0015	-0.0015	0.0037	87.3
0.0007	0	0	0.0022	86.9
-0.0008	-0.0008	0.0007	0	87.1
-0.0008	-0.0008	0.0007	0.0007	86.9
0	-0.0008	-0.0008	0	87
0.0007	-0.0015	0	0	86.9
0.0015	0.0007	0	-0.0015	87.1
0.0007	0.0015	-0.003	-0.0008	86.9
0.0007	0.003	-0.0015	-0.0008	87.1
-0.0008	0.003	-0.003	-0.0008	87
-0.0008	0.0037	-0.0015	-0.0008	87
-0.0008	0.003	-0.0008	-0.0015	87.1
-0.0015	0.0022	0.0007	-0.0008	86.9
0	0.003	0.0015	-0.0015	87
-0.0008	0.0015	0.0015	-0.0008	86.9
-0.0008	0.0037	0.0022	0.0007	86.9
-0.0008	0.0022	0.0015	0.0007	87.1
-0.0008	0.0007	0.0007	0	87
-0.0015	0.0015	0.0007	-0.0008	87
0	0	0.0007	-0.0015	87.1
-0.0015	-0.0023	0.0007	-0.0008	87
-0.0008	-0.0046	0.0015	-0.0008	86.9
0.0007	-0.0046	0.0015	-0.0015	87
-0.003	-0.003	0.0007	-0.0015	86.9
-0.0008	-0.0008	-0.0008	-0.0015	87.2
-0.0023	0.0015	-0.0023	0	87
-0.0038	0.0022	-0.0015	-0.0008	87.1
-0.0015	0.0007	-0.0015	0.0007	87
-0.0008	-0.0015	-0.0008	0.0007	86.9
-0.0015	-0.0015	0.0007	0	86.9
-0.003	-0.0015	0.0007	0.0007	87
-0.0023	-0.0023	0.0015	-0.0008	87
-0.0008	-0.0023	-0.0008	-0.0008	86.9
0	-0.0015	-0.0008	-0.0008	87.1
-0.0023	-0.0008	-0.0008	-0.0015	86.8
0	-0.0008	0.0007	-0.0023	87
0.0007	-0.0008	0.0015	0	86.9
0.0007	0	-0.0008	0	87.2
0	0	-0.0015	0	87.1
-0.0008	-0.0008	-0.0015	0.0015	87
0.0007	-0.0008	-0.0015	0.0015	86.9
-0.0008	-0.0015	-0.0008	0.0007	87
-0.0008	-0.0015	0	0.0007	87
0.0015	0	-0.0008	0.0015	87
-0.0008	0	-0.0008	0.003	87
-0.0008	0.0007	0.0015	0.003	87
0	0	0.0007	0.0022	87
0.0015	0.0007	0.0007	0.0007	87.1
-0.0015	0.0007	0.0015	0	87
-0.003	0.0007	0.0007	-0.0015	87
-0.0008	0.0007	0.0007	-0.0023	86.9
0.0015	0	-0.0008	-0.0038	87
0.003	0.0007	0.0015	-0.003	86.8
0.003	0	0.0007	-0.0053	87.1
0.0022	0.0007	0.0015	-0.0053	86.8
0	0.0022	0.0015	-0.0015	87.2
-0.0008	0.0022	0.0007	-0.0015	86.9
-0.0008	0.0022	0.0015	-0.0008	86.9
0	0.0037	0.0007	0.0007	87
-0.0008	0.003	0.0007	-0.0008	87.1
-0.0015	0.0015	0.0015	0	87
-0.0023	-0.0008	0	0.0015	87
0	0	-0.0008	0.0022	87.1
-0.0008	-0.0008	-0.0008	0.0022	86.9
-0.0015	-0.003	-0.0008	0.003	87
0.0007	-0.003	-0.0008	0.0007	86.9
-0.0008	-0.0046	0	0.0015	87.3
-0.0008	-0.0038	0.0007	0.003	86.9
0.0007	-0.0038	0	0.003	87.1
-0.0008	-0.0046	0	0.003	86.9
-0.0015	-0.0038	-0.0008	0.0022	87.1
-0.0008	-0.003	0.0007	0.0015	87.1
-0.0015	-0.0023	0.0007	0.003	86.9
-0.0015	-0.0015	-0.0008	0.0015	87
-0.0015	-0.0015	-0.0015	0.0015	87
-0.0015	-0.0015	-0.0015	0.0015	87
-0.0008	-0.0015	-0.0015	0	87
-0.0015	-0.0023	-0.0023	-0.0008	87.1
-0.0015	-0.0008	-0.0023	0	87
-0.0015	-0.0015	-0.003	0	86.9
0	-0.003	-0.0023	-0.0008	87
-0.0015	-0.0015	0	-0.0008	87
-0.0015	-0.0008	0.0007	-0.0008	87.1
-0.0008	0.0007	0.0007	0	87.1
-0.0008	0.003	-0.0008	0	87.1
0.0007	0.0037	-0.0008	0.0015	86.8
-0.0008	0.0052	0	-0.0008	87.1
-0.0008	0.0075	0.0007	-0.0008	86.9
-0.0008	0.0082	0	-0.0008	87.2
0.0022	0.009	0	-0.0008	86.9
0.0015	0.0067	0.0007	-0.0008	87.1
0	0.0067	-0.0008	-0.0008	86.9
0.0007	0.0045	-0.0008	-0.0008	87.2
0.0015	0.0045	-0.0015	0	87.1
0.0022	0.003	-0.003	0.0007	86.9
0.0015	0.0015	-0.003	0.0007	87
-0.0015	0.0022	-0.0023	0.0007	86.9
-0.0008	0.0045	-0.003	0.0015	87.2
0	0.0045	-0.0008	0.003	86.9
0	0.0045	-0.0008	0.0022	87.2
0.0007	0.003	-0.0008	0.0022	86.9
-0.0023	0.0015	0.0007	0.0007	87.1
-0.0008	0.0015	-0.0008	0	87
0.0007	-0.0008	0.0015	0.0022	87.2
0	-0.0015	0.0015	0.0015	86.9
-0.0008	-0.0015	0.0007	-0.0008	87.1
-0.0015	-0.0023	0.0007	-0.0008	87
-0.0008	-0.0023	0.0015	-0.0008	86.9
-0.0008	-0.0038	0.003	0	86.9
-0.0023	-0.0038	0.0007	-0.0008	87
-0.0015	-0.0023	0	-0.0015	87
0	-0.0015	0.0007	-0.0008	87
0.0007	-0.0023	0.0015	0.0007	87
-0.0008	-0.0015	0.0022	0.0007	87
0.0007	-0.0015	0.0015	-0.0008	87.1
-0.0015	-0.003	0.0007	0	87.1
-0.0015	-0.0015	0.003	-0.0008	87
0.0007	-0.0008	0.0022	-0.0008	86.9
0.0007	-0.0008	0.0007	-0.0015	87
0.0007	-0.0008	0.003	-0.003	87.1
-0.0015	0	0.003	-0.0015	86.9
-0.0015	0.0007	0.0015	0	87.1
0.0007	0.0022	0.003	0	86.8
0	0.0015	0.003	-0.0008	87
-0.0008	0	0.003	0.0007	87
-0.0008	-0.0008	0.0015	0.003	87
-0.0008	-0.0015	0.0007	0.0015	87
-0.0008	-0.003	0.0015	0.0022	87
0	-0.0015	0.0015	0.0022	87.2
-0.0008	-0.0008	0.0015	0.0022	86.8
-0.0008	-0.0015	0	0.0015	87.1
-0.0008	-0.0008	-0.0015	0	86.9
-0.0008	-0.0015	-0.0015	-0.0015	87.1
0.0007	-0.0023	-0.0008	0	86.9
0	-0.0015	-0.0008	0.0015	87
-0.0008	-0.0023	-0.0023	0.0022	86.9
-0.0008	-0.0023	-0.0008	0.0007	87
-0.003	0.0007	-0.0008	0	87
-0.0015	0.0007	-0.0008	0.0015	87
0.0015	0.003	0.0007	-0.0008	87
-0.0008	0.0037	0.0007	-0.0015	86.9
-0.0015	0.0022	-0.0015	-0.0008	87.1
-0.0015	0.0037	-0.003	-0.0015	87
-0.0008	0.003	-0.0015	-0.0015	86.9
0.0007	0.003	-0.0008	-0.0015	86.9
0.0007	0.0015	-0.0008	-0.0015	87
-0.0008	0.0015	0	-0.0008	87.1
-0.0015	0.0015	-0.0008	0	87
0	0.0007	0	-0.0008	87.1
0.0007	0.0007	0.0007	-0.0008	87
0.0007	0.0007	0.0007	0	86.9
-0.0015	0.0015	0.0015	0.0007	86.8
-0.0008	0.0015	0.0007	0.0007	87
-0.0008	0.0015	0.0007	-0.0008	86.9
-0.0015	0.003	0.0007	0	87
-0.0015	0.003	0	-0.0008	86.9
0	0.003	-0.0008	-0.0015	87
0.0007	0.0037	-0.0023	-0.0015	87
-0.0015	0.0037	-0.003	-0.0023	87.2
-0.0015	0.003	-0.0015	-0.0023	87.1
-0.003	0.0022	-0.003	-0.003	87
-0.0015	0.0015	-0.0046	-0.003	87.1
0.0007	0.0015	-0.003	-0.0008	86.9
-0.0008	0.0015	-0.0023	0	87.2
-0.0008	0.0007	-0.0015	0	86.9
0	0	-0.0008	-0.0008	87.2
0	-0.003	-0.0015	-0.0015	86.9
-0.0008	-0.0046	-0.0008	0	87.2
0.0007	-0.003	0.0007	-0.0008	86.9
-0.0015	-0.0038	0.0015	-0.0008	87.1
-0.0015	-0.0046	0.0007	-0.0015	86.9
-0.0008	-0.0038	0.0007	-0.0008	87
0	-0.0038	0.0015	-0.0008	86.9
-0.0008	-0.0038	0.0015	-0.0008	87.1
-0.0008	-0.003	0.0015	0.0022	86.9
0.0007	-0.003	0.0007	0.0015	87.1
0	-0.0015	0.0007	0.0015	87.1
-0.0008	-0.0015	0.0015	0.0045	86.9
-0.0015	-0.0008	0.0007	0.0045	87.1
-0.0015	0.0007	0.0007	0.0052	86.9
-0.0015	0.0015	0.0022	0.0052	87
-0.0015	0.0022	0.003	0.0037	87.1
-0.0008	0.003	0.0022	0.0037	87.2
0.0007	0.0037	0.0015	0.0037	87.1
-0.0008	0.0022	0.0007	0.0045	87
0	0.0015	-0.0008	0.0052	87.1
0.0007	0.0015	-0.0015	0.0052	86.8
0	0.0015	-0.0008	0.0045	87.2
0.0007	-0.0015	-0.0015	0.003	87.1
-0.0008	-0.0008	-0.0008	0.0015	87
-0.0015	0	0.0015	0	87
0	-0.0008	0	0.0007	87
0.003	-0.0008	0	0.0022	87.1
0.0015	-0.0015	-0.0008	0.003	87
0.0007	-0.0015	0.0007	0.0022	87
0	-0.003	0.0015	0.0022	86.9
0.0007	-0.003	0.0015	0.0007	87
0.0015	-0.0023	0.0015	0	86.9
-0.0008	-0.0023	0.0022	0.0007	87.2
0.0015	-0.0015	0.0015	0	86.9
0.0022	-0.0015	0.0007	-0.0008	87.2
0.0007	-0.0008	0	-0.003	86.9
0.0007	-0.0015	0.0007	-0.003	87.1
-0.0015	-0.0023	0.003	-0.0038	86.9
-0.0008	-0.0008	0.0015	-0.003	87.1
-0.0015	-0.0008	0.0007	-0.003	87.1
-0.003	-0.0015	-0.0008	-0.0023	86.9
-0.0008	-0.0008	-0.0008	-0.0023	87
-0.0008	0.0007	-0.0015	-0.0023	86.9
-0.0015	0.0022	-0.0008	0.0007	87.1
-0.0015	0.003	-0.0008	-0.0008	87
-0.0008	0.0015	-0.0008	0.0007	87.1
-0.0015	0.0015	-0.0023	0.0007	86.9
-0.0015	0.0015	-0.0023	-0.0008	87.1
0	0.0022	-0.003	-0.0008	86.9
0.0007	0.0015	-0.0038	0.0015	87
0.0015	0.0007	-0.0015	0.003	87.1
0.0022	0	-0.0015	0.0007	87
0.0007	0.0007	-0.0008	0	87.1
-0.0008	0	-0.0015	0.0007	87.1
-0.0015	-0.0015	-0.0015	0.003	86.9
-0.0015	0.0015	-0.0008	0.003	87
0.0007	0.003	-0.0008	0.0015	86.8
0.0015	0.0045	-0.0015	0.003	87
-0.0008	0.0037	-0.0023	0.0015	87.1
0	0.003	-0.0008	0.0015	86.9
0.003	0.0045	0.0007	0.0007	87.1
0.0015	0.003	0.0015	0.0007	87
-0.0008	0.0045	0.003	0.0007	86.9
0	0.0037	0.0015	-0.0015	86.9
-0.0015	0.0022	0.0015	-0.0008	86.9
-0.003	0.0022	0.003	0.0007	87.1
-0.003	0.003	0.0015	-0.0008	86.9
-0.0015	0.0022	0.0045	-0.0015	87
-0.0008	0.003	0.003	-0.0023	86.9
-0.0015	0.0022	0.0022	-0.0015	86.9
-0.0015	0.0015	0.0045	-0.0038	87
-0.0023	0.003	0.003	-0.0038	87.1
-0.0015	0.0015	0.003	-0.0015	87.1
-0.0015	-0.0015	0.003	-0.0015	87
-0.0008	-0.003	0.0022	-0.0015	87.2
-0.0015	-0.0053	0.0022	-0.0015	86.9
-0.0023	-0.006	0.0015	-0.0053	87.1
-0.003	-0.0053	0.0007	-0.0046	87
-0.0008	-0.006	-0.0008	-0.0015	87.1
0.0007	-0.006	-0.0008	-0.0008	86.9
-0.0015	-0.0046	0	0.0015	87.2
-0.0008	-0.0053	-0.0008	0.0007	87
0	-0.003	-0.0023	-0.0008	87
0	-0.0023	-0.0023	-0.0008	87.1
0.0015	-0.0023	-0.0008	0.0007	86.9
0.0007	-0.0008	-0.0008	0.0007	87.1
0	0	-0.0023	0.0007	87.1
0	0.0007	-0.0038	0.0007	87.1
-0.0008	0.003	-0.0023	0	87
0.0015	0.0045	-0.0008	0.0015	86.9
0.0015	0.003	-0.0015	0.003	87
0.0007	0.0045	-0.0008	0.003	87
0.0007	0.0037	-0.0008	0.0037	87
-0.0008	0.0015	-0.0023	0.0037	87
0	0.0007	-0.003	0.0045	87
0.0007	0.0007	-0.0023	0.0052	87
0.0007	0	-0.0015	0.0045	87.2
-0.0008	0	-0.0008	0.0052	86.9
-0.0023	0.0007	-0.0015	0.0052	87.1
0.0007	0	-0.0023	0.0052	86.9
0.0007	0.0015	0	0.0052	87
-0.0015	0.003	-0.0015	0.0045	86.9
-0.0008	0.003	-0.0008	0.0052	87
-0.0008	0.0022	-0.0015	0.0037	87
0.0007	0.003	-0.0015	0.0037	87.1
0.0007	0.003	-0.0008	0.003	87
-0.0008	0.0022	-0.0015	0.0015	86.9
-0.0008	0.0015	-0.0015	0	87
-0.0015	0.003	-0.0008	-0.0023	86.9
-0.0015	0.003	-0.0008	-0.0015	87.2
-0.0015	0.003	-0.0015	-0.003	86.9
-0.0015	0.003	0.0007	-0.003	87
-0.0008	0.0022	0.0007	-0.0023	87
0	0.0022	0.0007	-0.003	86.9
-0.0015	0.0015	0.0015	-0.0046	87
-0.0023	0.0022	0.0015	-0.0046	86.9
-0.0015	0.0022	0.0015	-0.0038	87.2
-0.0008	0.0022	0.0015	-0.003	86.9
0.0015	0.003	0.0007	-0.003	86.9
0.0007	0.0015	0.0015	-0.0023	87
-0.0008	0.0007	0.0037	-0.0015	87
-0.0008	0.0007	0.0015	-0.0015	87
-0.0008	0.0007	0.0015	0.0007	87
0	0	0.0015	0.0007	87.2
0.0007	0.0007	0.0007	0.0015	86.9
0.0015	-0.0008	0.0007	0.0015	87.1
0.0007	-0.0015	0.0007	0.0015	87
-0.0008	-0.0015	0.0015	0.0015	87
0.0007	-0.0023	0.0015	0.0007	86.9
0.0015	-0.003	0.0007	0.0007	87
0.0007	-0.0015	-0.0015	0.0007	86.9
-0.0008	-0.0008	-0.0015	0.0007	87.1
-0.0008	0.0015	0.0007	0.0007	86.9
-0.0008	0.003	0	0.0007	87.1
-0.0008	0.0022	0	0.0007	86.9
0.0007	0.0007	0.0007	-0.0008	87
0.0007	-0.0015	0.0015	-0.0008	87.1
-0.0015	-0.0023	0.0015	-0.0008	86.9
-0.0015	-0.003	-0.0008	0	87.1
-0.0015	-0.0038	0	0.0007	86.9
-0.0008	-0.0046	0.0015	0	87.2
0	-0.003	-0.0008	-0.0008	86.9
-0.0008	-0.0008	-0.0008	-0.0008	87.2
-0.0015	-0.0008	-0.0023	-0.0008	86.9
-0.0015	-0.0015	-0.0023	0	86.9
-0.0008	-0.0008	-0.0015	0	86.9
0	0.0007	-0.0023	0.0007	87.2
0.0007	0.0007	-0.0008	0.0015	86.8
-0.0023	0.0007	0	0	87
-0.003	0	0	-0.0008	87.2
-0.0008	-0.0023	0	0	87.2
-0.0015	-0.0008	0	0.0007	87
-0.0008	0.0007	0.0015	0.0015	87
-0.0015	-0.0008	0.0015	-0.0008	87.1
-0.0008	0.0007	0	-0.003	86.9
-0.0008	0.0015	0	-0.003	87.1
-0.0008	0.0007	0.0007	-0.003	86.9
-0.0008	0.0007	-0.0008	-0.0023	87.1
0	0.0007	0.0007	-0.0015	86.9
0.0007	0.0015	-0.0008	-0.0008	87.1
0	0.0015	-0.0008	-0.0008	86.9
-0.0008	0.0015	-0.0015	0.0007	87
-0.0008	0	-0.0015	0	87
-0.0008	0	0.0015	0.0015	87
-0.003	0	0	0.0015	86.9
-0.0008	-0.0008	-0.0008	0.0015	87.1
-0.0023	0.0007	-0.0008	0.0007	86.9
-0.0015	-0.0008	-0.0015	0	87.1
-0.0008	-0.0015	-0.0008	0.0007	86.9
-0.0015	-0.0008	0.0007	0.0007	87
-0.0008	-0.0008	0.0015	0.0015	87
0	0	0.0022	0.0007	86.9
-0.0008	0	0.0022	0.0007	86.9
-0.003	-0.0008	0.0022	-0.0008	86.9
-0.0008	-0.0008	0.0015	-0.0008	87
0.0015	0	0.0015	-0.0015	87.1
0.0015	0.0015	0	-0.0015	87
0.0007	0	-0.0008	-0.0015	87
0.0015	-0.0015	0.0007	-0.0015	87
0.0015	-0.0008	0.0007	-0.0015	87
0.0007	0.0015	0.0015	-0.0015	86.9
0.0007	-0.0008	0.0022	0.0007	87.1
0.0015	0	0.003	0.003	87
0.0007	-0.0008	0.003	0.0045	86.9
-0.0008	-0.0008	0.0007	0.0052	87
-0.0008	-0.0008	-0.0008	0.0045	87.1
-0.0015	-0.0008	-0.0008	0.003	87
0.0007	-0.0008	-0.0008	0.0045	87
-0.0008	-0.0008	-0.0008	0.0052	87
-0.003	-0.0015	-0.0008	0.0037	86.9
-0.0015	-0.0015	-0.0008	0.0015	87.1
-0.0015	-0.0023	-0.0008	0.003	86.9
-0.0023	-0.0015	0	0.0045	87.1
-0.0015	-0.0015	-0.0008	0.003	87
-0.0008	-0.0015	0.0007	0.003	87
-0.0015	-0.0008	-0.0008	0.003	86.9
-0.0023	-0.0015	-0.0008	0.0022	87
-0.0015	0.0007	-0.0008	0.003	86.8
-0.0008	0.0007	-0.0008	0.0007	86.9
-0.0008	0.0015	-0.0008	0.0007	86.9
0	0.0045	-0.0008	0.0007	87
-0.0008	0.0045	0	0	86.9
-0.0008	0.0045	0.0007	0.0015	86.9
-0.0008	0.0037	-0.0008	0.0015	87.1
-0.0008	0.003	0.0007	0.0007	86.9
0.0007	0.003	0.0015	0.0007	87
0.0007	0.003	0.0007	0	87
0	0.003	-0.0008	0	87
-0.0008	0.003	0	-0.0008	87
0.0007	0.0015	-0.0008	-0.0015	87.1
0.0007	0.0007	-0.0023	-0.0015	87
-0.0008	0.0015	-0.0023	-0.0023	87
0.0007	0.0015	-0.0015	-0.0008	87.1
-0.0008	0.0015	-0.0015	0.0007	86.8
-0.0008	0.0015	-0.0008	0.0015	87
0.003	0.0022	0.0015	0.0015	86.9
0.0015	0.0015	0.0022	0.0007	86.8
0.003	0.0015	0.003	0.003	86.9
0.0015	0.0007	0.0037	0.0015	87
0.0007	0.0007	0.0037	-0.0008	87
0	0.0015	0.0037	0.0007	87.1
0	0.0007	0.0037	-0.0008	87
0.003	0.0007	0.003	0.0007	86.9
0.003	0.0022	0.0015	0.0007	87.1
0.0007	0.0015	0.003	-0.0008	86.8
-0.0008	-0.0008	0.0007	-0.0008	87.2
0.0015	0	0.0022	-0.0008	86.9
0	-0.0015	0.0022	-0.0015	87.1
-0.0015	-0.003	0	-0.0008	86.8
0.0007	-0.0023	-0.0008	-0.0008	87.2
0.0015	-0.0038	-0.0008	-0.0008	86.9
0.0007	-0.003	0	-0.0008	87
0.003	-0.003	-0.0008	-0.0008	87
0.0015	-0.003	-0.0015	-0.0015	86.9
0.0007	-0.003	-0.0015	-0.0015	87.2
0	-0.0023	-0.003	-0.0015	87
-0.0008	-0.0023	-0.003	-0.0023	87.2
0.0007	-0.0023	-0.0015	-0.0023	87
-0.0015	-0.0008	-0.003	-0.0015	87.1
-0.0008	-0.0015	-0.0023	-0.0008	86.8
0.0007	-0.0008	-0.0015	-0.0015	87.1
-0.0015	-0.0008	-0.0015	-0.0023	87
-0.0015	-0.0008	0.0007	-0.003	87.1
-0.0015	-0.0008	0.0015	-0.0008	86.9
-0.003	-0.0008	-0.0008	-0.0008	86.9
-0.0038	0	0.0007	-0.0015	87
-0.0015	0.0007	0.0007	0	87.1
-0.003	0.0007	0.0007	0	87
-0.0015	0.0007	0.0015	0	86.8
0	0.0015	0.0007	0.0007	87
0.0015	0.0015	0.0007	0.0022	87
0.0007	0.0015	-0.0008	0.0015	87.1
0.0022	0.003	-0.0008	0.0007	86.9
0.0007	0.0022	0	0.0015	87
-0.003	0.0015	0.0015	0.0015	86.8
-0.0023	0.0007	0.0015	0.0015	87
-0.0023	0.0007	-0.0008	0.0015	87.1
-0.0015	0.0007	0	0.0022	87
0	0.0007	-0.0008	0.0015	86.9
-0.003	-0.0008	0.0007	0.0022	86.9
-0.0015	-0.0008	0	0.003	87.1
-0.0015	0.0007	0	0.0015	86.9
0	0.0015	0.0007	-0.0008	86.9
-0.0008	0.0037	0	-0.0015	87.1
-0.0015	0.0015	-0.0008	-0.0023	86.9
-0.0023	0.0007	-0.0008	-0.0015	87.1
-0.003	0.0007	-0.0015	-0.0015	86.9
-0.0015	-0.0015	-0.0015	-0.0008	87.1
-0.003	0.0007	-0.0015	0.0015	87
-0.0008	-0.0015	-0.0008	0.0015	87.1
0.0015	-0.0038	-0.0023	0	87
-0.0008	-0.0038	-0.0046	-0.0008	87.1
-0.0008	-0.0038	-0.003	-0.0008	86.9
0.0007	-0.0008	-0.0015	-0.0015	87.1
0.0015	0	-0.0008	-0.0015	86.8
0	0.0007	-0.0008	-0.003	87.1
-0.0008	0.0022	-0.0008	-0.0015	87
0.0007	0.0015	-0.0008	0	87.1
0.0022	0.0022	-0.0015	-0.0015	87.1
0.0015	0.003	0.0007	-0.0023	86.9
-0.0008	0.003	0.0007	-0.0008	87.1
0	0.0022	0.0015	-0.0015	87.1
0.0007	0.0015	0.0007	-0.0008	87.1
-0.0008	0.0022	0	-0.0008	86.9
-0.0008	0.0007	0	-0.0008	87.1
-0.0008	-0.0008	0.0007	-0.0008	86.8
-0.0015	0	-0.0015	0.0015	87.2
-0.0015	0.0007	-0.0008	0.0022	86.9
-0.0008	0.003	0.0007	0.0007	87.2
-0.0015	0.0045	0	0.0015	86.8
-0.0015	0.003	0.0007	0.0022	87.2
0	0.0037	-0.0008	0	86.9
-0.0008	0.0037	0.0007	-0.0008	87.1
0.0022	0.0037	0.0007	0	86.9
0.0007	0.0045	-0.0008	0.0007	87
-0.0023	0.0037	0.0007	0.0007	86.9
0.0007	0.003	0.003	0.003	87.1
-0.0015	0.0037	0.0015	0.0015	87
-0.0008	0.003	0.0022	0.0022	86.7
0	0.0007	0.0037	0.0022	87.1
-0.0015	0.0007	0.003	0.003	86.8
0.0007	0.0022	0.0015	0.0022	87.1
0.0015	0.0015	0.0015	0	86.9
0.003	0	0.0015	0.0015	87
0.0007	-0.0008	0.0015	0.003	86.9
-0.0015	-0.0008	0.0015	0.0015	87
-0.0008	-0.0015	0.0007	0.0015	87
-0.0008	-0.0008	0	0.0015	87
-0.0008	0.0007	0	0.0007	86.9
-0.0008	-0.0008	0	-0.0008	87
0.0007	-0.0008	0.0015	0	87
0.0015	-0.0008	0.0015	0.0007	86.9
0	0.0015	0.003	0.0007	87
-0.0015	0.0007	0.0015	0.0015	86.9
0.0007	0	0.0015	0.0015	87.2
0	0	0.0015	0.0015	86.9
-0.0015	-0.0015	0.0007	0.0007	87
0	-0.0015	0.0022	0.0007	86.9
-0.0023	-0.0015	0.0015	0.0007	87
-0.0008	-0.0008	0	0.0007	86.9
-0.0008	-0.0015	-0.0023	-0.0008	87.1
-0.0015	-0.0008	-0.003	-0.0008	87.1
-0.0008	0	-0.0015	0.0007	86.9
-0.0008	-0.0015	-0.0008	-0.0008	86.9
0.0007	-0.0023	-0.0008	-0.0008	86.9
-0.0008	-0.0023	-0.0008	-0.0015	87.1
-0.0015	-0.0015	-0.0015	-0.0015	87
-0.0015	-0.003	-0.0015	-0.0023	87.1
0	-0.0046	-0.0015	-0.003	86.9
0.0007	-0.0053	-0.0008	-0.0015	87.1
0	-0.0046	0	-0.0008	87.1
0.0022	-0.0046	-0.0008	0.0007	87.1
0.0007	-0.0053	-0.0023	0.0015	87.1
0.0007	-0.0053	-0.0023	0.0007	87
0	-0.0038	-0.0008	0.0022	86.9
-0.0015	-0.0015	-0.0008	0.0045	87.1
0	0	0	0.0045	87
0.0015	0.0007	0.0007	0.0045	87
0	0	0.0007	0.003	87
-0.0008	0	-0.0015	0.003	86.9
-0.0008	0.0007	-0.0008	0.0015	87.1
0	0.0015	-0.0008	0.0015	86.9
0.0007	0.0015	0.0007	-0.0008	86.9
0.0015	0.0022	0.0007	-0.0015	87
0.0007	0.0022	0.0007	-0.0015	87
0.0007	0.0015	0.0007	-0.003	87.1
-0.0008	0.003	0.0015	-0.0038	87
-0.003	0.0022	0.0015	-0.0046	87
-0.0023	0.0007	0.0015	-0.0046	86.9
-0.0015	0.0015	0.003	-0.0046	87
-0.0008	-0.0008	0.0015	-0.003	86.9
0.0007	0.0007	0.0015	-0.0023	87.2
0	0.0015	0.0007	-0.0015	86.9
0	0	0	-0.0015	87.2
0.0015	0.0015	-0.0008	-0.0015	86.9
0	0.003	0.0007	0.0007	87.1
-0.0008	0.0022	0.0015	0.0007	86.9
-0.0008	0.0022	0.0007	0	87.1
0.0022	0.0015	0	-0.0015	86.9
0.0022	0.0022	0.0022	-0.0008	87
-0.0015	0.0037	0.0015	0.0015	87
-0.0008	0.0045	0.0007	0.0007	86.9
-0.0008	0.0037	0.0007	0.0007	87.2
-0.0015	0.003	0	0.0007	87.2
0.0015	0.0022	0	0.0007	87.2
0	0.0015	0.0015	0.0022	86.9
-0.0008	0.0015	0.0015	0.0007	87.1
-0.0008	0.0015	0.0015	0.0015	87
-0.0008	0.0022	0.0007	0.0022	87
-0.0008	0.003	-0.0015	0.0015	87
0	0.0007	-0.0008	0.0015	86.9
-0.0015	0.0007	0	0.0022	87
0	-0.0008	0.0007	0.0037	86.9
-0.0008	-0.0015	-0.0008	0.003	87
-0.0008	-0.0008	-0.0008	0.003	87.1
0	-0.0008	-0.0008	0.003	86.9
-0.0015	-0.0008	-0.0015	0.0022	87
0	-0.0008	-0.0008	0.0007	87.1
0.0015	-0.003	-0.0008	0.0007	87.1
0.0007	-0.0038	-0.0015	0.0007	87
-0.0008	-0.0008	0	0.0022	87
-0.0008	-0.0015	0.0007	0.003	87
0.0022	-0.0008	-0.0008	0.0007	86.9
0.0015	-0.0008	-0.0008	0.0007	87
-0.0008	-0.0015	0	0.0007	87.1
-0.0015	0	-0.0015	0.0007	86.9
-0.0008	0.0007	-0.0015	0.0007	87.1
-0.0008	0.0007	-0.0015	-0.0008	86.9
-0.0008	-0.0008	-0.0015	-0.0015	87
-0.0008	-0.0008	-0.0008	-0.0015	86.8
-0.0023	0	-0.0015	0	86.9
0	-0.0008	-0.0008	-0.0008	86.9
-0.0008	-0.0015	-0.003	0	87
0.0007	-0.0008	-0.0015	-0.0008	87
0.0007	-0.0008	-0.0008	-0.0015	86.9
-0.0008	-0.0015	-0.0008	-0.0015	87
-0.0008	0	0.0007	-0.0015	86.8
-0.0008	-0.0008	0	-0.0008	87.1
-0.0008	-0.0015	-0.0008	0	86.8
-0.0008	-0.0008	0.0007	0.0015	87
0.0007	-0.0008	0.0015	0.0015	86.9
-0.0008	0	0.0037	0.0015	87.1
-0.0015	0.0015	0.0037	0.0015	86.9
0.0007	0.0007	0.0052	0.0015	87
0.0015	-0.0008	0.0037	0.0015	87.1
-0.0008	-0.0008	0.0022	0.0007	87
-0.0008	-0.0023	0.0015	0.0007	87
0	-0.003	-0.0008	0.0007	87
-0.0008	-0.0038	0	0	87
-0.0008	-0.0015	0	-0.0015	87
-0.003	-0.0008	0.0007	-0.0008	87.1
-0.0015	0.0007	-0.0008	-0.0015	86.9
-0.0008	0.0015	-0.0015	-0.003	87.1
-0.0008	0.0007	-0.0015	-0.0015	86.9
-0.0008	0	-0.0008	0.0007	87
-0.0008	0.0007	-0.0008	0.0015	86.9
-0.0008	0.0015	-0.0015	0.0007	86.9
-0.0015	0.0007	-0.0015	0	87.1
-0.0023	0.0015	-0.0015	0.0007	87
-0.0023	0.0037	-0.0015	-0.0015	87
-0.0015	0.003	-0.0023	0	86.9
-0.0015	0.003	-0.0015	0	87
-0.0008	0.0015	-0.003	0.0007	87
-0.0015	0.003	-0.0015	0.0007	87
-0.0015	0.0007	0.0007	0.0007	87
-0.0015	-0.0008	-0.0008	0.0015	86.9
-0.003	-0.0008	-0.0015	0.0007	87.2
0	-0.0008	0	0.0015	86.9
-0.0015	0.0007	-0.0008	0.0007	87.2
-0.0015	0.0007	0	0.0015	87.1
-0.0008	0	0.0007	0.003	87.2
-0.0008	-0.0008	0.0007	0.0007	86.9
0.0015	-0.0015	0.0015	0	87.1
-0.0008	-0.0015	0.0007	0.0015	86.9
-0.0008	-0.0008	-0.0008	0.003	87.1
0	0.0007	0.0015	0.003	86.8
0	0.0007	0.0022	0.0037	87.2
0	0.0007	0.0007	0.0037	86.8
-0.0015	0.0007	0	0.003	87.1
-0.0015	-0.0008	0.0007	0.0007	87
-0.0008	0.0015	0.0007	0.0015	86.9
0.0007	0.0015	0.0015	0.003	86.9
0	0.0015	0	0.0015	86.9
0.0007	0.0015	0.0007	0.0015	87.1
0.0007	0.0015	0.0015	-0.0008	86.9
0.0007	-0.0008	0.0022	-0.0008	87.2
0.0007	0.0007	0.0022	-0.0008	86.8
-0.0008	0.0007	0.0007	-0.0015	87
-0.0015	0.0007	0	-0.0008	86.8
-0.0015	0.0007	-0.0008	-0.0008	87.2
-0.0008	0	-0.0015	-0.0015	86.9
-0.003	-0.0008	-0.0008	-0.0008	87.1
-0.003	0	0.0007	-0.0008	86.9
-0.0015	0.0015	0	-0.0015	87
-0.0008	0	0	-0.0015	86.9
0	-0.0015	-0.0008	-0.0008	87
-0.0008	-0.0015	0.0007	-0.0008	87
0.0007	-0.0023	0.0015	-0.0008	87.1
0	-0.0015	0.0022	0.0007	87.1
-0.0015	0.0007	0.0007	0.0007	86.8
-0.0015	0.0015	0.0015	-0.0008	87
0.0037	0.0015	0	0	86.9
0.003	0.003	-0.0015	0.0007	87.1
0.0007	0.0045	-0.0008	-0.0008	86.9
-0.0015	0.0052	0	0.0007	87.1
-0.0046	0.0052	0.0015	0	86.9
-0.0023	0.0052	0.0015	0.0007	86.9
-0.0008	0.0045	0.0007	0	87.1
0	0.003	0.0007	-0.0015	87.1
0.0022	0.0037	0.0007	-0.0008	87.2
0.0007	0.0037	-0.0008	-0.0008	87.1
0.0007	0.003	-0.0008	-0.0008	86.9
-0.0008	0.0037	-0.0008	-0.0008	86.9
0	0.003	-0.0008	-0.0008	86.9
0.0007	0.0015	0.0015	-0.0008	87.1
0.0007	0.0007	0.0015	-0.003	86.9
0.0007	-0.0015	0.0015	-0.0015	87
0.0015	-0.0038	0.0007	-0.0008	86.8
0.0007	-0.003	0	-0.0008	87.1
-0.0008	-0.003	0.0015	-0.0008	86.9
-0.0015	-0.003	0	0	87
-0.0008	-0.0008	-0.0008	0.0007	86.9
0.0007	-0.0008	-0.0008	0.0007	86.9
0	-0.0008	-0.0015	0.0015	86.9
-0.0015	0	-0.0015	0.0007	87.2
0.0015	-0.0015	-0.0023	0.0007	86.9
0	-0.0046	-0.0023	0.0007	87
-0.0008	-0.0046	-0.0008	-0.0008	86.9
0	-0.0053	-0.003	-0.0008	87.1
0.0007	-0.0053	-0.003	0.0007	87
0.0007	-0.0023	-0.003	0.0015	86.9
-0.0015	-0.0015	-0.0038	0	87.1
-0.0015	-0.0008	-0.003	-0.0008	86.9
-0.0015	-0.0015	-0.0015	-0.0015	87.1
-0.0008	-0.003	-0.0015	0	87
0	-0.0008	-0.0008	0.0007	87
-0.0008	-0.0008	0.0007	0	87
-0.0008	-0.0008	0.0015	-0.0008	86.9
-0.0015	-0.0008	-0.0008	-0.0008	87
-0.0023	0.0007	0.0007	-0.0008	87
-0.003	0.0007	0.0007	-0.0015	87.1
-0.0015	0.0015	0.0015	0	87
0	0.0015	0.0045	0.0015	86.9
-0.0015	0.0007	0.0015	0.0015	86.9
-0.003	0.0007	0.0015	0.0015	87
-0.003	0.0015	0.0015	0.0007	87
-0.0008	0.0015	0.0007	0.0007	87
0.0015	0.0015	0.0007	0.0007	86.9
0.0015	0.003	0.0015	0.0007	86.9
-0.0008	0.0007	0.0007	0.0007	86.9
0	0.0022	0.0015	-0.0008	87.1
-0.0008	0.003	0.0007	0.0007	87
-0.0015	0.0015	0.0007	0.0007	86.9
-0.0015	0.0022	0.0022	0.0007	87
-0.0015	0.0007	0.0015	0.0007	87
-0.0008	0.0015	0.0015	0.0007	87
-0.0008	0.0007	0.0007	0.0015	86.9
-0.0008	0.0007	0.0007	0.0007	87
-0.0008	-0.0008	0.0007	0.0007	86.9
-0.0008	0.0007	0.0015	0	86.9
0	0.0015	0.0022	-0.0015	87
-0.0015	0.0015	0.003	0.0007	86.9
-0.0023	0.0007	0.003	-0.0008	87.1
-0.0008	0.0007	0.0022	0.0007	86.9
0.0015	0.0007	0.0015	0.0007	87.2
0.0015	0.0015	0.0015	0.0007	86.9
0.0007	0.0007	0.0007	0.0022	87.2
0.0007	-0.0015	0.0007	0.0007	86.8
0.003	-0.0023	-0.0008	0	87.2
0.0007	-0.0015	-0.0008	0	86.8
-0.0008	0	0	0.0007	87.2
0.0015	0.0007	0.0007	-0.0008	86.9
0.0007	0.0007	-0.0008	-0.003	87.2
0.0007	0.0015	-0.0015	-0.0015	86.9
0.0007	0.0015	-0.0008	-0.0015	87.1
0.0007	0.0022	-0.0008	-0.0008	87
0.0007	0.0007	-0.0015	-0.0015	87
-0.0008	0.0007	-0.0008	-0.0015	86.9
-0.0008	-0.0008	0.0007	-0.0008	86.8
-0.0015	-0.003	0.0007	-0.0015	87.1
-0.003	-0.0008	0.0007	-0.0015	86.9
-0.0023	0.0007	-0.0023	-0.0008	87.2
-0.0008	0.0007	-0.003	0.0007	86.9
0	0.0007	-0.0015	0.0015	87.2
0.0007	0.0007	-0.003	0.0022	86.8
-0.0015	0.0015	-0.003	0.0007	87.2
-0.0015	0.0007	-0.0038	0.0015	87
-0.0008	0.0007	-0.003	0.0022	87.1
0.0007	0.0015	-0.0015	0.0015	86.9
0.0007	0.0007	-0.0008	0.0045	87.1
-0.0015	0.0007	0.0007	0.003	87
-0.0008	0.0007	0	0.003	87.1
0	-0.0008	0.0007	0.003	86.9
-0.0015	-0.0008	0.0007	0.003	86.9
-0.0015	-0.0008	-0.0008	0.003	87.1
0	-0.0008	-0.0015	0.003	86.9
0.0022	-0.0008	-0.0015	0.0045	87.2
0.0015	0.0015	-0.0015	0.0037	86.9
0.0007	0.0015	-0.003	0.003	87
-0.0015	0.0015	-0.003	0.0022	87
-0.0023	0.0022	-0.0015	0.0022	87.1
-0.0015	0.003	0	0.0007	86.9
-0.0015	0.0037	-0.0015	-0.0008	87.1
-0.0015	0.003	-0.0023	-0.0008	87.1
-0.0023	0.003	0	-0.0008	86.9
-0.0008	0.003	0.0007	0	87
-0.0008	0.0022	-0.0008	-0.0015	87.2
-0.0015	0.0037	-0.0008	0	87.1
-0.0015	0.0037	0.0022	-0.0008	87
-0.003	0.0022	0.003	-0.0008	87
-0.0008	0.0015	0.0015	-0.0008	87
-0.0015	0.0022	0.0007	-0.0023	87
0.0007	0.0045	0.0015	-0.0008	86.9
0	0.0045	0.0015	-0.0008	86.9
-0.0008	0.003	0.0015	-0.0015	87.1
0.0007	0.0007	0.0007	-0.0015	87
0	0	0.0007	-0.0008	87
0.0015	-0.0008	0.0015	-0.0008	87.1
0.0007	-0.003	0.0015	-0.0008	87.1
0.0007	-0.003	-0.0008	0	87
0.0022	-0.0008	0	-0.0023	87
0.0007	-0.0015	0.0007	-0.0023	86.9
0	-0.0015	0.0015	-0.0023	87.1
-0.0008	-0.0015	0.0015	-0.0023	87.1
0	-0.0015	0.0015	-0.0015	87
-0.0015	-0.0008	0.0045	-0.0015	86.9
-0.0008	-0.0015	0.003	-0.0008	86.9
0.0007	-0.0015	0.0007	-0.003	87.2
0	-0.0015	0.0007	-0.003	87
0	-0.0015	-0.0008	-0.006	87.2
-0.0038	-0.0015	0.0015	-0.0083	86.9
-0.0023	-0.0015	0.0007	-0.0046	87.2
-0.0008	-0.0023	0.0007	-0.0038	86.8
-0.0015	-0.0015	0.0007	-0.003	87.2
-0.0008	-0.0015	0.0015	0.0007	86.9
-0.0015	-0.0015	0.0007	0.0007	87.2
0.0007	-0.0015	0	0.0007	86.8
0.0007	-0.0023	0.0015	0.0022	87.2
-0.0008	-0.0008	0.0007	0.0015	87
0.0015	-0.0008	0.003	0.0015	86.9
0	-0.0008	0.0022	0.0022	87
-0.0008	-0.0008	0.0015	0.003	87.1
0.0022	-0.0023	0.0007	0.0037	87.1
0.003	-0.0015	0	0.0037	86.9
-0.0015	-0.0008	0	0.0045	86.9
-0.003	-0.0008	-0.0008	0.0052	87
-0.003	-0.0015	-0.0008	0.0045	87.2
-0.0015	-0.0023	-0.0023	0.0037	86.9
-0.0008	-0.003	-0.0023	0.003	87.1
-0.0008	-0.0015	-0.003	0.003	87.1
-0.0008	-0.0015	-0.003	0.0007	87.2
-0.0008	-0.003	-0.0023	0.0007	86.9
0.0007	-0.0023	-0.0023	0.0022	87
0.0015	-0.0015	-0.0023	0.0015	86.9
0	-0.0015	-0.0015	0	87.1
-0.0008	-0.0015	-0.0008	-0.0008	87
-0.0015	-0.0008	-0.0015	0.0007	87
-0.0023	0.003	-0.0015	0.0007	87
-0.0015	0.0045	-0.0015	-0.0008	86.9
-0.0008	0.003	-0.0008	-0.0008	87.1
0.0015	0.0015	0.0007	-0.0008	86.9
0.0015	0.003	0.0015	-0.0015	87.1
0	0.0045	0.0022	-0.0015	86.9
-0.0015	0.0052	0.0015	-0.0015	87
-0.0015	0.0052	0.0007	0	86.9
-0.0008	0.0052	0.0015	0	87.2
0	0.0045	0.0015	0.0015	87
0.0007	0.003	0.0015	0.0015	86.9
0.0015	0.0045	0.0007	0.0007	87.1
0.0015	0.0045	-0.0008	0.003	86.9
0.0022	0.003	-0.0015	0.0015	87.1
0.003	0.003	-0.0008	0.003	87
0.0007	0.0015	-0.0023	0.003	86.9
0.0007	0.0007	-0.003	0.0045	87.1
0	0	-0.0023	0.0045	87
-0.0008	-0.0008	-0.0023	0.0052	86.9
-0.0008	-0.003	-0.003	0.0037	87
0	-0.003	-0.0015	0.003	87
0.0007	-0.0023	-0.0015	0.0045	86.9
-0.0008	-0.0015	-0.003	0.0037	87.1
-0.0015	-0.0008	-0.003	0.0045	86.9
0.0007	-0.0015	-0.0023	0.0052	87.1
0.0022	0	-0.0008	0.003	86.9
0.0007	0	0.0007	0.0022	87.1
-0.0015	-0.0008	0.0007	0.0015	86.8
-0.0015	-0.0015	0.0007	0.0022	87
-0.0008	-0.0015	0.0015	0.003	86.9
-0.003	-0.003	0.0022	0.0015	86.9
-0.0046	-0.0046	0.0037	0.0015	87.1
-0.0008	-0.0038	0.0045	0.0015	86.9
0.0007	-0.0038	0.0037	0.0007	87.1
-0.0008	-0.0015	0.003	0.0015	87
-0.0008	-0.0008	0.0022	0.0007	87.2
-0.0008	0.0015	0.003	-0.0008	86.9
-0.0015	0.003	0.003	-0.0015	87.1
-0.0008	0.0015	0.0022	-0.0038	86.9
0	0.003	0.0015	-0.0053	87
-0.0015	0.0037	0.0007	-0.0046	86.9
-0.0015	0.0045	0.0007	-0.0023	86.9
0.0007	0.0037	0	-0.0023	86.9
-0.0008	0.0045	-0.0008	-0.0015	86.9
-0.0023	0.0045	0.0015	-0.0038	87
0	0.003	0.0015	-0.0023	86.8
-0.0008	0.003	0.0015	-0.0023	87.1
-0.0008	0.003	0.0015	-0.0046	86.9
0	0.0022	0	-0.0046	87.1
-0.0023	0.0022	0.0007	-0.0038	86.9
-0.0008	0.0015	-0.0008	-0.003	87.1
0	-0.0008	-0.0015	-0.003	86.9
0.0007	-0.0008	-0.0015	-0.003	87
0.0007	-0.0008	-0.0023	-0.003	86.9
-0.0008	-0.0008	-0.0015	-0.003	87
-0.0008	-0.0015	-0.0008	-0.003	86.9
-0.0023	-0.0015	-0.0015	-0.0015	87
-0.0023	-0.003	-0.0015	0	87
-0.0008	-0.0023	0.0007	0.0007	86.9
-0.0023	-0.0015	0.0015	0.0007	87
0.0007	-0.0015	0.0007	0.0007	86.8
0.0015	-0.0008	0.0007	0.0007	87
0.0007	-0.0015	0.0015	0.0015	87
-0.0008	-0.0015	0.0015	0.0015	87.1
0.0015	-0.003	0.0007	0.0015	86.9
0.0007	-0.003	0.0007	0.0037	86.9
-0.0008	-0.003	-0.0015	0.0037	87
0.0007	-0.003	-0.0008	0.0007	86.9
-0.0008	-0.0008	-0.0015	0.0015	87
-0.0008	-0.0015	-0.0015	0.0045	86.9
-0.0008	-0.0015	-0.003	0.0045	87
-0.0015	-0.0008	-0.0023	0.0045	86.9
-0.0008	-0.0015	-0.003	0.003	87.2
0.0007	-0.003	-0.0015	0.0007	86.9
0	-0.003	-0.0015	0	87.1
0.0007	-0.0023	-0.0015	0.0015	86.8
0.0007	-0.0015	0.0007	0.0007	87.1
-0.0008	-0.0015	-0.0008	0	87
-0.0015	-0.0008	-0.0008	0	86.9
-0.0015	0.0022	-0.0015	0	86.9
-0.0015	0.0037	-0.0015	-0.0015	87
0	0.0045	-0.0023	-0.0015	87.1
-0.0008	0.0045	-0.0023	-0.0015	86.8
0.0015	0.003	-0.0008	-0.0023	87.2
0.0015	0.003	-0.0008	-0.0015	86.9
0	0.0045	-0.0015	-0.003	87.1
-0.0023	0.0045	-0.0015	-0.003	86.9
-0.0015	0.0022	-0.0008	-0.0023	87
-0.0015	0.0022	-0.0008	-0.0015	86.9
0.0007	0.0015	0.0007	-0.0015	87.2
0.0007	0.003	0	-0.0015	86.9
0	0.003	0.0022	-0.0015	87
0.003	0.0022	0.0037	-0.0008	86.9
0.0007	0.003	0.0037	-0.0008	87.1
0	0.0022	0.003	-0.0008	87.1
-0.0008	0.0007	0.0022	-0.0015	86.9
0	0.0015	0.0052	-0.0008	86.9
0.0022	0.0015	0.0037	0	87
-0.0008	0.0007	0.003	0	87.1
0	0.0007	0.0052	0.0015	87
-0.0008	0	0.003	0.0015	87
-0.0015	0.0007	0.003	0.0015	87
-0.0023	0.0015	0.003	0.0007	87
-0.003	0.0007	0.003	0.0007	86.9
-0.0015	0.0007	0.0007	0.0015	86.9
-0.003	-0.0008	0.0015	0.0015	87.2
-0.0015	-0.0015	0.0015	0.0015	86.9
-0.0008	-0.0008	0.0007	0.003	87
-0.0015	-0.0008	0.0015	0.0015	86.9
-0.0023	-0.0008	0.0015	-0.0008	87.1
-0.0015	0	0	-0.0008	86.9
-0.0008	0	-0.0015	-0.0008	86.9
0	-0.0015	-0.0015	-0.0008	86.9
0	-0.0023	-0.0015	-0.0008	86.9
0.0007	-0.0015	-0.0046	-0.0015	87
0.0015	-0.0023	-0.0046	-0.0008	86.8
0	-0.0008	-0.0046	-0.0015	87
-0.0008	0.0007	-0.0046	-0.0008	86.9
0.0007	0.0007	-0.003	0.0007	87.2
0.0007	-0.0008	-0.0015	0.0015	87
0.0007	-0.0008	-0.0015	0.0015	87.1
0.0007	0	0.0007	0.0015	86.9
0.0015	0	0	0.0022	87.2
0.0007	0	0	0.0022	86.9
-0.0008	0.0007	0.0007	0.0022	87
0.0007	0.0015	-0.0008	0.0007	86.9
-0.0008	0.003	0.0015	0.0007	86.9
-0.0023	0.0022	0.0015	0.0015	87
-0.0015	0.003	0.0015	0	86.9
-0.0008	0.0045	0.0015	-0.0008	86.9
-0.0008	0.0015	0.0007	-0.0015	86.9
-0.0008	0.0015	0.0015	-0.0015	87.1
-0.0008	0.0015	0.0022	-0.0008	86.8
-0.003	0.0007	0.0015	-0.0015	87.1
-0.0015	0.0007	0	-0.0023	87
0.0015	-0.0008	0.0015	-0.003	87.1
-0.0015	0	0.0007	-0.0023	87
0.0007	0.0007	-0.0008	-0.0023	87
0.0007	0.0007	0	0.0007	86.9
-0.0015	0.0007	0.0007	0.0015	87.1
-0.0015	0.0007	0.0007	0.0007	87
-0.0008	0	0	0.0015	87.1
-0.0015	0.0007	-0.0015	0.0015	87.1
-0.0015	0.0007	-0.0008	0.0015	87.1
0	-0.0008	-0.0023	0.0015	87
-0.0008	0	-0.0038	0.0015	87
0	-0.0015	-0.0015	0.0015	87
0	-0.003	0	0.0037	87
-0.0015	-0.0015	-0.0008	0.003	87.1
0.0007	-0.0015	0.0007	0.003	86.9
0.0007	-0.0023	0.0007	0.003	87
0.0007	-0.0015	-0.0008	0.0022	86.9
-0.0008	0	-0.0008	0.0037	87
-0.0008	0.0007	-0.0015	0.003	87
0.0007	0.0015	-0.003	0.0037	87.1
-0.0015	0.003	-0.0046	0.0022	86.9
0	0.0022	-0.0068	0.0007	86.9
-0.0008	0.0022	-0.0075	0.0015	86.9
0.0022	0.0022	-0.0091	0.0015	86.9
0.0015	0.0037	-0.0083	0.0015	86.9
-0.0008	0.003	-0.0083	0.0007	86.9
-0.0008	0.0007	-0.0053	0.0015	86.9
-0.0015	-0.0008	-0.0023	0.0015	87.1
0	-0.0015	-0.0008	0.0022	86.9
-0.0015	-0.0008	0.0007	0.003	87.1
0	-0.0015	0.0015	0.0037	87
0.0022	-0.0015	0.0015	0.003	87.1
0.0007	0	0.0052	0.0015	86.9
0.0007	-0.0008	0.0082	0.0007	87
-0.0023	-0.0015	0.0082	-0.0015	86.9
-0.0015	-0.0008	0.009	-0.0015	87
0.0007	-0.0008	0.0097	-0.0015	86.9
-0.0015	-0.0008	0.0097	-0.0023	87
-0.0023	-0.0015	0.0082	-0.0015	86.9
-0.0015	-0.0038	0.0075	-0.003	87
-0.0023	-0.0038	0.0067	-0.0015	86.9
-0.0008	-0.003	0.006	-0.0015	86.9
-0.0008	-0.003	0.0067	-0.0038	87.1
-0.003	-0.0023	0.0082	-0.0046	87
-0.0015	-0.0008	0.0097	-0.003	87.1
0.0015	0	0.0097	-0.003	87
0	-0.0015	0.0067	-0.0023	87
-0.0008	-0.0023	0.0015	-0.0023	86.9
-0.0015	0	-0.0015	-0.003	87.1
0	0.0015	-0.0015	-0.003	87
0	0.0007	-0.0008	-0.0015	87.1
-0.0008	0.0015	-0.0023	-0.0008	86.9
-0.0008	0.0015	-0.0046	0.0007	87
-0.0015	0.0007	-0.0068	-0.0008	86.9
-0.003	0.0007	-0.0075	0.0007	87.1
-0.0038	0	-0.006	0.0007	86.9
-0.0008	0	-0.006	0.0015	87.2
0.0007	0.0007	-0.0046	0.003	87.1
0	0.0007	-0.0046	0.0007	86.9
0.0022	0.0022	-0.0038	-0.0008	86.9
0.0007	0.0015	-0.0015	0.0007	87
-0.0008	0.0015	-0.0015	0	87.1
0.0015	0.0007	-0.0008	0	87
-0.0015	0	0	0.0007	86.9
-0.0008	-0.0008	-0.0008	-0.0008	87
0.0007	-0.0008	-0.0015	-0.0008	87
0.0007	-0.0015	-0.0015	-0.0008	87.1
0.0007	-0.0023	0.0007	-0.0008	87
0.0007	-0.0008	0.0007	0	87.1
-0.0008	0.0007	0.0015	-0.0008	86.9
-0.0008	0.0007	-0.0015	0	87.2
0.003	0.0007	-0.0008	0.0007	87
0.0022	0.0007	0.0015	0.0015	86.9
0.0007	0.0007	0.0015	0.0015	87.1
0	0.0015	0.0015	0.003	87
0.0015	0.0045	0.0007	0.0022	87.1
0.0015	0.0037	0.0022	0.0022	87.1
-0.0008	0.003	0	0.0045	87.1
-0.0008	0.0037	-0.0008	0.0045	87
-0.0015	0.0037	-0.0008	0.003	87.1
-0.0015	0.003	-0.003	0.003	86.9
-0.003	0.0037	-0.0023	0.0015	87.1
-0.0008	0.0045	-0.0015	0.0015	86.9
-0.0008	0.0045	-0.003	-0.0008	87.1
-0.0008	0.0045	-0.0015	-0.0008	86.9
0.0007	0.0037	-0.0015	0.0007	87.1
-0.0008	0.0037	-0.0015	0.0015	86.9
-0.0008	0.003	-0.0015	-0.0008	87
0	0.0007	-0.0015	-0.0008	87
0.0007	0.0007	-0.0008	0.0007	87
-0.0008	0	-0.0008	0	87.1
-0.0015	0.0007	-0.0023	0	86.9
-0.0008	0.0007	-0.0015	0.0007	87.1
-0.0008	0.0007	-0.0008	0.0007	86.9
-0.0008	0.0007	0.0007	0.0015	87.1
-0.0015	0.0015	0	0.0007	86.8
-0.0008	0.0015	0.0015	-0.0008	87.2
-0.0008	0.0007	0.0015	0	86.9
-0.0008	-0.0008	0.0015	0.0015	87.1
-0.0008	-0.0015	0.0007	0.0015	86.8
-0.0015	0	0.0015	0.0007	87
-0.0023	-0.0008	0.0037	-0.0008	86.9
-0.0008	-0.0008	0.003	0.0007	87.2
0	0	0.0022	0.0022	87.1
-0.0008	-0.0008	0.0015	0.0022	87
0.0015	-0.0015	0.003	-0.0008	87
0.0007	-0.0015	0.003	-0.0015	86.9
0.0007	-0.003	0.0015	-0.0015	87.1
0.0015	-0.003	0.0015	-0.0008	86.9
0	-0.0038	-0.0008	-0.0008	87.2
-0.0008	-0.003	0.0007	-0.0015	86.9
-0.0008	-0.003	0	-0.0015	87.1
0	-0.0046	0.0007	-0.003	87
0.0037	-0.0053	-0.0008	-0.003	87.1
0.003	-0.0046	-0.0015	-0.0015	86.9
0.0015	-0.0038	-0.0015	-0.003	87
0	-0.0038	-0.0015	-0.003	86.9
0	-0.003	-0.0008	-0.0015	86.9
-0.0008	-0.0023	-0.0008	-0.0008	86.9
0.0007	-0.0015	0	0.0007	86.9
0.0007	-0.003	0.0007	0.0007	87.1
-0.0015	-0.0046	0.0015	0.0007	87
-0.0008	-0.003	0	0.0015	86.9
0	-0.0008	-0.0023	0.0007	86.9
0.0007	0.0015	0.0015	0.0007	86.9
0.0015	0.0007	0.0015	0.0007	87
0.0007	0.0015	0	-0.0015	87
0	0.003	0	-0.0015	87
-0.0015	0.0037	0	0	87
-0.003	0.003	-0.0008	-0.0015	87.2
-0.0015	0.0015	-0.0015	-0.0015	86.9
-0.0008	0	-0.0008	-0.0015	87
-0.0008	0.0007	-0.0015	0.0007	86.8
-0.0008	0.003	-0.003	0.0015	87.1
-0.0008	0.0007	-0.003	0.0007	86.8
-0.0008	0.0007	-0.003	0.0015	86.9
-0.0008	-0.0008	-0.0015	0.0015	87
0.0007	0.0007	-0.0015	0.0015	86.9
-0.0015	0.0007	-0.0015	0.003	87
-0.0023	0.0007	-0.0015	0.0022	86.9
-0.0023	0.003	-0.0008	0.003	87.2
-0.0015	0.003	-0.0008	0.003	86.9
-0.0008	0.003	-0.0008	0.0022	87.2
-0.0023	0.0037	0.0007	0.0045	86.8
-0.0008	0.003	-0.0008	0.0015	87.2
-0.0023	0.0037	0.0007	0.0022	86.7
-0.003	0.0045	0.0015	0.003	87.2
0.0007	0.0022	0.0015	0.0007	86.9
-0.0015	0.0007	0.003	0.0022	87.1
-0.0008	0.0015	0.003	0.0015	86.9
-0.0008	0.0007	0.003	-0.0008	87.2
0.0007	0.0007	0.0015	-0.0015	87.1
0.003	-0.0008	0.0007	-0.0008	86.9
0.0015	0.0007	0.0022	0	87
-0.0008	0.0022	0.0015	-0.0008	86.9
-0.0008	0.0007	0.0022	-0.0008	87.1
-0.0008	-0.0008	0.0022	0	86.8
-0.0015	-0.0008	0.003	-0.0008	87
-0.0015	-0.0008	0.0007	-0.0023	86.9
-0.003	0.0007	-0.0008	-0.0015	87.2
-0.0008	0.0007	0	-0.0023	87.1
0	0	0.0007	-0.0015	87.1
-0.0015	-0.0015	0	-0.0008	87
-0.0008	-0.003	-0.0008	0.0007	87
-0.0015	-0.0008	-0.0015	0.0007	87
-0.0008	-0.0015	-0.0008	0.0022	86.9
0.0007	-0.0023	0	0.003	87.1
-0.0015	-0.0015	0.0007	0.003	87
-0.0015	-0.0008	0.003	0.0015	87
-0.0015	-0.0008	0.003	0.0022	87
-0.0015	0.0007	0.0045	0.0022	87
0.0015	0	0.0015	0	86.8
0.0015	-0.0015	0.0022	0.0007	87.1
-0.0008	0.0007	0.0022	0.0007	87
-0.0015	0	0	-0.0008	86.9
-0.0008	0	0.0015	0	87
-0.0008	0.0007	0	-0.0008	87
-0.0015	0.0015	-0.0015	-0.0008	87
-0.003	0.0015	-0.0015	-0.0015	86.9
-0.003	0.0007	-0.0015	0	86.9
-0.003	0.0022	-0.0008	0.0007	87
-0.0008	0.0015	-0.0008	0.0007	87
-0.0008	0.0015	-0.0008	0.0015	87.1
-0.0008	0.003	-0.003	0.0022	87.1
0.0007	0.0015	-0.0015	0.003	87
-0.0008	0.0045	-0.0008	0.0015	87.1
-0.0008	0.0022	-0.0008	0.0007	87
-0.0008	0.0022	0.0007	0	87.1
0.0007	0.003	0.0015	0.0007	87
0.0015	0.0052	0.0015	0.0015	87
0.0007	0.0052	0.0015	0.0015	87.1
0.0015	0.0022	0.0015	0.0015	86.9
0.0007	0.003	0	0.0007	87.1
0.0007	0.0022	0.0007	-0.0008	87
0.0007	0.0015	0	-0.0008	87
-0.0008	0.0007	-0.0008	-0.0008	86.9
0.0015	-0.0008	0.0015	-0.0008	87.2
0.0015	-0.0015	-0.0008	-0.0008	86.9
-0.0015	-0.0015	-0.0015	-0.0008	87.2
0	-0.0015	-0.0008	-0.0008	86.9
-0.0008	-0.0023	-0.0008	0	87
0	-0.003	-0.0008	-0.0008	87.1
0	-0.0015	-0.0015	-0.0015	87
0.0007	-0.0008	-0.0008	-0.0008	87.1
0.0015	-0.0015	-0.0008	-0.0008	86.9
0.0015	-0.0023	-0.0008	-0.0015	87.1
0.0007	-0.0015	-0.0008	-0.0008	87
-0.0015	-0.0015	-0.0015	0	87
0.0015	-0.0023	-0.0023	-0.0008	86.9
0.0015	-0.003	-0.0023	-0.0023	87
-0.0015	-0.0023	-0.0023	-0.0015	86.8
-0.0015	-0.0015	-0.0015	-0.0008	87.1
-0.0023	0	-0.0015	-0.0008	87
-0.0015	0.0015	-0.0008	0.0007	86.9
-0.0008	0.0022	-0.0008	0.0007	86.9
-0.0015	0.0022	-0.0008	0	87.1
0.0007	0.0022	-0.0008	0.0015	86.9
0.0007	0.0022	-0.0008	0.0007	86.9
-0.0008	0.003	0.0007	0.0007	86.9
-0.0008	0.0015	-0.0008	0.0015	87
-0.0023	0.003	-0.0008	0.0015	87.1
-0.0023	0.0015	-0.0015	0.0015	87
-0.0008	0.0015	0	0.0022	87
-0.003	0.0022	0.0015	-0.0008	87
-0.003	0.0015	0.0007	0	86.8
-0.0008	0.003	0	0.0007	87
0.0007	0.003	0.003	0	86.9
0.0015	0.003	0.003	0.0015	87.1
0.0007	0.003	0.0015	0.0015	87
0	0.0015	-0.0008	0.0007	87.1
-0.0015	0.0015	-0.0015	0.0015	86.9
0.0007	0.0022	-0.0015	0.0007	87
-0.0008	0.0007	0	0.0007	87.1
-0.0008	0.0007	0.0007	0.0015	86.9
0.0007	-0.0015	0.0007	0.0007	87
0.0007	-0.0023	0	0.0015	86.9
0	-0.0046	0.0007	0.003	87.1
-0.0008	-0.006	0.0007	0.003	86.9
-0.0008	-0.0046	0.0015	0.003	87
-0.0023	-0.0038	0.0015	0.0015	86.9
-0.0015	-0.0008	-0.0008	0.0007	87.1
-0.0008	0	0	-0.0008	86.8
0.0007	-0.0008	0.0007	-0.0008	87.2
-0.0008	0	0.0015	-0.0008	86.9
0.0007	0	0.003	0.0015	87.2
0.0007	0	0.0007	0.0007	86.9
0.0015	0.0015	0.0022	-0.0008	87.2
0.0015	0.0015	0.0022	-0.0008	86.9
-0.0008	0.0007	0.0045	-0.0008	87
-0.0008	0.0015	0.0052	0.0007	86.9
0.0015	0.0007	0.0052	0.0007	87
0.0015	0.0007	0.006	0.0007	87.2
0	0.0015	0.0045	0.0007	86.8
-0.0008	0.0007	0.003	0.0007	87.2
0.0007	0.0007	0.003	0.0007	86.9
0.0015	-0.0023	0.0007	0.0007	87.2
0.003	0	-0.0008	0.0007	87
0.0015	0.0015	-0.0015	0.0007	87
-0.0008	0.0007	-0.0008	0.0015	86.9
-0.0015	0.0015	-0.0008	0.0007	86.9
0	0.0007	-0.0015	-0.0008	86.9
-0.0008	-0.0008	-0.0023	-0.0015	87.1
-0.0008	-0.0015	-0.003	-0.0015	86.9
0	0	-0.0015	-0.0015	86.9
-0.0015	0	-0.0008	-0.0015	86.9
-0.0015	0	0	-0.0008	87
0.0007	-0.0008	-0.0008	-0.0008	87
0.0007	-0.0015	-0.0008	-0.0015	86.8
-0.0015	-0.0008	-0.0008	-0.0008	87.2
-0.0015	-0.0008	0.0007	-0.0008	86.9
-0.0008	-0.0015	0.0007	-0.0008	87
0.0007	-0.0023	0	-0.0008	87
0.0007	-0.0023	-0.0008	-0.0015	87
-0.0008	-0.003	-0.0015	0.0007	87.1
-0.0008	-0.0046	-0.0008	0.0007	87
-0.003	-0.0046	-0.0015	-0.0008	87
-0.003	-0.0053	-0.0008	0	87
-0.0023	-0.0038	-0.003	-0.0008	87
-0.0008	-0.0023	-0.0038	-0.0008	87
0.0007	-0.0015	-0.0023	0.0007	86.9
-0.0015	-0.0008	-0.0023	0.0007	87.1
-0.0008	-0.0015	-0.0015	0.0015	87.1
-0.0008	-0.003	-0.0008	0.0007	87
-0.0015	-0.0038	-0.0008	0.0015	87
-0.0008	-0.0038	-0.0008	0.0015	87.1
0.0007	-0.0023	0	0.0007	87.1
0.0007	-0.0015	-0.0008	0.0007	87.1
0.0022	-0.0008	0.0007	-0.0008	86.8
0.003	-0.0008	0.0022	-0.0015	87.1
0.0007	0	0.0022	-0.0015	87
-0.0008	0.0007	0.0015	-0.0023	87.3
-0.0015	0.0007	0.0022	-0.0023	86.9
-0.0008	0.0015	0.003	-0.003	87.2
0.0007	0.0022	0.0015	-0.0015	86.8
0.0015	0.0007	0.0022	0.0007	87
0	0	0.003	-0.0008	87.1
-0.0015	-0.0015	0.0015	-0.0015	87
-0.0008	-0.0008	0.0015	-0.0008	86.9
0.0007	0.0007	0.0022	0	87
0	0.0022	0.0015	0	87.1
-0.003	0.0007	0.0007	0.0007	86.9
-0.0023	0.0007	-0.0008	0.0007	87.1
-0.0023	0.0045	-0.0015	0.0007	86.8
-0.0023	0.0045	-0.0023	0.0007	87.1
-0.0038	0.0052	-0.0015	0.0015	86.8
-0.0008	0.0045	-0.0015	0.003	87.1
0	0.0045	-0.0015	0.003	86.8
0.0007	0.0045	-0.0015	0.003	87.2
0.0007	0.0045	-0.0008	0.003	86.9
0	0.0052	-0.0015	0.003	87.1
0	0.0037	0.0007	0.0037	86.9
0.0015	0.003	0.0007	0.0007	87
-0.0008	0.0037	-0.0008	0.0007	87
0.0007	0.0045	-0.0008	0.0015	87.1
0	0.0045	0	0.0022	87.1
-0.0008	0.0045	-0.0008	0.003	86.8
-0.0008	0.0045	-0.0008	0.0007	87.1
-0.0015	0.0037	-0.0015	0	86.9
0.0007	0.0022	-0.0008	0.0007	87.1
0.0015	0.0015	-0.0008	0	87
0	0.0015	-0.0008	0.0022	87.2
-0.0008	0.0022	0.0007	0.0022	87
-0.0008	0.0007	0	0.0007	87.1
-0.0008	-0.0008	0	0	87
0	-0.0008	0.0007	0	86.9
0	-0.0023	0.0007	-0.0008	86.9
0.0007	-0.0015	0	-0.0008	87.1
0	-0.0015	-0.0015	0	87.1
0	-0.0015	0	-0.0008	86.9
0.0015	-0.0023	0.0007	-0.0008	87
-0.0008	-0.0023	0.0022	-0.0015	86.9
-0.0015	-0.0008	0.0015	-0.0015	87.2
-0.0008	-0.0015	0	-0.0008	87
-0.0015	-0.0015	0.0007	-0.0008	87
-0.0015	-0.0008	-0.0008	-0.0015	87
-0.0008	0.0007	-0.0008	-0.003	87.1
0	0.0015	0	0.0007	86.9
0.0007	0.0015	0.0007	0.0007	86.9
0.003	0.0007	0.0007	0.0007	86.9
0.0007	0.0015	0	0.0022	86.9
-0.0008	0.0015	0	0.0015	86.9
0	0.0015	0.0007	0.0022	86.9
0	0.003	0.003	0.0015	87
-0.0008	0.003	0.0022	0.003	87.2
0	0.0045	0.0022	0.0015	87.1
0.003	0.0045	0.003	0.0015	87
0.0015	0.003	0.003	0.003	86.9
0	0.0015	0.003	0.0015	86.9
0.0007	0.0007	0.0045	0.0022	87
-0.0008	0.0007	0.0022	0.0015	86.9
0.0015	0.0015	-0.0008	0.003	86.9
0	0.0022	0.0007	0.0045	87.1
-0.0008	0.0007	-0.0008	0.003	87.1
-0.0008	0	-0.0015	0.003	87.1
-0.0015	0.0015	-0.0008	0.0022	86.9
-0.0008	0.0007	0	0.0022	87.1
-0.0015	0	-0.0008	0.0007	86.9
0.0007	-0.0015	-0.0023	0.0007	87.1
0	0.0007	-0.0008	0.0007	86.9
-0.0023	0.0007	-0.0015	0.0007	86.9
-0.0008	0.0015	-0.0015	0	87
-0.0015	0	-0.0008	-0.0015	86.9
-0.0015	-0.0008	-0.0023	-0.0015	86.9
-0.0015	-0.0008	-0.003	0	87
0.0007	-0.0015	-0.0023	-0.0015	87.2
0.0015	-0.0015	-0.0023	-0.003	86.9
-0.0015	-0.0015	-0.0015	-0.003	87
-0.003	-0.0015	-0.0015	-0.003	86.9
0	-0.003	-0.0008	-0.0015	87.2
0.0007	-0.003	-0.0008	-0.0015	86.8
-0.003	-0.003	-0.0015	-0.0038	87.1
-0.0015	-0.0015	-0.0015	-0.0008	87
-0.0015	-0.0015	0.0007	-0.0008	86.9
-0.0015	-0.0023	0.0007	-0.0008	86.9
-0.0015	-0.0023	0	0	87.1
-0.0008	-0.0008	-0.0008	-0.0008	87
0.0007	0	0.0007	0.0007	87
0.003	-0.0008	-0.0008	0	87.1
0.0015	-0.0008	-0.0008	0.0007	86.8
0	0	-0.0015	0.0015	87.1
-0.0008	-0.0008	-0.0015	0.003	86.9
0.0007	0.0007	-0.0008	0.0022	86.9
-0.0008	0.0007	-0.0008	0.0015	86.9
-0.0008	0.0007	0	0.0037	86.9
0.0007	-0.0008	0.0007	0.0015	87
-0.0015	-0.0008	0.0007	-0.0008	86.9
0.0007	0.0007	0.0007	-0.0008	87
-0.0008	0.0015	0	0	86.8
-0.0023	-0.0008	0	0.0015	87.1
-0.0015	-0.0008	0.0007	0.0022	86.8
-0.0008	-0.0008	0.0015	0.0037	87
-0.0008	-0.0008	0.0007	0.0022	87
-0.0008	0.0007	0.0022	0.0015	86.9
-0.003	-0.0008	0.0022	0.0015	87
-0.003	-0.0015	0.0015	0	86.9
-0.0015	-0.0015	0.0022	-0.0008	86.9
-0.003	-0.0015	0.003	-0.0015	86.9
0.0007	-0.0015	0.0015	-0.0015	87
0.0007	-0.0015	0.0007	-0.0023	87
0.0007	-0.0008	0.0007	-0.0038	87.1
0.0015	-0.0015	-0.0008	-0.0038	86.9
0.0007	-0.0008	-0.0008	-0.003	87.1
0.0022	-0.0008	-0.0008	-0.0015	86.9
0.0015	-0.0008	-0.0015	-0.0008	87.1
-0.0008	-0.0008	-0.0008	0	86.9
-0.0008	-0.0015	0.0007	0.0015	87.1
-0.0008	-0.0008	0.0015	0.0007	86.8
-0.0015	0	0.0015	0	87.1
-0.0008	0.0007	0.0015	-0.0008	86.9
0	0	0.0015	-0.003	87
-0.0015	-0.0008	0.0007	-0.003	87.1
-0.0008	-0.0015	0.0007	-0.0023	86.8
-0.0008	-0.0015	0	-0.0015	87.1
0	0	0.0007	-0.0008	86.9
0.0007	0.0007	0.0015	-0.0015	86.9
0.0015	0.0015	0.0007	0	86.8
0.0015	0.0022	0.0007	-0.0008	87.2
0.0015	0.003	0	-0.0015	86.9
-0.0015	0.0045	-0.0015	0	87.1
0.0007	0.0045	0	0.0015	86.9
0.0007	0.0037	0.0007	0.0022	86.9
-0.0023	0.0045	0.0007	0.0015	86.9
0.0007	0.0045	-0.0008	0.0015	87.1
-0.0008	0.003	-0.0023	0.003	87
0.0007	0.0045	-0.0023	0.003	86.9
0.0022	0.003	-0.0015	0.0037	87
-0.0015	0.0045	-0.0023	0.0037	86.8
-0.0015	0.0045	-0.0015	0.003	86.9
-0.0008	0.0015	-0.0008	0.0037	86.9
0.0007	0.0015	0	0.0022	87.1
-0.0008	0.0015	-0.0008	0.0022	86.9
-0.0023	0.0007	0.0007	0.0022	87
0.0007	-0.0008	0.0022	0	87
0.0022	-0.0015	0.0015	0	87.2
0	-0.003	0.0015	-0.0008	86.9
-0.0008	-0.003	0.0022	-0.0008	87
-0.003	-0.0008	0.0007	-0.0015	86.9
-0.0008	0.0007	-0.0015	0	87
-0.0008	0.0022	-0.0008	0	87.2
-0.0023	0.0007	-0.0008	-0.0015	86.9
-0.0008	-0.0008	-0.0008	0.0007	87.1
-0.0008	-0.0023	0.0007	0.0015	87
-0.0015	-0.0015	0.0007	0.0022	86.8
-0.0015	0	0.0007	0.003	87
-0.003	-0.0008	0.003	0.003	86.8
-0.003	-0.0015	0.003	0.0037	87
-0.0015	-0.003	0.0037	0.0037	86.9
-0.0015	0	0.0045	0.003	87
0.0007	-0.0008	0.0037	0.003	86.9
0.0022	-0.0008	0.0022	0.0015	87.1
0.0015	0.0022	0.0015	0.0015	86.8
0.0015	0.0022	0.0007	0.0015	87.2
0.0007	0.003	0	0.0007	86.9
0.0015	0.0015	-0.0008	0.0015	87
0	0.0007	-0.0015	0.0015	86.9
0.0007	0.0007	0.0007	0	86.9
-0.0008	0.0007	0.0007	0.0015	86.9
-0.003	0.0007	-0.0008	0.0015	87
-0.0015	0	-0.0008	0.0007	87.3
-0.0008	0	-0.0015	0.0007	86.8
-0.0008	-0.0023	-0.0008	-0.0008	87.1
-0.0015	-0.003	-0.0008	-0.0015	86.9
0.0015	-0.003	-0.0015	-0.0008	87.2
0.0015	-0.0023	-0.0023	-0.0008	86.8
-0.0008	-0.0015	-0.003	-0.0023	87.1
-0.0015	-0.0015	-0.0015	-0.0015	86.9
0.0007	-0.0015	0	-0.0008	87
0	-0.0015	0.0007	-0.0015	87
-0.0015	-0.0008	-0.0008	-0.0023	87.1
0	-0.0008	-0.0023	-0.0015	87
-0.0008	-0.0008	-0.0023	-0.0008	87.1
-0.003	0	-0.0023	-0.0008	87
-0.003	-0.0008	-0.0038	-0.0015	87.2
-0.0015	-0.0015	-0.0046	-0.0015	86.9
-0.0008	-0.0023	-0.0038	-0.0008	87
0.0007	-0.0015	-0.0023	-0.0015	87.1
0.0007	-0.0015	-0.0008	-0.0015	87
-0.0023	-0.0023	-0.0015	0	87.1
-0.0038	-0.003	0	-0.0008	86.9
-0.0015	-0.0015	0	0	87.1
-0.0008	-0.0008	0.0007	0.0007	87
0	0.0007	0.0015	0	87.1
0.0015	0.0015	0	-0.0008	87.1
0.0007	0.0015	-0.0008	0	87
-0.0008	0.0007	-0.0015	-0.0008	87.1
-0.0008	0.003	-0.0015	-0.0008	87.1
0	0.0015	-0.0015	0.0007	87.2
0.0007	0.003	-0.0008	0.0015	86.9
0.0007	0.0052	0.0015	0	87
0.0015	0.0037	0.003	-0.0008	87
0	0.0052	0.0022	0.0007	87
-0.0015	0.0052	0.0022	0.0007	87.1
-0.0008	0.003	0.0045	0.0007	87.2
0	0.003	0.003	0.0015	87.2
0.0007	0.003	0.003	0	87
0.0007	0.0037	0.0022	-0.0008	87.1
0	0.003	0	-0.0015	87.1
-0.0015	0.003	0.0022	-0.0015	87.2
-0.0008	0.003	0.0007	-0.0008	87
-0.0008	0.0037	-0.0008	-0.0008	87.2
-0.0008	0.0022	-0.0008	0	87
-0.0008	0.0015	-0.0023	0.0015	87.1
0.0007	0.0015	-0.0023	0.0007	87.1
-0.0008	-0.0023	-0.003	0.0007	87.1
-0.0015	-0.003	-0.0015	0.0007	87.2
0.0015	-0.0015	-0.0015	-0.0008	87
-0.0008	0.0015	-0.0015	-0.0008	87.1
0.0007	0.0015	-0.0008	-0.0015	87.1
0.0015	0.0007	0.0007	-0.0008	87.1
-0.0015	0.0015	-0.0008	0.0007	86.9
0.0007	0.0007	-0.0015	-0.0008	87.2
-0.0008	0.0007	-0.0015	-0.0015	87.1
0	0.0007	-0.0015	-0.0008	87.2
0	0.0007	-0.0015	-0.0008	87.1
-0.0008	0.0015	0.0015	0.0007	87.2
0	0.0007	0.0037	0.0015	87
-0.0008	0.0007	0.003	0.0007	87.1
0.0007	-0.0008	0.003	0.0037	87.2
0.0007	-0.0015	0.003	0.0045	87.2
-0.0008	-0.0038	0.0037	0.0045	87.1
-0.0008	-0.003	0.003	0.0052	87.1
0.0015	-0.003	0.0015	0.0045	87
-0.0008	-0.0023	0.0007	0.003	87
0	-0.0008	0	0.003	87.2
0.0007	-0.003	0.0007	0.003	87.1
-0.0038	-0.003	0.0007	0.0015	87.1
-0.0015	-0.0023	0	0.0015	87.2
0	-0.0023	0.0015	0	87.1
0.0015	-0.0008	0.003	0.0007	87.1
0.0007	0.0007	0.0015	0.0007	87.1
-0.0015	0.0015	0.0015	0	87.1
0.0015	0.003	0.0007	-0.0008	87
0	0.0015	0.0007	-0.0015	87.2
0.0007	0.0015	0.0007	-0.0038	87.1
0	0.0022	-0.0008	-0.0038	87.1
-0.0046	0.0007	-0.0008	-0.003	87.2
-0.003	0.0007	-0.0015	-0.0038	87.1
0	-0.0008	-0.0015	-0.0038	87.2
0.0007	-0.0008	-0.0023	-0.0023	87
-0.0015	-0.0015	-0.0023	0	87.2
-0.0008	-0.0008	-0.003	-0.0008	87.1
-0.003	-0.0008	-0.003	-0.0015	87.2
-0.003	0.0007	-0.0015	0.0007	87.2
-0.003	0.0007	-0.0008	0.0007	87.3
-0.0015	0.0007	-0.0015	0.0015	87.1
-0.0008	-0.0008	-0.0038	-0.0008	87.3
-0.0008	-0.0015	-0.0015	-0.0008	87
0.0007	0	0.0007	-0.0015	87.4
-0.0008	0	0.0015	-0.0015	87.1
0.0015	-0.0008	0.0022	0.0007	87.3
0.0015	0	0.003	-0.003	87.2
0.0015	0.0022	0.0045	-0.003	87.3
0.003	0.003	0.0045	-0.0015	87.2
0.0015	0.0022	0.006	-0.0023	87.2
0.0037	0.003	0.0052	-0.0023	87.3
0.0022	0.0022	0.0052	-0.0015	87.2
0.0015	0.0022	0.0045	-0.0008	87.5
0.0015	0.0015	0.0007	-0.0008	87.1
0.0007	0.003	0	0	87.3
0.0007	0.0045	0.0015	0.0015	87.2
-0.0008	0.003	0.0015	0.0015	87.2
0.0007	0.003	-0.0015	0.0015	87.2
-0.0008	0.003	-0.0008	0.003	87.2
-0.0023	0.003	-0.0023	0.0045	87.3
-0.0015	0.0037	-0.003	0.0045	87.1
-0.0023	0.0007	-0.0015	0.0045	87.3
-0.0015	-0.0008	-0.0015	0.003	87.2
-0.0008	-0.0008	-0.003	0.003	87.3
-0.0008	-0.003	-0.0023	0.003	87.3
-0.0023	-0.003	0	0.0015	87.3
-0.0015	-0.0023	0.0015	0.0007	87.3
0.0007	-0.0008	0.0007	0.003	87.3
-0.0008	-0.0008	-0.0008	0.003	87.3
-0.0008	-0.0015	-0.0023	0.0022	87.3
-0.0015	0.0007	-0.003	0.0045	87.3
-0.0015	-0.0008	-0.0038	0.0037	87.2
0	-0.0015	-0.0046	0.006	87.3
-0.0008	-0.0015	-0.0053	0.006	87.3
-0.0008	-0.0015	-0.003	0.0052	87.4
0.0007	-0.0008	-0.0023	0.0067	87.3
0.0007	-0.0038	-0.0008	0.0045	87.4
0	-0.003	0.0007	0.0022	87.3
0.0007	-0.0046	0.003	0.0007	87.5
0.0022	-0.0046	0.0045	-0.0008	87.3
0.0007	-0.003	0.0045	-0.0008	87.3
-0.0015	-0.003	0.0052	0.0007	87.3
-0.0015	-0.0008	0.0082	0	87.3
-0.0015	-0.0015	0.0075	-0.0008	87.4
0.0015	0.0015	0.006	-0.0008	87.3
0.003	0.003	0.0067	-0.0015	87.5
0.0007	-0.0008	0.0075	-0.0046	87.2
-0.0015	-0.0015	0.0067	-0.0053	87.4
-0.0015	-0.003	0.0045	-0.0053	87.2
0.0007	-0.0046	0.0022	-0.006	87.5
0.0007	-0.0008	0.003	-0.0038	87.1
-0.0008	0.0007	0.0015	-0.0038	87.4
-0.0008	0.0022	-0.0008	-0.0046	87.3
0.003	0.003	-0.0008	-0.003	87.4
0.0022	0.0015	-0.0015	-0.003	87.2
-0.0008	0.0007	-0.0023	0	87.3
-0.0023	-0.0008	-0.003	0	87.3
-0.0008	0.0022	-0.0038	0.0015	87.4
-0.0015	0.0045	-0.0046	0.0045	87.4
-0.0015	0.0045	-0.0053	0.0045	87.3
-0.0015	0.0045	-0.0046	0.0045	87.5
-0.0023	0.0022	-0.0068	0.0022	87.4
0.0007	0.0022	-0.0068	0.003	87.5
0.0007	0.003	-0.0023	0.0015	87.3
-0.0015	0.0022	0	0.0015	87.4
-0.0023	0.0015	0.0022	0.0022	87.4
-0.0008	0.0015	0.003	0.0007	87.4
0.0007	0	0.0015	0.0015	87.5
0	-0.0008	0.003	0.0007	87.5
-0.0008	0	0.003	0.0007	87.4
-0.0008	-0.0015	0.0007	0.0007	87.4
0.0007	-0.0023	-0.0023	-0.0008	87.4
-0.0008	-0.0023	-0.0053	0.0007	87.4
-0.0015	-0.0023	-0.0068	0.0007	87.3
-0.0015	-0.0008	-0.0098	0.003	87.4
0	-0.0008	-0.0083	0.003	87.3
0.0007	0	-0.0038	0.0022	87.4
-0.0008	-0.0008	0.0007	0.0015	87.5
0.0007	0.0007	0.0022	-0.0008	87.5
0	0.0015	0.0015	0.0007	87.3
0	0.0007	0	-0.0008	87.6
0	0.0015	-0.003	0.0007	87.3
-0.0008	0.0007	-0.0038	0.0007	87.6
-0.0015	0.0015	-0.0008	0.0007	87.4
-0.003	0.003	0.003	0.0015	87.7
-0.003	0.0037	0.0052	0.0015	87.5
-0.003	0.0037	0.0067	0.0007	87.6
-0.0015	0.0037	0.0075	0	87.6
-0.0008	0.003	0.0067	-0.0008	87.6
-0.0008	0.0022	0.0052	0	87.5
-0.0038	0.003	0.0045	-0.0008	87.6
-0.0038	0.003	0	0.0007	87.7
-0.003	0.0037	-0.0046	0.0007	87.5
-0.0023	0.003	-0.0075	-0.0015	87.5
-0.0023	0.0022	-0.0083	-0.0008	87.5
-0.0046	0.0045	-0.0075	-0.0008	87.6
-0.0015	0.0037	-0.0068	-0.0015	87.6
-0.0008	0.003	-0.0075	-0.0015	87.5
0.0015	0.0022	-0.0075	-0.0023	87.6
0.0015	0	-0.0075	-0.0015	87.6
0.0007	-0.0015	-0.0046	-0.003	87.7
0.003	-0.0015	-0.003	-0.003	87.7
0.0015	-0.0023	-0.0046	-0.003	87.7
-0.0008	-0.003	0	-0.0053	87.6
0	-0.003	0.0067	-0.0053	87.6
0.0015	-0.0046	0.0112	-0.0038	87.6
0.0007	-0.0053	0.0127	-0.0023	87.6
0.0007	-0.0046	0.0135	-0.0015	87.5
0.0007	-0.003	0.0127	-0.0015	87.6
0.0007	-0.0046	0.0127	-0.0015	87.6
0.0007	-0.0053	0.012	-0.0015	87.6
0.0007	-0.003	0.0105	-0.0008	87.7
0	-0.0023	0.0082	-0.0015	87.5
-0.0023	-0.0008	0.0067	-0.003	87.7
-0.0015	-0.0008	0.006	-0.0038	87.5
0.0007	-0.0008	0.003	-0.003	87.8
-0.0008	-0.0015	0.003	-0.0015	87.5
0.0007	-0.0023	-0.0008	-0.0023	87.8
0.0015	-0.0023	-0.0053	0	87.6
0.0007	-0.0046	-0.0091	0.0007	87.6
-0.0008	-0.003	-0.0083	-0.0015	87.7
0.0015	-0.003	-0.003	-0.003	87.7
0.0007	-0.003	-0.0046	-0.0008	87.7
-0.0015	0	-0.0008	-0.0008	87.6
-0.0008	0.0007	0.0015	-0.0015	87.9
0	-0.0008	-0.0008	-0.0015	87.7
0.0007	-0.0008	-0.0015	-0.0008	87.9
0.0007	0.0015	-0.0023	-0.0008	87.6
-0.0008	0.0015	-0.0053	-0.0038	87.9
-0.0015	0.0015	-0.0075	-0.0023	87.7
-0.0015	0.0015	-0.0105	-0.0015	87.8
-0.0008	0.0007	-0.0143	0	87.8
-0.0015	-0.0008	-0.0105	0.0007	87.8
0.0007	-0.0015	-0.0083	-0.0015	87.8
0.0007	-0.0015	-0.0083	-0.0008	87.9
0.0007	-0.0008	-0.0068	-0.0008	87.8
-0.0008	0.0007	-0.0075	0	87.8
-0.0015	-0.0008	-0.0083	0.003	87.8
0	0.0007	-0.0083	0.0022	87.8
-0.0015	0.0007	-0.0091	0.0052	87.8
-0.0008	0.0022	-0.0083	0.0052	87.7
-0.0023	0.003	-0.0068	0.0045	87.9
-0.0015	0.0037	-0.006	0.0067	87.7
-0.0008	0.0037	-0.006	0.0052	87.9
-0.0008	0.0015	-0.0053	0.0045	87.9
0.0015	0.0022	-0.0105	0.0045	87.9
0.0022	0.0015	-0.0128	0.0037	88
0.0045	0.0015	-0.0113	0.0052	87.9
0.0022	0.0015	-0.012	0.006	88
0.0015	0.003	-0.0105	0.0052	87.8
0.0015	0.0015	-0.0083	0.0045	88
-0.0023	0.0007	-0.0046	0.003	88.1
-0.003	0.0015	-0.0015	0.0037	88
-0.0046	0.0007	0.0007	0.003	88.1
-0.0046	0.0007	0.0052	0.0022	88
-0.0015	0.0007	0.006	0.0015	88.2
-0.003	0.0015	0.006	0.0022	88
-0.0015	0.003	0.0045	0.0022	88.2
0	0.0022	0.0067	0.0022	88
-0.0008	0.003	0.009	0.0015	88.2
-0.0015	0.0022	0.0097	0.0022	88
-0.003	-0.0008	0.0105	0.0015	88.1
-0.0023	0.0007	0.009	0.0015	88
-0.0046	0.0022	0.0105	0.0007	88.2
-0.0046	0.0015	0.009	0	88
-0.0015	0.003	0.0082	0.003	88.2
-0.0015	0.003	0.009	0.003	88
-0.0008	0.0015	0.0082	0.0015	88
0	-0.0008	0.0067	0.0007	88.1
-0.0008	-0.0015	0.0075	0.0007	88.1
-0.0008	-0.0008	0.0082	0.0015	88.4
-0.0023	0.0015	0.0082	0.0007	88
-0.0023	0.0015	0.0075	0.0007	88.3
-0.0015	0.0007	0.0075	0.0015	87.9
-0.0023	0.0015	0.0105	0.0007	88.3
-0.0015	0	0.0112	0.003	88
-0.0015	-0.0008	0.0082	0.0045	88.3
0.0007	0.0007	0.0082	0.0022	88.1
0.0022	-0.0008	0.0082	0.0015	88.2
0.003	-0.0015	0.006	0.003	88.1
0.0022	-0.0023	0.0082	0.003	88.3
0.0015	-0.0015	0.0105	0	88.2
0.0007	-0.0015	0.0105	0.0015	88.2
0.0007	-0.0015	0.0105	0.0007	88.3
0.0022	-0.0015	0.009	0	88.3
0.0037	-0.0015	0.0067	0.0015	88.2
0.0052	-0.0023	0.0045	0.0007	88.1
0.0052	-0.0023	0.0015	0	88.4
0.003	-0.0015	-0.0015	0.0007	88.2
0.0007	-0.0015	-0.003	0	88.3
0.0015	-0.0023	-0.0015	0.0007	88.2
-0.0008	-0.0038	-0.0008	0.0015	88.3
-0.0008	-0.0046	-0.0015	0.0007	88.2
0.0015	-0.003	-0.0008	-0.0015	88.3
0.003	-0.0023	0.0007	-0.0015	88.3
0.0015	-0.0015	0.0007	-0.0008	88.3
0.0015	-0.0008	0.0007	-0.0008	88.3
0.0015	0.0015	0.0007	0.0007	88.2
0.0022	0.0022	0	-0.0008	88.5
0.0015	0.0037	0.0007	-0.0008	88.2
0.0007	0.0045	-0.0008	-0.0015	88.3
0.0007	0.0045	-0.0015	-0.0008	88.2
-0.0008	0.0052	-0.003	-0.0015	88.2
0	0.0052	-0.003	-0.0015	88.2
-0.003	0.0052	-0.0046	-0.0008	88.3
-0.0008	0.0045	-0.0053	-0.0008	88.2
0.003	0.0037	-0.0053	0.0015	88.2
0.0007	0.0045	-0.0068	0.0022	88.3
0.0015	0.0045	-0.0053	0	88.2
0.0007	0.003	0	-0.0008	88.3
-0.0015	0.0037	-0.0008	-0.0015	88
-0.0008	0.003	0.0007	-0.0008	88.2
-0.0008	0.003	0.0045	0.0007	88.2
0	0.0037	0.0045	-0.0008	88.3
0.0015	0.003	0.006	-0.0008	88.2
-0.0015	0.003	0.0045	-0.0015	88.2
-0.0015	0.0015	0.003	-0.0015	88.3
-0.0023	0.0007	0.0015	-0.0015	88.2
-0.0015	0.0015	-0.0008	-0.003	88.2
0.0007	0	-0.0008	-0.003	88.2
-0.0015	0.0007	-0.003	-0.0038	88.2
-0.0023	0.0022	-0.0015	-0.003	88.1
-0.0015	0.0015	0	-0.0008	88.2
-0.0015	0.0015	-0.0008	-0.0008	88.1
-0.0015	0.0022	-0.0008	-0.0015	88.3
-0.003	-0.0008	-0.0015	-0.0008	88.1
0	-0.0008	-0.003	0	88.1
-0.0008	-0.0008	-0.0046	0.0007	88.1
-0.0015	-0.0008	-0.0053	0.0015	88.2
0	-0.0008	-0.0068	0.0015	88.1
-0.0015	-0.0015	-0.0053	0.0015	88.3
-0.0015	0	-0.003	0.0022	88.2
-0.003	-0.0015	-0.0008	0.0022	88
-0.0038	-0.003	0.0015	0.003	88.1
-0.0008	-0.003	-0.0008	0.0007	88.1
-0.0008	-0.0015	-0.0046	0.0007	88.2
-0.0015	-0.0008	-0.0046	0.0015	88
-0.003	-0.0015	-0.0046	0.0007	88.2
-0.0023	-0.0015	-0.0046	0.0015	88.1
-0.0008	-0.003	-0.0038	-0.0008	88.1
0.0007	-0.003	-0.0015	0	88.1
0.0007	-0.0008	0.0007	-0.0008	88.2
-0.0015	-0.0008	0.003	-0.0008	88
0.0007	-0.0015	0.003	-0.0015	88.1
0.0015	-0.0015	-0.0008	-0.0023	88.2
0.0007	-0.0008	-0.0008	-0.0015	88
0.0015	-0.0008	-0.0023	-0.0015	88.1
0	-0.0008	-0.006	-0.003	87.9
-0.0008	-0.0015	-0.0075	-0.0015	87.8
-0.0008	-0.0023	-0.0083	-0.0015	88
-0.0008	-0.0015	-0.0105	-0.0023	87.8
0.0007	0	-0.0098	-0.003	87.8
0.0015	0.0007	-0.0098	-0.0008	87.8
0.0007	0.0022	-0.0091	0	88
0	0.003	-0.0068	0	87.7
-0.0008	0.0037	-0.0053	0.0007	88
-0.0015	0.0045	-0.0068	0.0007	87.8
-0.0015	0.0052	-0.0068	0.0015	87.9
-0.0015	0.0052	-0.006	0.0037	87.7
-0.0008	0.0075	-0.0053	0.0037	87.9
0.0007	0.0052	-0.006	0.003	87.7
-0.0008	0.0045	-0.0068	0.0022	87.8
0	0.003	-0.0075	0.0015	87.5
0.0007	0.0015	-0.006	0.0007	87.7
0.0007	0.0015	-0.003	0.0007	87.7
0.0007	-0.0008	-0.0015	0.0015	87.8
0.0015	0.0007	-0.0008	0.0007	87.7
-0.0008	-0.0008	-0.003	0.0015	87.7
0.0015	-0.0015	-0.003	-0.0008	87.7
0.003	-0.0008	-0.0038	-0.0015	87.3
0.0007	-0.0023	-0.0046	-0.0015	87.6
-0.0008	-0.0008	-0.003	-0.0023	87.3
-0.0008	0.0007	-0.003	-0.0015	87.5
0.0015	0	-0.003	0	87.3
0	0.0015	0	-0.0008	87.5
-0.0015	0.0007	0.0052	0	87.2
-0.0015	-0.0008	0.009	0.0007	87.4
-0.0023	0	0.009	0.003	87.3
-0.0008	0.0015	0.0097	0.0015	87.3
0.0022	0.0015	0.009	0.0015	87.3
0.0007	0.0007	0.0067	0.003	87.2
-0.0015	0.0007	0.0045	0.0015	87.2
-0.0008	0.0007	0.0015	0.0007	87.1
0.0007	0.0007	0.0007	0.0015	87.2
0.0007	-0.0008	0.0015	0.0022	87.1
-0.0015	-0.003	0.0015	0.0015	87.2
-0.0008	-0.0015	0.0037	0.0015	87.1
0.0007	-0.0015	0.0045	0.0015	87.2
-0.0015	-0.0015	0.003	0.0015	87
-0.0038	-0.0015	0.003	0.0022	86.9
-0.0008	-0.0008	0.0037	0.0015	86.9
-0.0008	0	0.0052	0.0015	86.9
-0.0008	0	0.0082	0.0007	86.9
0	-0.0015	0.0082	0.0015	86.6
-0.0015	-0.0008	0.0097	0.0015	87
-0.0008	0	0.0105	0.0007	86.8
0	-0.0008	0.0105	-0.0008	86.7
0.0007	0.0007	0.012	-0.0008	86.8
0	0.0022	0.0082	0.0007	86.7
0.0007	0.003	0.009	0.0015	86.8
0.003	0.003	0.0097	0.003	86.5
0.0015	0.003	0.0097	0.003	86.6
0.0007	0.0015	0.0127	0.0022	86.6
0	0.0007	0.0127	0.003	86.5
0.0007	0	0.0135	0.0022	86.4
0.003	0.0007	0.012	0.0022	86.4
0.0015	0.0015	0.009	0.0015	86.3
0.0007	-0.0008	0.0067	-0.0008	86.3
0.0015	-0.0015	0.003	0	86.1
0.0007	-0.0015	0.0022	-0.0008	86.3
-0.0008	0.0007	0.0015	-0.003	86
-0.0015	0.0007	0	-0.003	86
-0.0008	0.0007	-0.0008	-0.0023	86.1
0	0	-0.003	-0.0023	86
0.0015	-0.0023	-0.003	-0.003	86.1
0.0007	-0.0023	-0.003	-0.003	85.9
-0.0008	-0.0038	-0.003	-0.0046	86
0.0007	-0.0053	-0.003	-0.0038	85.7
0	-0.0053	-0.0053	-0.003	85.9
0.0007	-0.0046	-0.0046	-0.003	85.5
0	-0.0038	-0.0038	-0.0023	85.8
-0.0023	-0.0046	-0.003	0	85.5
-0.0008	-0.0038	-0.003	0.0015	85.7
-0.0008	-0.003	-0.0053	0.003	85.3
-0.003	-0.0015	-0.0053	0.003	85.6
-0.003	-0.0008	-0.0046	0.0015	85.4
0	0	-0.0038	0.0007	85.3
0.003	-0.0008	-0.003	0.0007	85.2
0.0007	0.0007	-0.0015	0.0015	85.3
0.0007	0.0015	0.0007	0.0007	85.2
0.0007	0.0015	-0.0008	0	85.2
-0.003	0.0022	-0.0015	0	85.1
0	0.0037	-0.003	0	84.9
-0.0015	0.003	-0.0046	0	85
-0.0008	0.0045	-0.003	-0.0008	84.9
-0.0008	0.0037	-0.0038	-0.0008	84.9
-0.0015	0.003	-0.0053	-0.0015	84.8
-0.0008	0.003	-0.0053	-0.003	84.7
0	0.0015	-0.006	-0.0023	84.6
-0.0023	0	-0.0068	-0.0015	84.6
-0.0015	0	-0.0038	-0.0023	84.6
0	0	-0.003	-0.003	84.5
-0.003	0	-0.003	-0.0023	84.6
-0.0015	-0.0008	-0.0046	-0.0008	84.4
-0.0008	-0.0008	-0.003	0.003	84.5
-0.0008	0.0007	-0.0015	0.003	84.2
-0.0008	0.0015	-0.0015	0.003	84.2
-0.0008	0.0015	-0.0008	0.003	84.3
-0.0008	0.003	-0.0008	0.0015	84.1
0.0007	0.003	-0.0023	0.0007	84.1
0.0007	0.0022	-0.0046	0.0015	84
-0.0015	0.0037	-0.0046	0.003	84
-0.0015	0.003	-0.0015	0.003	83.7
-0.003	0.0045	-0.0015	0.0052	83.8
-0.003	0.0052	0.003	0.0052	83.7
-0.0015	0.0022	0.003	0.0045	83.6
-0.0015	0.0015	0.0015	0.0052	83.6
-0.0038	0.0007	0	0.0067	83.6
-0.006	0	-0.0015	0.0052	83.4
-0.0091	0	-0.0015	0.0045	83.3
-0.006	0.0015	0	0.0045	83.3
-0.003	0.003	0.0015	0.003	83.3
-0.0053	0.003	0.0022	-0.0008	83.2
-0.0098	0.0022	0.0052	0.0015	83
-0.0195	0.0015	0.0052	0.0015	83.2
-0.0181	0.0015	0.0045	0.0007	82.9
-0.012	0.0007	0.0052	0	82.9
-0.0105	-0.0008	0.0052	-0.0008	82.8
-0.0038	-0.0015	0.0022	-0.0015	82.8
-0.0038	-0.0008	0	-0.0015	82.6
0	-0.0015	0	-0.0008	82.7
0.0015	-0.0015	0.0015	-0.0015	82.5
0.0022	-0.0015	0.0015	-0.0023	82.5
0.0052	-0.0008	0	-0.0015	82.5
0.0052	-0.0008	-0.0008	-0.0023	82.3
0.0075	-0.0015	0	-0.0023	82.3
0.0045	-0.0015	-0.0008	-0.0015	82.3
-0.0023	-0.0023	-0.0015	-0.0015	82.2
-0.0105	-0.003	-0.003	-0.0015	82
-0.0091	-0.003	-0.0023	-0.0023	82.2
-0.0053	-0.003	-0.0008	-0.003	82
-0.0046	-0.0015	0.0007	-0.0015	81.9
0.0007	-0.0015	0.0015	-0.0008	81.8
0.0015	-0.0008	0.0037	-0.0015	81.7
0.003	-0.0023	0.0015	-0.0015	81.6
0.0037	-0.003	-0.0008	-0.0008	81.5
0.003	-0.0023	-0.0008	0.0015	81.6
0.0067	-0.0008	-0.0008	0.003	81.4
0.0075	0.0007	0	0.003	81.4
0.0082	0.0007	-0.0008	0.0015	81.1
0.0105	0.0007	-0.0015	-0.0008	81.2
0.009	-0.0008	-0.0038	-0.0008	81.1
0.0075	0.0007	-0.003	-0.0015	81
0.0045	0.0015	-0.003	-0.0008	81
0.003	0.0015	-0.003	-0.0008	81
0.0045	0.0015	-0.0038	-0.0023	80.8
0.006	0.003	-0.0046	-0.003	80.8
0.006	0.0015	-0.003	-0.0015	80.9
0.0052	0	-0.003	-0.0023	80.5
0.0045	-0.0008	-0.0008	-0.003	80.6
0.003	-0.0008	0.0015	-0.003	80.4
0.0052	0.0007	-0.0008	-0.0023	80.5
0.0052	0.0007	0.0015	-0.0015	80.3
0.0045	0.0015	0.003	-0.0023	80.3
0.0052	0.0015	0.0037	-0.0008	80.1
0.0045	0.003	0.0052	0	80.1
0.0037	0.0022	0.006	0.0007	79.9
0.0037	0.0007	0.0075	0.0007	79.9
0.003	0.0007	0.0082	-0.0008	79.9
0.0045	0.0007	0.0045	0	79.8
0.0037	-0.0015	0.0022	0.0015	79.7
0.0007	-0.0015	0	-0.0008	79.6
-0.003	-0.0008	-0.0015	-0.0023	79.7
-0.003	-0.0015	-0.003	-0.0015	79.3
-0.003	-0.0015	-0.003	-0.0008	79.6
-0.003	-0.0008	-0.0015	-0.0008	79.2
-0.0023	0.0015	-0.0008	-0.0008	79.2
-0.003	0.0015	-0.0015	0	79
-0.0023	0.0007	-0.0008	0.0007	79.1
-0.0046	0.0007	-0.0008	0.0007	79
-0.0046	0.0007	0.0007	0.0007	79
-0.0015	0	0.0007	0.0015	78.7
-0.003	0.0007	-0.0015	0.0022	78.7
-0.0023	0.0015	-0.0015	0.003	78.6
-0.0015	0.0007	0.0007	0.003	78.6
0.0037	0.0007	0.0007	0.0015	78.4
0.0082	-0.0015	0.0037	0	78.3
0.0037	-0.0008	0.0045	0.0015	78.5
0.0007	0.0007	0.0045	0.0022	78.2
0.0007	-0.0008	0.0045	0.0022	78.3
0.003	0	0.0037	0.003	77.9
0.0037	0.0015	0.0037	0.0052	78
0.0007	0.0015	0.003	0.0045	77.8
-0.0023	0.0007	0	0.0045	77.9
-0.0008	-0.0015	-0.003	0.0037	77.6
0.0007	0	-0.0038	0.0037	77.7
-0.0046	0.0007	-0.0046	0.003	77.3
-0.0038	0.0015	-0.0038	0.0022	77.4
-0.003	0.0015	-0.0015	0.0022	77.3
-0.003	-0.0008	-0.0015	0.0015	77.1
-0.0015	-0.0023	-0.0046	0.0015	77.1
-0.0015	-0.0008	-0.0046	0.0022	77.1
-0.0023	0.0015	-0.003	0.0015	77.1
-0.0015	0.0007	-0.003	0.0007	76.9
-0.0008	0.0007	-0.0008	0.0015	76.9
-0.0038	0.0007	0.003	0.0015	76.7
-0.003	-0.0008	0.0045	0.003	76.5
-0.0015	-0.0015	0.0045	0.0015	76.6
-0.0008	-0.003	0.0052	0.003	76.4
-0.0008	-0.003	0.0045	0.003	76.3
0	-0.0008	0.003	0.0015	76.2
0.0007	0.0007	0	0.0007	76.3
0.0007	0.0007	-0.0015	0.0015	75.9
0.0007	0.0015	-0.0023	-0.0008	76.1
-0.0008	0.003	-0.0015	-0.0008	75.9
0.0007	0.0015	-0.003	-0.0008	75.8
0.0007	0.0015	-0.0015	-0.0015	75.5
-0.0008	0.0022	-0.0008	-0.0015	75.6
0.0007	0.0007	-0.0015	-0.0008	75.5
0.0015	0.0015	-0.0015	-0.0008	75.4
0	0.0015	-0.0015	-0.0008	75.3
0.0015	0.0007	-0.0015	0.0007	75.1
0.0007	-0.0008	-0.0015	0	75.3
-0.0008	-0.0008	-0.0015	0.0007	75.1
-0.0023	-0.0008	-0.0015	0.0007	75
-0.0023	-0.0023	-0.0015	0.0007	74.7
0.0015	-0.003	-0.003	0.003	75
0.0007	-0.0023	-0.006	0.0045	74.5
0	-0.0046	-0.0046	0.0052	74.7
0.0007	-0.0023	-0.003	0.0045	74.4
0.0007	-0.0015	-0.0015	0.0045	74.6
0.0022	-0.003	-0.0023	0.0045	74.3
0.0007	-0.003	-0.0015	0.0037	74.3
0.0007	-0.0038	0.0007	0.003	74.2
0.0007	-0.003	0.0022	0.0022	74
0.0007	-0.0023	0.0022	0.003	74
0.0015	-0.0023	0.0007	0.0015	73.7
-0.0015	-0.0023	-0.0008	0.0007	73.8
-0.0038	-0.0015	-0.003	0.0015	73.4
-0.0015	-0.0008	-0.0023	0.0015	73.5
-0.0008	0	-0.0008	0.0045	73.4
-0.0038	0.0007	0	0.0052	73.4
-0.0068	0.0015	0	0.0052	73.2
-0.0075	0.0007	0.0022	0.0052	73.3
-0.006	0.0022	0.0015	0.0052	72.8
-0.0068	0.003	0.0007	0.0052	72.9
-0.0046	0.0022	0.003	0.0052	72.8
-0.0008	0.0037	0.0007	0.0052	72.8
0.0007	0.0045	0.0007	0.0037	72.6
0.0007	0.003	0.0015	0.0045	72.4
-0.0015	0.0007	0.0015	0.003	72.5
-0.0008	0.0007	0.0022	0.0015	72.3
0	0.0015	0.003	0.0015	72.3
-0.0008	0.0015	0.003	-0.0015	72
-0.0008	0.0007	0.0045	-0.0008	72.1
-0.003	0.0007	0.0037	-0.0023	71.8
-0.0053	0.0022	0.0022	-0.0015	71.9
-0.0068	0.0015	0.0022	0.0007	71.7
-0.0038	0.0015	0.0015	-0.0015	71.7
-0.0038	0.003	0.0022	0.0007	71.5
-0.0046	0.0022	0.0007	0.0022	71.4
-0.0008	0.0015	0	0.003	71.4
0.0022	0	0.0007	0.003	71.2
0.0045	-0.0008	-0.0008	0.0022	71.1
0.0007	-0.0008	0	0.0015	71.1
-0.003	0	-0.0046	0.0015	70.9
0	0	-0.0046	0.0015	70.9
0.003	0.0007	-0.003	0.0007	70.9
0.0007	-0.0008	-0.003	0	70.8
0.0007	0	-0.0015	-0.0015	70.7
-0.0038	0.0007	-0.0015	-0.0008	70.6
-0.0046	0.0007	0	-0.0023	70.3
-0.0023	0	0	-0.0038	70.5
-0.0023	0.0007	0.0007	-0.003	70.2
0	0.0007	-0.0008	-0.003	70.1
-0.0015	0	-0.0015	-0.0015	69.8
-0.0015	0	0	-0.0015	70
0	-0.0015	0.0015	-0.0008	69.7
0.0015	-0.0015	0.0022	-0.0008	69.7
0.0007	-0.0015	0.0007	-0.0015	69.7
0.0007	0	-0.0015	-0.0008	69.4
0.003	0.0007	-0.0015	-0.0023	69.5
0.0015	0.0007	-0.0008	-0.003	69.2
0.0045	0.0007	-0.0015	-0.0038	69.4
0.0067	-0.0008	-0.0015	-0.0046	69.1
0.0067	0.0007	-0.0023	-0.0046	69
0.0052	0.0007	-0.003	-0.0053	68.8
0.0052	0.0015	-0.003	-0.0053	68.8
0.0052	0.0022	0.0015	-0.0068	68.6
0.003	0.003	0.0037	-0.0046	68.7
0.003	0.0045	0.0022	-0.0046	68.5
0.0015	0.0052	0.0052	-0.0053	68.5
0.0015	0.0052	0.009	-0.0046	68.3
0.0022	0.0045	0.0082	-0.0038	68.3
0.0015	0.003	0.0037	-0.0046	68.1
0.003	0.003	-0.0023	-0.0053	67.9
0.0015	0.0015	-0.0046	-0.0068	68
0	-0.0008	-0.0046	-0.0046	67.8
0	0.003	-0.0008	-0.0046	67.7
0.0022	0.0022	-0.0015	-0.006	67.5
-0.0015	0.003	-0.003	-0.0046	67.5
-0.003	0.0045	-0.0008	-0.0015	67.2
-0.0038	0.0037	-0.0008	0	67.4
-0.0046	0.003	-0.0015	-0.0008	67.1
-0.0023	0.003	-0.003	0.0015	67.1
-0.0015	0.0015	-0.0053	0.0007	66.8
-0.0053	0.0007	-0.0053	-0.0008	66.9
-0.0083	0.0007	-0.0075	-0.0008	66.8
-0.0038	-0.0008	-0.0068	0	66.6
-0.003	0	-0.0046	0.0022	66.7
-0.0023	-0.0015	-0.003	0.0007	66.3
-0.0015	-0.0008	-0.0015	0	66.3
-0.0015	0.0007	0.0015	0.0007	66.2
0.0015	0.0015	0.0015	0	66.2
0.0037	0.0015	0.0015	0.0007	66.1
0.0067	-0.0015	0.0007	0	65.9
-0.0008	-0.0015	-0.0015	0.0007	66.1
-0.0046	-0.0015	-0.0023	0.0015	65.7
-0.0015	-0.0023	-0.0015	-0.0008	65.7
-0.0008	-0.003	-0.0015	0.0007	65.6
0.0037	-0.0023	-0.0008	0.0015	65.6
0.0015	-0.0015	0.0015	0	65.4
0.0015	-0.003	0.003	0.0015	65.4
0.003	-0.003	0.0022	0.0037	65.2
0.0022	-0.003	0.0007	0.0037	65.3
0.0007	-0.0008	0.0007	0.0015	65
0.0007	-0.0015	0.0022	-0.0008	65.1
-0.0008	-0.0015	0.0037	0.0007	64.8
-0.0068	-0.0008	0.0022	0.0015	64.8
-0.0091	-0.0008	0.003	0.0007	64.6
-0.0068	0.0007	0.003	-0.0008	64.4
-0.0083	-0.0008	0.003	-0.003	64.6
-0.0105	0.0007	0.0015	-0.003	64.2
-0.0091	0.0007	0.0015	-0.0015	64.4
-0.0083	0.003	0.003	-0.0015	64.2
-0.0068	0.0052	0.003	0.0007	64.1
0.0007	0.006	0.0022	0.0015	63.9
-0.0015	0.006	0.0052	0.0015	63.9
-0.0023	0.0045	0.0082	0.003	63.7
-0.0008	0.003	0.0052	0.0037	63.7
-0.0023	0.0022	0.0037	0.0045	63.6
-0.0008	-0.0008	0.003	0.0052	63.5
0.0015	0.0007	0.0022	0.006	63.4
0.0045	0.0007	0.0007	0.006	63.4
0.0045	-0.0015	-0.0008	0.0045	63.3
0.0045	-0.0015	-0.0008	0.003	63.2
0.006	-0.003	-0.0023	0.0015	63
0.0075	-0.003	-0.0015	0.0015	63
0.006	-0.0015	-0.0008	0.003	62.9
0.0045	-0.0015	0	0.0015	62.7
0.003	-0.0008	-0.0008	0.0015	62.6
0.0007	0	-0.0015	0.0045	62.6
0	0.0007	-0.0023	0.0037	62.4
0.0015	0.0015	-0.0046	0.0015	62.5
-0.0008	0.0015	-0.0053	0.0022	62.2
-0.0046	0.003	-0.0046	0.0007	62.3
-0.003	0.003	-0.0008	0.0007	62
-0.0015	0.0022	-0.0008	0.0007	62.2
-0.0023	0.003	-0.0008	-0.0023	61.8
-0.0046	0.003	0.0007	-0.0023	61.8
-0.0038	0.0015	0.0015	-0.003	61.8
-0.003	0.0015	0.003	-0.0038	61.7
-0.0053	0.0007	0.0045	-0.003	61.6
-0.003	-0.0008	0.003	-0.0046	61.3
-0.0015	-0.0008	0.0007	-0.0046	61.5
0.0007	-0.0008	0.0007	-0.003	61.1
0	-0.0015	0.0015	-0.0008	61.3
0	-0.003	0.0015	-0.0015	61.1
0.003	-0.003	0.0007	-0.0015	61.2
0.003	-0.0023	-0.0008	0	60.8
0.0015	-0.0015	-0.0008	0.0015	60.9
-0.0015	0.0007	-0.0015	0.0015	60.6
-0.003	0.0007	-0.0023	0.0007	60.7
-0.0015	0.0015	-0.0038	0.0015	60.5
-0.0015	0.0007	-0.0023	0.0015	60.6
-0.0015	0	-0.0015	0.0007	60.4
-0.0008	0.0007	-0.003	0.0015	60.3
-0.0008	0.0007	-0.003	0.0015	60.2
-0.0015	0.0007	-0.0015	0	60.1
-0.0038	0.0007	-0.0023	0.0007	60.1
-0.003	0.0007	-0.0008	0	59.8
-0.003	0.0007	0.003	0.0015	59.9
-0.0015	-0.0008	0.003	0.003	59.6
-0.003	-0.0008	0.0045	0.0037	59.7
-0.0046	-0.0015	0.0045	0.0022	59.5
-0.0023	-0.0023	0.0045	-0.0008	59.4
0.0007	-0.0015	0.0015	-0.0015	59.3
0.0007	-0.0015	0.0007	-0.0023	59.3
-0.0008	-0.003	0.0007	-0.0046	59.1
-0.0008	-0.0046	0.0007	-0.0068	59.1
-0.0008	-0.0046	-0.0008	-0.0046	59
0.0007	-0.0053	-0.0015	-0.0053	59
0.003	-0.003	-0.0008	-0.0053	58.8
0.0015	-0.0015	-0.0008	-0.0038	58.8
-0.0015	0.0007	-0.0008	-0.0015	58.8
-0.0053	0.0015	-0.0046	-0.0015	58.5
-0.0068	0.0007	-0.0046	-0.0008	58.6
-0.0068	0.0015	0	-0.0008	58.5
-0.0053	0.003	-0.0015	-0.0015	58.2
-0.0068	0.0045	-0.0046	0	58.3
-0.0075	0.0037	-0.0038	0.0015	58
-0.0046	0.0037	-0.003	0.0015	58
0	0.003	-0.0046	0.0015	58
0.0052	0.003	-0.0046	0.0015	58
0.0022	0.0022	-0.0046	0.0007	57.8
-0.003	0.0015	-0.0053	0.0007	57.9
-0.003	0.0007	-0.0053	0.0007	57.5
-0.0023	-0.0015	-0.0046	0.0015	57.5
-0.003	-0.003	-0.0038	0.003	57.6
-0.0023	-0.0015	-0.003	0.003	57.4
-0.0015	-0.0015	-0.0023	0.0022	57.3
0	-0.0008	-0.0038	0.003	57.1
0	0.0007	-0.0046	0.0037	57.1
0.0007	0	-0.003	0.0045	57
0.0007	-0.0008	-0.003	0.0037	57.1
0	-0.0015	-0.0015	0.003	56.8
0.0007	-0.0008	0	0.003	56.9
0.0015	-0.0015	0.003	0.0007	56.7
0.0022	-0.0015	0.0022	0.0015	56.7
0.003	-0.0015	0.0007	0.0022	56.6
0.0037	-0.0038	0.003	0.0007	56.5
0.0015	-0.0046	0.0037	-0.0008	56.5
-0.0008	-0.0046	0.0037	-0.0008	56.2
-0.0015	-0.0038	0.003	-0.0008	56.1
-0.0008	-0.003	0.0015	-0.0008	56.2
0.0067	-0.0008	0.0007	-0.0008	56.1
0.0067	-0.0008	-0.0008	0.0007	56.1
0.0067	0.0007	0.0007	0.0022	56
0.0105	0.0015	0.0007	0.0015	55.8
0.009	0.0015	0.0022	0.0015	55.8
0.0037	0.0015	0.0015	0.0022	55.7
-0.0008	0.003	0.003	0.0022	55.7
0	0.0045	0.0037	0.0015	55.7
-0.0038	0.003	0.0045	0.0007	55.4
-0.0053	0.003	0.0052	0.0007	55.5
-0.003	0.003	0.003	0	55.2
-0.0046	0.003	0.0015	0.0007	55.3
-0.0023	0.003	0.0007	0.0007	55.1
0.0015	0.003	0.0015	0.0015	55.1
0.0037	0.0045	0.0022	0.0007	55.1
0.0052	0.0015	0.0007	-0.0008	55
0.0075	0.0022	0.0015	0	54.9
0.0082	0.0022	0.0045	0.0007	54.9
0.0022	0.0015	0.0037	0.0007	54.9
0.0022	0.0022	0.0007	-0.0015	54.7
0.003	0.0022	-0.0015	-0.0023	54.8
0	0.0037	-0.0008	-0.003	54.4
0.0022	0.0022	0.0022	-0.0015	54.6
0.0037	0.0015	0.0022	-0.0015	54.2
0.0015	0.0015	0.006	-0.0046	54.3
0.0022	-0.0008	0.0082	-0.0023	54.1
0.0045	-0.0015	0.0067	-0.0015	54.3
0.003	-0.0008	0.006	-0.0015	54
0.0007	0.0015	0.0045	-0.0008	54
-0.0015	0.003	0.0037	-0.0023	53.8
-0.0068	0.003	0.0037	-0.0015	54
-0.0083	0.003	0.0037	-0.0015	53.9
-0.0068	0.003	0.0007	-0.003	53.7
-0.006	0.0015	-0.0046	-0.0046	53.6
-0.0068	0.0015	-0.0075	-0.0046	53.4
-0.0091	0.0015	-0.0091	-0.0038	53.5
-0.0128	0.0007	-0.0083	-0.0046	53.4
-0.0091	-0.0008	-0.0083	-0.0038	53.6
-0.0053	-0.0008	-0.0075	-0.0023	53.3
-0.0098	-0.003	-0.0068	-0.0023	53.4
-0.0128	-0.0038	-0.0098	-0.0015	53.1
-0.0091	-0.0046	-0.0105	0.0007	53.1
0	-0.0046	-0.0068	0.0007	52.9
0.0015	-0.0023	-0.0038	0.0015	53
0.0045	-0.0023	-0.0015	0.0015	53
0.006	-0.0015	0.0015	0.0015	52.9
0.009	-0.0008	0.0052	0.0045	52.7
0.012	-0.0015	0.006	0.0045	52.7
0.012	-0.0015	0.0075	0.0052	52.7
0.0127	0	0.0067	0.0045	52.8
0.0105	0.0007	0.0067	0.0045	52.6
0.003	0.0015	0.0067	0.0045	52.4
-0.003	0.0015	0.0037	0.0045	52.6
-0.006	0.0015	0.003	0.003	52.5
-0.0038	0	0.0015	0.0015	52.3
-0.0023	0.0007	-0.0008	0	52.2
-0.0008	0.0015	-0.0015	-0.0008	52.2
-0.0008	0	-0.0015	0	52.2
-0.0008	-0.0015	-0.0008	0	51.9
-0.0023	-0.0015	-0.0015	0.0007	52.1
-0.0068	-0.0015	-0.003	0.0015	51.7
-0.0068	-0.003	0.0007	0.0015	52.1
-0.0068	-0.0008	0.003	0.0015	51.7
-0.0053	-0.0008	0.0022	0	51.7
-0.0046	-0.0008	0.0007	0.0007	51.6
0	-0.0015	-0.0015	0.0022	51.7
0.0067	-0.0015	-0.0023	0.003	51.5
0.0105	-0.0008	-0.0023	0.003	51.4
0.0127	-0.0008	-0.003	0.0022	51.6
0.0112	0.0007	-0.003	0.0015	51.2
0.0045	0	-0.0038	-0.0008	51.4
-0.0015	-0.0015	-0.0053	-0.003	51.1
0	-0.0008	-0.0053	-0.003	51.2
0.0015	-0.0008	-0.006	-0.0015	50.9
0.003	-0.0008	-0.0053	-0.0023	51.1
0.0052	0	-0.0046	-0.0008	50.9
0.003	0.0007	-0.0015	-0.0008	50.9
-0.0023	0	-0.0008	-0.0008	50.8
-0.0083	0	-0.0008	0	50.8
-0.0083	0.003	0.0007	-0.0008	50.8
-0.0083	0.003	0.0007	-0.0008	50.6
-0.0091	0.0045	0	-0.0008	50.6
-0.0105	0.0045	0	-0.0008	50.5
-0.0075	0.003	-0.0015	-0.0015	50.6
-0.0008	0.003	-0.0023	-0.0015	50.3
0.0015	0.0007	-0.0008	0	50.6
-0.0008	0.0015	0.0015	0	50.2
-0.0046	0.003	0.0022	0	50.5
-0.0068	0.0037	0.0007	0	50.1
-0.006	0.0037	0.0045	0.0015	50.2
-0.0046	0.003	0.0082	0.0022	50
-0.0015	0.0022	0.0082	0.003	50.1
0.003	0.0015	0.0082	0.003	50
0.0045	0.0007	0.0075	0.0022	49.9
0.0037	0.0007	0.0045	0.003	50.1
0.0007	0.0022	0.0037	0.003	49.9
-0.0015	0.003	0.0015	0.003	49.9
-0.0015	0.0045	-0.0008	0.0015	49.7
0.0007	0.003	-0.003	0.0015	49.7
0.0052	0.0007	-0.006	0.0037	49.7
0.0037	0.0015	-0.0053	0.0022	49.5
0.0052	0.0015	-0.0053	0.0015	49.5
0.003	0.0015	-0.0038	0.0007	49.5
0.0015	0.0007	-0.003	0.003	49.4
0.0007	0	-0.003	0.0015	49.4
-0.0023	-0.0008	-0.0023	0.0007	49.3
-0.0046	-0.0015	-0.0008	0.0015	49.3
-0.0015	-0.0023	0.0007	-0.0015	49.2
0	-0.0023	0.0007	-0.0015	49.1
-0.0008	-0.0015	0.0007	-0.003	49.2
0.0007	-0.0015	-0.0023	-0.0023	49
-0.003	-0.003	-0.0038	-0.0015	49
-0.0053	-0.003	-0.006	-0.0015	49
-0.0068	-0.0038	-0.0038	-0.003	49
-0.0053	-0.0023	-0.003	-0.003	48.9
-0.0023	-0.0008	-0.003	-0.0015	48.8
-0.0038	-0.0023	-0.0015	-0.0015	48.9
-0.0023	-0.0015	-0.0008	-0.0023	48.6
0.0037	-0.0008	0.0015	-0.003	48.7
0.006	-0.0015	0.0052	-0.003	48.5
0.0022	-0.003	0.006	-0.0023	48.6
-0.0008	-0.003	0.0067	-0.0023	48.4
0.0015	-0.0023	0.0082	-0.0023	48.5
0.0022	-0.0015	0.009	-0.0023	48.3
0.0015	0	0.0097	0.0007	48.6
0.0052	-0.0008	0.0075	0.0022	48.4
0.003	-0.0023	0.0045	0.003	48.2
0.0007	-0.0008	0	0.003	48.2
-0.0015	-0.0008	-0.0053	0.0022	48.2
-0.0008	0.0007	-0.0091	0.0015	48
0.0037	0.0007	-0.0098	0.0037	47.9
-0.0008	0.0037	-0.0083	0.003	48
-0.0046	0.003	-0.0091	0.003	47.8
-0.0053	-0.0015	-0.0068	0.0022	48.1
-0.003	-0.0015	-0.0046	0.0007	47.9
0.0015	-0.0015	-0.0023	-0.0015	47.9
0.0022	0	-0.0015	-0.003	47.7
0.0045	-0.0008	-0.0008	-0.003	47.7
0.0127	0	-0.0008	-0.0023	47.6
0.0142	-0.0008	0	-0.003	47.7
0.0007	-0.0023	-0.0008	-0.0008	47.7
-0.0098	-0.0015	0	0.0015	47.5
-0.0158	-0.0015	0.0037	0.0007	47.5
-0.0218	0.0007	0.0052	0	47.4
-0.0083	0	0.0052	-0.0015	47.3
0.0082	-0.0015	0.0022	-0.003	47.5
0.006	-0.0023	0.0045	-0.003	47.4
0	-0.0008	0.0052	-0.0015	47.2
-0.0046	0.0015	0.0045	0.0015	47.3
-0.0053	0.0015	0.0045	0.0015	47.1
-0.006	0.0015	0.0015	0.0007	47.3
-0.0046	0.003	0.0007	0.0007	47.2
0.0015	0.0015	-0.0008	-0.0023	47.2
0.0067	0.0015	0.0022	-0.0015	47.2
0.0112	0.003	0.0045	0.0007	46.9
0.0082	0.0015	0.006	0.0007	47
0.003	0.0015	0.0067	-0.0008	46.8
0.0075	0	0.003	-0.0015	47
0.0052	0	-0.0008	-0.0008	47
0.0037	0.0022	-0.0046	0.0007	46.8
0.0052	0.0015	-0.0083	0.0022	46.7
-0.0046	0.0022	-0.0075	0.003	46.8
-0.006	0.003	-0.0053	0.0037	46.8
-0.0038	0.0022	-0.0068	0.0045	46.5
-0.0038	0.003	-0.0046	0.003	46.8
-0.0008	0.0022	-0.0015	0.003	46.5
-0.003	0	-0.0015	0.0022	46.5
-0.0091	0.0007	-0.0038	0.0007	46.4
-0.0046	-0.0015	-0.006	-0.0008	46.5
0.0067	-0.0023	-0.0038	-0.0008	46.2
0.0067	-0.0015	-0.0008	0.0007	46.4
0.003	-0.0008	0.0007	0.0007	46.1
0.0037	0.0007	0.0045	-0.0008	46.3
0.003	-0.0015	0.0052	0	46.1
0.003	-0.0015	0.0067	0.0015	46.1
-0.0008	-0.0008	0.0052	0.003	45.9
-0.0038	-0.0008	0.0037	0.0037	45.9
-0.003	0.0007	0.0022	0.003	46
-0.003	0.0015	0.003	0.0037	45.7
-0.0038	0	0.0007	0.0045	45.9
-0.0053	0.0015	-0.0015	0.003	45.6
-0.0075	0.0015	-0.0046	0.0007	45.9
-0.0105	0.0007	-0.0068	0.0007	45.5
-0.0113	0.0007	-0.0083	0	45.7
-0.0091	-0.0008	-0.0083	-0.0008	45.4
-0.0046	-0.0015	-0.0053	0.0007	45.5
-0.0015	0.0007	-0.0015	-0.0008	45.4
0.0007	-0.0008	0.0007	0	45.5
-0.0015	-0.0023	0.0007	-0.0008	45.4
-0.0038	-0.0015	0	-0.0008	45.2
-0.0015	-0.0015	0.0007	-0.0015	45.3
-0.0015	-0.0015	0.0007	-0.0015	45.2
-0.0015	-0.0015	0.0022	0.0007	45.2
-0.0008	0	-0.0008	0.0007	45.2
0.0052	-0.0015	0.0007	0.0007	45.2
0.0097	-0.0023	0.0015	0.0015	45
0.009	-0.0008	0.0007	0.0015	45.1
0.0067	-0.0008	0.0007	0.003	45
0.0015	0.0007	0.003	0.0037	44.9
-0.0015	0.0015	0.0052	0.0045	44.8
0	0.003	0.0052	0.0045	44.8
0.0022	0.0015	0.0052	0.0045	44.8
0.006	0.0015	0.003	0.0022	44.6
0.0075	0.0015	0.0007	0.0007	44.7
0.0112	0.0015	-0.0008	-0.0008	44.6
0.0105	0.0015	-0.0008	-0.0015	44.8
0.0045	0.0015	0.0007	0	44.6
0	0.0022	-0.0008	0	44.5
-0.0008	0.0015	0.0007	-0.0008	44.5
-0.0046	0.0022	0	-0.0008	44.5
-0.0046	0.003	0.0007	-0.0015	44.4
-0.0046	0.0022	0	-0.003	44.2
-0.0053	0.003	-0.0015	-0.003	44.4
-0.0053	0.0037	-0.0023	-0.0023	44.2
-0.0046	0.0015	-0.0015	-0.0015	44.2
-0.0038	0.0015	0	-0.0046	44
-0.0075	0.0015	-0.003	-0.0046	44.3
-0.0053	0	-0.0046	-0.003	44
-0.003	0.0015	-0.0038	-0.003	44.1
-0.0053	0.0007	-0.0038	-0.003	43.8
-0.003	0.0007	-0.0038	-0.003	44.1
0.0015	0.0022	-0.003	-0.003	43.8
0.006	0	-0.003	-0.0015	43.9
0.0045	-0.0008	-0.0015	-0.0008	43.9
0.0022	0.0007	-0.0015	0	43.7
0.0022	0.0015	-0.0008	0.0022	43.7
0.003	0.0007	0.0007	0.0015	43.6
0.0045	0.003	0.0037	0.0022	43.8
0	0.0037	0.003	0.0007	43.5
-0.0023	0.003	0.0015	-0.0008	43.7
-0.0015	0.0007	0.0022	-0.0015	43.4
-0.0008	-0.003	0.003	-0.0008	43.6
0.0015	-0.0023	0.0022	0.0007	43.4
0.0015	-0.0015	0.0037	0.0022	43.5
0.003	-0.0023	0.0037	0.003	43.3
0.006	-0.0046	0.0007	0.0015	43.5
0.0075	-0.0053	-0.0015	0.0022	43.2
0.0097	-0.0046	-0.0008	0.003	43.3
0.0165	-0.0023	0.0007	0.003	43.2
0.0082	-0.0015	0.003	0.0022	43.2
-0.0113	-0.0015	0.0022	0.0007	43.3
-0.0098	-0.003	0.003	0.0022	43.2
0.0007	-0.0023	0.003	0.0037	43.3
0	-0.0015	0.0022	0.003	42.9
0.0045	-0.0015	-0.0008	0.0015	43.2
0.0142	-0.0015	0.0007	0.003	43
0.0112	-0.0008	0.003	0.003	43.1
0.0112	-0.0008	0.0022	0.0022	42.9
0.0067	-0.0015	0.0022	0.0022	43
-0.0008	-0.0015	0.0007	0.0007	42.8
0.0007	-0.0015	-0.0015	0	42.8
-0.0038	-0.0008	-0.003	0.0007	42.8
-0.0068	0	0	0.0015	42.8
-0.0105	0	-0.0008	-0.0008	42.7
-0.0091	-0.0008	-0.0015	-0.0008	42.6
-0.003	0.0007	-0.0015	-0.0015	42.7
-0.0053	0.0007	-0.0023	-0.003	42.7
-0.0105	0.0015	-0.003	-0.003	42.5
-0.0135	0.0015	-0.0053	-0.003	42.6
-0.012	0.0015	-0.0075	-0.0038	42.4
-0.0083	0.0015	-0.0091	-0.0038	42.6
-0.0105	0.0007	-0.0053	-0.003	42.5
-0.0098	0.0015	-0.0038	-0.0008	42.4
-0.0068	0.0015	-0.0023	0	42.4
-0.0068	0.0015	-0.0015	0.0022	42.4
-0.0046	0.003	0	0.0022	42.2
-0.0046	0	0.0015	0.003	42.5
-0.0046	-0.0008	0.0045	0.0037	42.2
-0.0038	0.0015	0.006	0.0022	42.2
-0.0015	0.003	0.0082	0.0037	42
0.0037	0.0015	0.0067	0.0045	42.3
0.0082	0.0015	0.0067	0.0037	41.9
0.0097	0	0.009	0.0037	42
0.009	0.0007	0.0067	0.0045	42.1
0.0052	0.0022	0.0052	0.0052	42
-0.0046	0.003	0.0045	0.0045	42
-0.0083	0.0067	0.0022	0.0045	41.9
-0.0068	0.006	0.0015	0.0022	42
-0.0046	0.0067	-0.0008	0	41.8
-0.006	0.0067	-0.0008	-0.0046	41.9
-0.0158	0.0045	-0.0015	-0.0068	41.8
-0.0218	0.0022	-0.0046	-0.0053	41.9
-0.0181	0.0015	-0.0068	-0.0068	41.6
-0.0165	0.0015	-0.0068	-0.0053	41.7
-0.015	-0.0008	-0.0068	-0.0046	41.6
-0.0083	-0.003	-0.0083	-0.0068	41.6
-0.0046	-0.0015	-0.006	-0.0046	41.6
-0.003	-0.0008	-0.006	-0.0068	41.6
0.0015	-0.0008	-0.006	-0.0068	41.4
0.0097	-0.0023	-0.0053	-0.0068	41.5
0.0127	-0.003	-0.0068	-0.0068	41.4
0.009	-0.0015	-0.0068	-0.0053	41.3
0.0112	-0.003	-0.0068	-0.0068	41.5
0.0172	-0.0015	-0.0046	-0.0053	41.5
0.0217	-0.0015	0.0015	-0.0053	41.5
0.0217	-0.0023	0.009	-0.0038	41.3
0.0165	-0.0015	0.0142	-0.0015	41.4
0.0097	-0.0008	0.0165	-0.0015	41.2
-0.003	0.0007	0.0157	0.0007	41.3
-0.0098	0.0015	0.012	0	41.1
-0.012	0.003	0.0082	0.0007	41
-0.012	0.0015	0.006	0.0015	41.3
-0.0105	0.0015	-0.0008	0	41
-0.0098	0.0015	-0.003	0	41
-0.0053	0.0007	0	-0.0008	41
-0.0046	0	-0.0008	-0.003	41
-0.003	0.0007	-0.0015	-0.0038	40.9
-0.0023	0.0007	-0.0046	-0.003	40.9
-0.0023	0.0015	-0.0075	-0.0046	40.9
-0.0015	0.0007	-0.0075	-0.0053	40.8
-0.0068	0.0007	-0.0091	-0.0053	40.9
-0.0075	-0.0008	-0.0105	-0.0046	40.8
-0.0083	-0.0008	-0.0083	-0.0015	40.9
-0.0083	-0.0008	-0.0083	-0.0015	40.7
-0.0083	0.0007	-0.0091	-0.003	40.7
-0.0053	0.0007	-0.0068	-0.0015	40.6
0.0067	0.0015	-0.0068	-0.0008	40.7
0.0202	0.003	-0.0038	-0.0008	40.5
0.0142	0.003	-0.0008	0.0007	40.6
0.0037	0.0037	0.0007	0.003	40.7
0.009	0.003	0.0007	0.003	40.6
0.0082	0.003	0.003	0.0045	40.4
0.0052	0.0007	0.0045	0.003	40.5
-0.0091	0.0007	0.0022	0.003	40.6
-0.0195	0.0022	0.003	0.0052	40.5
-0.006	0	0.003	0.0045	40.4
0.003	-0.0008	0.003	0.0045	40.2
0.006	-0.0008	0.0015	0.0045	40.5
0.0112	-0.0008	0.0007	0.0045	40
0.0105	-0.0015	0.0045	0.0052	40.3
0.0082	-0.0038	0.0082	0.0052	40.2
0.0067	-0.0023	0.0067	0.0067	40.2
0.0045	-0.0015	0.0037	0.0067	40.2
0.0045	-0.003	0.0015	0.0052	40.3
0.0045	-0.0015	0.0015	0.0052	40.2
0.0022	-0.003	0.0015	0.0067	40
0.009	-0.0038	0.0022	0.0067	40.1
0.006	-0.0046	0.003	0.006	40.1
-0.0046	-0.006	0.0022	0.006	40.1
-0.003	-0.0046	0	0.0052	39.9
-0.0015	-0.0038	-0.003	0.0052	40.1
0.0015	-0.0046	-0.0046	0.0045	39.8
0.0037	-0.0038	-0.0068	0.0052	39.9
-0.003	-0.0023	-0.0091	0.0052	39.6
-0.006	0.0007	-0.0083	0.0052	40
-0.0053	0.0007	-0.0038	0.0045	39.7
-0.0046	-0.0008	-0.0015	0.003	39.9
-0.0053	-0.0015	-0.0015	0.0022	39.6
-0.0023	-0.0023	-0.0015	0.0022	39.9
0.0075	-0.0008	-0.0015	0.0015	39.6
0.0105	0	0.0015	0.0007	39.7
0.0082	0.0015	0.0007	0.0015	39.7
0.0037	0.0022	-0.0008	0.0007	39.7
-0.0015	0.0022	-0.0008	0.0007	39.6
-0.0098	0.0015	0.0007	0.0015	39.3
-0.0233	0.0022	0.0015	0.0015	39.7
-0.0338	0.0007	0.0015	0.0007	39.4
-0.0293	-0.0008	0.0015	-0.0008	39.6
-0.0143	0.0015	-0.0023	0	39.3
-0.0015	0.0007	-0.0015	0	39.6
0.0052	0	-0.0008	0.0007	39.3
0.0082	0.0007	0	-0.0008	39.5
0.009	0.0015	0	-0.0008	39.2
0.0082	0.0015	0.0007	-0.0015	39.3
0.0015	0.0007	0.0007	-0.0015	39.2
-0.003	0.0007	0.0015	-0.0015	39.3
-0.0015	0.0015	0.0037	-0.003	39.1
0.0045	0.0015	0.0052	-0.003	39.3
0.0067	0	0.0045	-0.003	39.2
0.012	-0.0008	0.0067	-0.0023	39.1
0.0105	0.0007	0.009	-0.0008	39.1
0.0037	0.0022	0.0067	-0.0008	38.9
-0.0015	0.0022	0.0082	0.0015	39.1
-0.0053	0.0022	0.0082	0.003	38.8
-0.0075	0.0022	0.0052	0.003	39.1
-0.0128	0.0015	0.0007	0.0037	38.8
-0.012	0.0007	-0.0038	0.0037	39.1
-0.003	0.0007	-0.0046	0.003	38.7
-0.0046	0.0015	-0.0053	0.003	38.8
-0.006	0.0007	-0.0053	0.0022	38.7
0.0022	0.0007	-0.0053	0.0015	38.8
0.0105	0.0015	-0.0068	0.0007	38.7
0.015	0.0037	-0.0038	-0.0015	38.7
0.0045	0.0045	-0.003	-0.0015	38.6
0.0022	0.003	-0.0053	-0.0015	38.7
0.0007	0.003	-0.0053	-0.0015	38.5
-0.0068	0.0022	-0.0068	-0.0008	38.4
-0.0046	0.0015	-0.0015	0	38.6
-0.0038	0.0015	0.0015	0.003	38.5
0.0007	0.0015	0.0015	0.003	38.6
0.009	0.0022	0.0022	0.003	38.5
0.0157	0.0007	0.003	0.0007	38.5
0.012	0	0.003	0.0007	38.4
0.0037	0.0015	0.003	0.0022	38.3
-0.0046	0.0015	0.0007	0.0022	38.2
-0.0068	0.0007	0.0007	0.003	38.3
-0.0053	0.003	-0.0015	0.0022	38.2
-0.0068	0.003	-0.006	0.0015	38.1
-0.0075	0.0015	-0.0083	0	38.2
-0.0083	0	-0.0113	-0.0008	38.2
-0.0053	-0.0015	-0.0128	-0.0008	38.1
-0.0075	-0.0023	-0.012	-0.0008	38.1
-0.0128	-0.003	-0.0098	-0.0008	38.2
-0.0105	-0.003	-0.0091	-0.0015	37.8
-0.0083	-0.0046	-0.0083	-0.0015	38.2
0.0015	-0.0046	-0.0038	-0.0008	37.9
0.0067	-0.003	-0.0015	-0.0015	37.9
0.0075	-0.0023	-0.0015	-0.0023	37.8
0.0082	-0.003	-0.0038	-0.0015	37.9
0.0052	-0.0038	-0.0015	0.0015	37.8
0.003	-0.003	-0.0008	0.0015	37.8
0.0037	-0.0046	-0.0015	0.0015	37.7
0.0082	-0.0038	0.0015	0.0015	37.8
0.0127	-0.0053	0.0015	0.0015	37.8
0.0135	-0.0046	0.0015	0.003	37.8
0.0082	0	0.0007	0.0045	37.8
-0.0008	0.0007	0.0015	0.0037	37.6
-0.0083	0.0007	0.0015	0.0037	37.7
-0.0083	0.003	0	0.0045	37.5
-0.0015	0.0037	0.003	0.0052	37.8
0.0007	0.003	0.0045	0.0052	37.6
-0.0015	0.0022	0.0052	0.003	37.6
-0.0053	0.0007	0.0015	0.0007	37.5
-0.0046	0	0.0015	0	37.6
-0.0015	0.0007	0.0022	0.0007	37.3
-0.0015	0.0022	0.0015	0.0007	37.4
-0.0008	0.0022	0.0015	0	37.5
-0.003	0.0015	-0.0008	-0.0015	37.4
-0.0046	0.0015	-0.0023	-0.0015	37.3
-0.0053	0.0015	0	0	37.4
-0.0046	0.0007	0.003	-0.0015	37.3
0.0015	-0.0008	0.0045	-0.003	37.3
0.0015	-0.0008	0.006	-0.0015	37.2
-0.0015	-0.0015	0.006	-0.0015	37.3
-0.0046	-0.0023	0.0045	0	37.3
0	-0.0046	0.003	0.0015	37
0.009	-0.0015	0.0052	0.0015	37.2
0.0112	0.0022	0.012	0.0037	37
0.0007	0.0045	0.012	0.0052	37.2
-0.0053	0.006	0.0067	0.0045	37
-0.0008	0.0045	0.0052	0.0037	37
-0.0046	0.0045	0.0037	0.0022	37.1
-0.0023	0.0045	0	0.0007	37
0.0067	0.003	-0.0038	0.0007	37
0.0105	0.0022	-0.0068	0.0015	36.8
0.0142	0	-0.0083	0.0022	36.9
0.015	-0.0008	-0.006	0.003	36.9
0.0075	0.0007	-0.0015	0	37
0.0052	0.0015	0.0007	-0.003	36.8
-0.0023	0.0015	0.0037	-0.003	36.8
-0.0173	0.0007	0.0045	-0.0046	36.8
-0.0308	0.0007	0.0052	-0.0068	36.8
-0.0368	0.0007	0.0052	-0.006	36.7
-0.015	0	0.0022	-0.0038	36.7
0.0007	-0.0008	0.0015	-0.0046	36.7
-0.0023	-0.003	-0.0023	-0.0053	36.6
-0.0046	-0.003	-0.0068	-0.0053	36.5
-0.0053	-0.003	-0.0068	-0.0046	36.3
0.0037	-0.0015	-0.0053	-0.0046	36.5
0.0045	0	-0.0038	-0.0046	36.4
0.0097	0.0007	-0.0023	-0.0046	36.4
0.0195	0.0022	-0.0008	-0.0038	36.4
0.0232	0.0045	0.0015	-0.0015	36.4
0.0232	0.003	0.0037	-0.0015	36.4
0.0127	0.0022	0.0022	-0.0015	36.3
0.009	0.0007	0.0007	-0.0008	36.4
0.003	-0.0008	0.0015	0.0007	36.4
-0.0046	0.0007	-0.0008	0.0015	36.2
-0.0098	-0.0015	-0.003	0	36.3
-0.0188	-0.003	-0.0015	-0.0015	36.2
-0.0195	-0.0008	0.003	-0.0008	36.2
-0.0098	0.0007	0.006	0.0007	36.1
0.0015	0.0007	0.0067	0.0007	36.1
-0.006	0.003	0.006	0.0022	36
-0.0046	0.0037	0.0067	0.003	36
0.0015	0.003	0.0052	0.0015	36.2
-0.003	0.003	0.0015	0.0015	36
0.0007	0.0022	0	0.0007	36
0.003	0.0015	-0.0015	0	35.9
0.0022	0.0007	-0.0023	0	35.9
-0.0023	0.0015	0.0007	0.0015	35.9
-0.0053	0.003	-0.0015	0.0007	35.9
-0.0053	0.0045	-0.0008	0.0015	35.7
-0.0053	0.0045	-0.0008	0.0015	35.9
-0.0046	0.0045	-0.0015	0	35.8
-0.0053	0.0045	-0.0015	-0.0008	35.8
-0.0046	0.0015	-0.003	-0.003	35.7
-0.0046	0.0007	-0.003	-0.003	35.6
-0.003	-0.0008	-0.003	-0.003	35.6
0	-0.0015	-0.003	-0.0038	35.6
0.0045	-0.003	-0.0023	-0.0038	35.5
0.0052	-0.0038	0	-0.0023	35.5
0.0015	-0.0015	0.0022	0	35.6
-0.0015	-0.0015	0.0037	-0.0023	35.3
-0.0023	-0.0008	0.0045	-0.0023	35.5
0.0007	-0.0015	0.0022	-0.0008	35.4
0.0052	-0.0023	0.0022	-0.0008	35.4
0.0097	-0.003	0.0015	0	35.5
0.009	-0.003	0.0015	0	35.5
0.0037	-0.0015	-0.0008	0.0007	35.3
0.0052	-0.0008	-0.0015	0.0015	35.2
0.0075	0.0007	0	0.0007	35.1
0.0007	0.0007	-0.0008	0.0015	35.2
0.0007	0	-0.0008	0.0037	35.1
0.0052	-0.0015	-0.0015	0.0045	35.1
0.006	-0.0008	-0.0046	0.003	35.1
-0.0008	0.0007	-0.0083	0.0045	34.9
-0.0053	0.0007	-0.0098	0.0045	35
-0.0053	0.0007	-0.0113	0.0045	34.7
-0.0083	0.0015	-0.012	0.0045	35.1
-0.0046	0.0007	-0.0091	0.003	34.8
-0.0015	0	-0.0083	0.003	34.7
-0.0038	-0.0008	-0.0053	0.0022	34.8
-0.0008	0	-0.0023	0.003	34.8
-0.0008	-0.0008	-0.0023	0.003	34.8
-0.0015	-0.0008	0.0007	0.0015	34.7
-0.006	-0.0015	-0.0008	0.0022	34.8
-0.0083	-0.0008	-0.0015	0.0015	34.7
-0.0046	0.0007	-0.0008	0.003	34.6
-0.0023	0.0015	0.0015	0.0045	34.5
-0.0008	0.0015	0.006	0.003	34.6
0.0037	0.003	0.0105	0.003	34.5
0.0022	0.003	0.0112	0.0015	34.6
-0.0053	0.0022	0.0052	0.0015	34.4
-0.0128	0.0007	0.0015	0.0007	34.5
-0.015	0.0022	0.0007	0.0007	34.3
-0.0098	0.0022	-0.0015	0.0015	34.2
-0.0046	0.003	-0.0023	0.0007	34.3
0.0015	0.0015	-0.003	0.0015	34.2
0.0067	0.0007	-0.0015	0.0007	34.2
0.0045	0.0022	-0.0023	0.0015	34.2
-0.0046	0.0015	-0.0023	0.0015	34.2
-0.0046	0.0015	-0.0008	0	34.2
-0.0008	0.0007	-0.0008	0	33.9
0.0007	-0.0008	-0.0008	0	34.1
0.0112	-0.0015	-0.0008	-0.0015	34.1
0.009	-0.0015	0.0015	-0.0008	33.8
-0.0008	-0.0008	0.0015	0.0007	34.1
0	-0.0008	0.0015	-0.0008	33.8
-0.0015	-0.003	0.0015	-0.0008	34
-0.0046	-0.0023	-0.003	-0.0008	33.8
0	-0.003	-0.0053	-0.0008	33.9
0.0067	-0.0038	-0.0075	-0.0008	33.7
0.018	-0.0046	-0.0068	-0.0015	33.8
0.0232	-0.0046	-0.0053	-0.0008	33.8
0.0202	-0.0046	-0.003	-0.0023	33.7
0.0067	-0.0053	0.0015	-0.0046	33.6
-0.0046	-0.003	0.003	-0.0038	33.6
-0.0068	-0.003	0.0045	-0.0023	33.7
-0.0068	-0.0023	0.0075	-0.0015	33.5
0.003	-0.0008	0.0052	-0.0015	33.7
0.0052	0.0015	0.0022	-0.0008	33.6
0.0015	0.0022	0.0015	-0.0008	33.6
0.0015	0.0015	-0.0015	-0.0015	33.5
-0.0053	0.0015	-0.0008	0	33.6
-0.0143	0.0007	0.003	-0.0008	33.3
-0.024	-0.0008	0.003	-0.0008	33.5
-0.0195	0	0.0045	0.0007	33.2
-0.0038	0.0007	0.0052	0.0007	33.3
-0.006	0.0015	0.012	0.0015	33.3
-0.0075	0.0022	0.015	-0.0008	33.3
-0.0008	0.0037	0.009	-0.0008	33.1
-0.003	0.0045	0.003	-0.0008	33.3
0.0015	0.0037	-0.0015	-0.0015	33.2
0.0082	0.0015	-0.003	-0.0015	33
0.0105	0.0015	-0.006	-0.0023	33
0.0112	0.0022	-0.0113	-0.0008	32.8
0.0067	0.003	-0.0128	-0.0008	33
0.0007	0.0022	-0.0128	0	32.9
0.003	0.0015	-0.0091	0.0015	32.9
0.012	0.0015	-0.0053	0.0022	32.8
0.0112	0.003	0.0022	0.0015	33
0.0007	0.0007	0.009	0.0015	32.8
-0.0015	-0.0015	0.0112	0	32.9
-0.0053	-0.0023	0.0135	-0.0008	32.8
-0.0188	-0.0015	0.0165	0.0007	32.7
-0.0278	-0.0008	0.0142	-0.0008	32.8
-0.033	-0.0015	0.0075	-0.0008	32.7
-0.0181	-0.003	0.0007	-0.0015	32.7
0.003	-0.003	-0.003	-0.0015	32.6
0.006	-0.003	-0.0068	0.0007	32.5
-0.0008	0	-0.0091	0.0015	32.4
-0.006	0.0015	-0.0128	0.0007	32.6
-0.0053	0.0007	-0.015	0.0007	32.4
-0.0008	0.0007	-0.0173	0.0007	32.4
0.003	0.0015	-0.0173	0.0015	32.4
0.0045	0.0022	-0.0113	0.0007	32.4
0.0082	0.0007	-0.006	-0.0015	32.2
0.0112	0.0007	-0.0046	-0.0015	32.4
0.0067	0.0015	-0.0008	0	32.2
0.0052	0.003	0.0015	0	32.4
0.0015	0.0022	0.0015	0.0007	32.2
0.0037	-0.0008	0.0015	-0.0015	32.2
0.0105	-0.0038	0.0015	-0.0008	32
0.0187	-0.003	0.0045	0	32
0.0217	0.0007	0.009	0.0015	32.2
0.0105	0.0015	0.0142	0.0037	31.8
0.0082	0.0015	0.0157	0.0045	32
0.0105	0.0015	0.0195	0.0075	31.9
0.0022	0.0045	0.018	0.009	31.9
-0.0053	0.0037	0.012	0.0082	31.8
-0.0068	0.003	0.009	0.0067	32
-0.0098	0.0045	0.0015	0.0052	31.8
-0.0105	0.003	-0.0053	0.0015	31.9
-0.0113	0.0015	-0.0075	-0.0015	31.7
-0.0105	0.0015	-0.0083	-0.003	31.8
-0.0083	0.0015	-0.0075	-0.0015	31.6
-0.0053	0	-0.0075	-0.0015	31.6
-0.003	0	-0.0075	-0.003	31.6
-0.0008	0.0015	-0.0068	-0.003	31.7
0	0.0007	-0.0053	-0.0023	31.6
-0.006	0.0015	-0.0068	-0.0023	31.5
-0.0091	0.0015	-0.0083	0	31.5
-0.0091	0.0007	-0.006	0	31.4
-0.0091	0.0007	-0.006	0	31.5
-0.0068	-0.0015	-0.0068	-0.0008	31.4
0.0007	-0.003	-0.0046	-0.0008	31.4
0.0157	-0.0046	-0.0015	-0.0023	31.4
0.0135	-0.0046	0.0022	-0.0015	31.6
-0.003	-0.0015	0.0015	0.0015	31.1
-0.003	-0.0015	0.0015	0.003	31.4
0.0007	-0.0008	0.0045	0.003	31.1
0.0015	-0.0008	0.0045	0.0015	31.3
0.0127	0.0007	0.0067	0.003	31
0.0135	0.003	0.0082	0.0037	31
0.0007	0.003	0.0082	0.0045	31
-0.0075	0.0022	0.0052	0.0052	31
-0.0053	0.0007	0.0037	0.0037	31
-0.0046	0.0007	0.0015	0.003	30.9
-0.0053	0	-0.0008	0.0015	31
-0.006	0.0007	-0.0015	0.0007	30.8
-0.0083	0.0007	-0.003	-0.0008	31
-0.0053	-0.0015	-0.0046	-0.0008	30.8
-0.0053	-0.0008	-0.0038	-0.0008	31
-0.0038	-0.0015	0.0007	-0.003	30.7
0	-0.0015	0.0045	-0.003	30.6
0.0045	-0.0008	0.0052	-0.0038	30.6
0.0075	0.0007	0.0022	-0.0046	30.9
0.0015	0.0007	-0.0023	-0.0046	30.6
-0.0015	0	-0.0023	-0.0038	30.6
0.003	0.0015	-0.0023	-0.0023	30.6
0.0045	0.0015	-0.003	-0.0015	30.6
0.0045	0.0007	-0.0053	-0.003	30.5
0.0015	0.0015	-0.0053	-0.0038	30.3
0.0015	0.0015	-0.0068	-0.0015	30.5
-0.0008	0.0007	-0.0091	-0.0008	30.3
-0.003	0.0007	-0.006	-0.0015	30.5
-0.0053	0.0022	-0.0053	0.0015	30.2
-0.0068	0.003	-0.006	0.003	30.4
-0.0038	0.0045	-0.003	0.003	30.2
-0.0015	0.0037	-0.003	0.003	30.5
-0.0023	0	-0.0023	0.0022	30.1
0.0022	-0.003	-0.0038	0.0007	30.3
0.0045	-0.003	-0.0053	0.0007	29.9
0.0022	-0.0038	-0.0046	0.0007	30.1
0	-0.0038	-0.0023	-0.0008	30
-0.0023	-0.0046	0.0015	-0.0008	29.9
-0.0008	-0.0038	0.0045	0.0007	30
0.0015	-0.0015	0.0045	0.003	29.9
0.003	-0.0015	0.0052	0.003	30.1
-0.0015	-0.0015	0.0052	0.0007	29.8
-0.0083	-0.0015	0.0022	-0.0008	29.9
-0.0083	-0.0008	0.0007	-0.0015	29.7
-0.0038	0.0007	0.0037	-0.0008	29.9
-0.003	0.0007	0.006	-0.0008	29.7
-0.0008	-0.0015	0.0067	-0.0015	29.8
0.0015	-0.0015	0.009	-0.0008	29.5
0.0045	-0.0015	0.0082	-0.0015	29.7
0	-0.0008	0.0007	-0.0015	29.5
-0.006	-0.0008	-0.0015	-0.003	29.7
-0.003	-0.0008	0	-0.0008	29.4
0.0007	-0.0015	-0.0008	0.0007	29.5
0.0082	-0.0015	-0.0015	0.0015	29.3
0.0142	0.0007	-0.0015	0.0037	29.3
0.0187	0.0022	-0.0015	0.0045	29.5
0.0127	0.003	-0.0008	0.0037	29.2
0.0037	0.0037	-0.0008	0.003	29.4
-0.0068	0.003	-0.0008	0.003	29.1
-0.0256	0.0045	0.0007	-0.0008	29.2
-0.0308	0.0037	-0.0008	0	29.2
-0.0128	0.0015	0.0015	-0.0008	29.2
-0.0008	0.0022	0.0052	-0.0015	29
-0.0105	0.0022	0.0052	-0.0015	29.2
-0.0068	0.003	0.0045	-0.003	29
0.0105	0.0015	-0.003	-0.0046	29
0.0127	0.0015	-0.0105	-0.0053	28.8
0.0127	0.0015	-0.0105	-0.003	29
0.0045	0.0045	-0.0075	-0.003	28.8
-0.0053	0.0037	-0.0098	-0.0015	28.8
-0.006	0.0007	-0.0098	0	28.8
-0.0046	0.0015	-0.0046	0.0007	28.8
-0.0046	0.0007	-0.0008	0.003	28.8
0.0015	0.0007	0.003	0.0007	28.7
0.0067	-0.0008	0.006	0.0015	28.8
0.003	0.0007	0.0045	0.0007	28.6
-0.0008	0.0007	0.0067	0.0015	28.7
-0.0008	-0.0008	0.0082	0.0015	28.6
0.0045	-0.0023	0.006	0.0015	28.5
0.015	-0.003	0.006	0.003	28.5
0.012	-0.003	0.0007	0.003	28.5
0.0097	-0.0038	-0.006	0.0015	28.3
0.0112	-0.0015	-0.0083	0.003	28.4
0.0022	-0.0008	-0.0046	0.003	28.3
-0.0008	-0.0015	0.0007	0.0022	28.3
-0.0038	-0.0008	0.003	0.0037	28.4
-0.0046	-0.0008	0.0052	0.0015	28.4
0.0007	-0.0015	0.006	0.0007	28.4
0.0067	0	0.0075	0.0015	28.2
0.0105	0.0007	0.006	0.0015	28.2
-0.003	0.0007	0.0037	0.0022	28.1
-0.0218	-0.0008	0.0022	0	28.3
-0.0346	0	-0.0015	-0.0015	28
-0.0353	0.0007	-0.006	-0.0008	28.2
-0.0091	-0.0015	-0.0113	-0.0015	27.9
0.0157	-0.0023	-0.0105	0.0022	27.9
0.0127	-0.0015	-0.0075	0.0045	28
0.0105	-0.0015	-0.0068	0.0052	27.9
0.0015	0.0007	-0.0053	0.0097	27.9
-0.0068	0.0015	-0.0023	0.009	28
-0.0023	0.0052	0.0037	0.0067	27.9
-0.0046	0.0052	0.0045	0.0052	27.9
-0.0046	0.0045	0.0067	0.003	27.9
0	0.0037	0.0105	0.0007	27.8
0.003	0.0052	0.012	0	27.9
-0.0008	0.0067	0.009	-0.0015	27.7
-0.0083	0.0052	0.003	-0.0015	27.7
-0.0075	0.0045	0.0022	-0.0008	27.6
-0.0068	0.0015	0.0015	-0.0015	27.7
0	0.0007	0.0007	-0.0015	27.6
0.0067	0.0007	-0.0008	-0.0015	27.7
0.0165	-0.0015	-0.0023	-0.0053	27.5
0.0157	-0.003	-0.0053	-0.0053	27.6
0.009	-0.0038	-0.0075	-0.0046	27.4
0.0045	-0.0015	-0.0083	-0.003	27.4
-0.0068	-0.0008	-0.0113	-0.0046	27.4
-0.0053	-0.0015	-0.0098	-0.0046	27.4
-0.0068	-0.0023	-0.0083	-0.0046	27.5
-0.0068	-0.003	-0.0053	-0.003	27.4
-0.0068	-0.0015	-0.0046	-0.003	27.5
-0.0083	-0.003	-0.0008	-0.003	27.2
-0.003	-0.0038	0	-0.003	27.4
-0.0015	-0.003	0.0007	-0.0023	27.1
0.0015	-0.0038	0.0007	-0.003	27.4
0.0052	-0.003	0.0007	-0.003	27.1
0.0075	-0.003	0.0045	-0.0023	27.2
0.0045	-0.0046	0.003	-0.0023	27.1
0.0015	-0.0023	0.0045	-0.0008	27.1
0.0007	0.0007	0.009	0.0007	27
-0.003	0.0037	0.0127	0.0007	27
-0.0068	0.0037	0.009	0.0015	27.1
-0.0075	0.0045	0.0037	0.003	27
-0.0046	0.0045	0.0022	0.0015	27.1
-0.0023	-0.0008	-0.0015	-0.0008	26.9
0.0007	-0.003	-0.0053	-0.0008	26.9
0.0022	-0.003	-0.0068	-0.0008	26.8
0.0045	-0.0038	-0.0098	0.0015	26.9
0.0015	-0.003	-0.0105	0.003	26.8
-0.0046	-0.0015	-0.0135	0.003	26.9
-0.003	-0.0008	-0.0128	0.0045	26.8
-0.003	0	-0.0113	0.0015	26.8
-0.003	-0.0008	-0.0083	0.0015	26.6
0.0015	0	-0.0046	0.0007	26.8
0.0037	0.0007	0.0015	-0.0015	26.7
-0.0008	0.0022	0.009	-0.0015	26.7
0	0.003	0.0127	-0.0015	26.6
0.0015	0.0015	0.015	0	26.5
-0.0015	0.0007	0.0157	0	26.5
-0.003	0.0022	0.0105	-0.0008	26.5
-0.0015	0.0015	0.0037	-0.0008	26.5
0.0015	0.0022	0.0052	0.0015	26.5
0.006	0.0022	0.0082	0.0007	26.5
0.0135	0.0015	0.0067	0.0007	26.4
0.0097	0.0007	0.0007	0.0015	26.5
-0.0008	0.0015	-0.0053	0.0007	26.3
-0.0023	0.0022	-0.0038	0.0015	26.5
-0.0053	0.003	-0.0038	0.0015	26.2
-0.0053	0.003	-0.0038	0.0015	26.3
-0.006	0.0022	-0.0053	0.0007	26.4
-0.003	0.0045	-0.0053	0.0015	26.2
0	0.003	-0.003	0.003	26.2
-0.0023	0.0037	-0.003	0.003	26.1
-0.0098	0.0045	-0.0053	0.0045	26.1
-0.0203	0.0022	-0.0091	0.0045	26.1
-0.0278	0.0045	-0.0091	0.0022	26.1
-0.027	0.0045	-0.0091	0.0007	26
-0.0128	0.0015	-0.0068	-0.0015	26.1
0.0127	-0.0008	-0.0008	-0.0015	25.9
0.024	0.0015	0.0015	0	26.2
0.0157	0.0007	0.0015	0.0007	26
0.0247	-0.0038	0.0007	0	26.1
0.0195	-0.0023	0.0045	0.0015	25.7
-0.0008	-0.0015	0.0075	0.0015	26
0.0052	-0.0015	0.0045	0.0037	25.9
0.024	-0.003	-0.0008	0.0015	26.1
0.0405	-0.0046	-0.003	0	25.8
0.0382	-0.0038	0.0007	-0.0008	25.8
0.0232	-0.003	0.0045	0.0007	25.7
-0.0023	-0.0008	0.0082	0.0037	25.8
-0.0308	0.003	0.009	0.0037	25.6
-0.0375	0.0052	0	0.0037	25.6
-0.0181	0.0052	-0.0068	0.0037	25.6
-0.0038	0.0052	-0.0023	0.003	25.6
-0.0105	0.0045	-0.0023	0.0007	25.7
-0.0105	0.0022	-0.003	-0.0015	25.5
-0.0128	0.0015	-0.003	-0.0038	25.7
-0.012	0.0007	-0.0046	-0.0038	25.4
-0.0135	0	-0.0015	-0.003	25.6
-0.0105	-0.003	0	-0.006	25.3
-0.0053	-0.0023	0.003	-0.0068	25.5
-0.0128	-0.0023	0.0052	-0.0068	25.4
-0.012	-0.003	0.0067	-0.0046	25.3
-0.0046	-0.0023	0.0052	-0.003	25.4
0.003	-0.0008	0.0022	-0.0038	25.3
0.0007	0.0007	-0.003	-0.0023	25.3
-0.0068	0.0015	-0.0068	-0.003	25.5
-0.0008	0	-0.012	-0.0015	25.3
0.0082	0.0007	-0.0128	-0.0008	25.1
0.0127	0.0007	-0.0105	-0.0015	25
0.009	0.0015	-0.0083	-0.003	25.2
0.015	0.0022	-0.0015	-0.0038	25.1
0.0165	-0.0015	0.0037	-0.0046	25
0.0097	-0.0015	0.0067	-0.0038	25
0	-0.0015	0.0105	-0.0046	25
-0.0053	-0.003	0.0105	-0.006	25
-0.0008	-0.0015	0.009	-0.0046	24.9
0.0015	-0.0023	0.0052	-0.003	24.9
0.0022	-0.0038	0.0045	-0.0015	24.7
0.0037	-0.0046	0.0067	-0.0008	24.9
0.006	-0.003	0.0007	0	24.8
0.0015	-0.0038	-0.0015	0.0015	24.8
-0.003	-0.0038	-0.0053	0.003	24.7
-0.003	-0.0008	-0.006	0.0045	24.6
-0.0008	0.0007	-0.0046	0.0045	24.7
0.0045	0.0015	-0.0068	0.006	24.6
0	0.0015	-0.006	0.0052	24.6
-0.0015	0.0015	-0.0015	0.0052	24.7
-0.0023	0.0015	0.0015	0.0052	24.7
-0.003	0.0007	0.003	0.0052	24.4
0.0022	0.0007	0.0007	0.006	24.5
0.012	0.0015	-0.003	0.0045	24.4
0.012	0	-0.003	0.0045	24.4
0.0007	-0.0015	-0.0038	0.0045	24.3
-0.003	-0.003	-0.0046	0.003	24.4
-0.0158	-0.0046	-0.003	0.0022	24.3
-0.03	-0.0038	-0.0023	0.0022	24.2
-0.0346	-0.0046	-0.0008	0.0037	24.4
-0.0308	-0.0038	-0.003	0.0052	24.2
-0.0083	-0.0015	-0.0015	0.0045	24.3
0.0007	0	-0.0015	0.006	24.2
-0.0008	-0.0008	-0.0015	0.0067	24.2
0.0052	-0.0015	0.0045	0.0045	24.1
0.009	0.0015	0.0082	0.0067	24.2
0.0067	0.0007	0.0082	0.0052	24.1
0.003	0.0007	0.0052	0.003	24.2
0.0015	0.0015	0.003	0.0015	23.9
0.0007	0.0015	0.0052	-0.0023	24
-0.0008	0.003	0.0097	-0.0038	23.9
0.0105	0.0015	0.009	-0.003	23.8
0.0165	0.0022	0.0067	-0.0015	23.7
0.009	0.0045	0.0082	-0.0015	23.8
-0.0008	0.0052	0.0052	-0.0015	23.8
-0.006	0.0082	0.0045	-0.0008	23.8
-0.0128	0.0075	0.0037	-0.0023	23.7
-0.0158	0.0052	-0.0046	-0.0046	23.8
-0.0091	0.003	-0.0091	-0.0053	23.5
-0.0053	0.0007	-0.0068	-0.0068	23.5
-0.003	-0.0008	-0.0083	-0.0091	23.5
0.0022	-0.0015	-0.006	-0.0083	23.5
