File Name: marcha_3.log
Channel 4: 'Recto Femoral', 56544 values, engineering units: mV, no filters.
Channel 5: 'Biceps Femoral', 56544 values, engineering units: mV, no filters.
Channel 6: 'Vasto Medial', 56544 values, engineering units: mV, no filters.
Channel 7: 'EMG Semitendinoso', 56544 values, engineering units: mV, no filters.
Channel 8: 'Flexo-Extension', 56544 values, engineering units: deg, no filters.

-0.0023	0.0052	-0.0105	0.0547	-0.7
-0.0046	0.0375	-0.0248	0.0105	-0.2
-0.003	0.015	-0.027	0.0735	-0.5
-0.0008	-0.033	-0.027	0.0862	-0.5
0.0015	-0.0818	-0.0128	-0.0353	-0.6
0.0007	-0.0998	0.006	-0.2385	-0.4
0.0015	-0.0315	0.0202	-0.411	-0.6
-0.0008	0.0232	0.033	-0.1673	-0.3
0	0.033	0.0322	-0.0825	-0.5
0.0015	0.042	0.0142	-0.1073	-0.3
0.0007	0.0112	0.0022	0.054	-0.5
0	0.0112	-0.003	-0.0158	-0.3
-0.003	0.006	-0.0083	0.0555	-0.4
-0.0008	0	-0.0038	0.0495	-0.2
0	0.0097	0.0007	-0.0135	-0.4
0.0007	0.0037	-0.0038	0.0202	-0.3
0.0015	0.0007	-0.0053	0.0645	-0.4
0.003	-0.0143	-0.0023	0.1747	-0.2
0.0045	-0.0293	-0.0038	0.1785	-0.4
0.0045	-0.0405	-0.0038	0.267	-0.2
0.0037	-0.0225	-0.0023	0.2475	-0.2
0.0037	-0.0038	-0.0023	-0.0533	-0.2
0.0045	0.0105	0.003	-0.4575	-0.6
0.0045	0.0382	0.003	-0.453	-0.4
0.0022	0.0442	-0.0015	-0.126	-0.4
0.0022	0.0367	0.003	-0.1373	-0.5
0.0022	0.0187	0.009	-0.0091	-0.2
0.0015	-0.0046	0.0067	0.0735	-0.2
0.0015	-0.0165	0.009	-0.0458	-0.2
0.0022	-0.0158	0.0127	0.1102	0
0.0022	-0.0091	0.0105	0.1177	-0.2
0.003	0.0007	0.0082	0.069	-0.2
0.0022	0.0105	0.0082	0.0592	-0.3
0.0015	0.0142	0.003	-0.039	-0.3
0.0007	0.0097	-0.003	-0.0105	-0.3
0.0015	0.0052	-0.003	0.0157	-0.3
0.003	0.0135	-0.0068	0.003	-0.4
0.0037	0.012	-0.0105	0.0262	-0.5
0.0022	-0.003	-0.0098	0.0787	-0.2
0.0045	-0.024	-0.0091	0.06	-0.2
0.006	-0.0293	-0.0091	0.0127	-0.4
0.0052	0.0015	-0.012	0.1762	-0.2
0.0045	0.0195	-0.012	0.2332	-0.2
0.003	0.0457	-0.0173	-0.0938	-0.4
0.003	0.0277	-0.0195	-0.0893	-0.2
0.0045	-0.0878	-0.006	0.2437	-0.5
0.0075	-0.1328	0.0082	-0.0998	-0.2
0.0075	-0.0706	0.0165	-0.0511	-0.1
0.0067	-0.0293	0.021	0.4515	-0.2
0.0067	0.033	0.018	-0.2453	-0.4
0.0052	0.0885	0.009	-0.7448	-0.4
0.0067	0.057	0.0037	-0.1665	-0.1
0.006	-0.0181	0.0015	0.1995	-0.2
0.0045	-0.0488	0.003	0.1372	-0.2
0.0037	-0.0068	0.0082	0.1012	-0.2
0.0045	0.0442	0.009	-0.0398	-0.4
0.0052	0.0795	0.0037	-0.1988	-0.2
0.0075	0.0667	0.0015	-0.0653	-0.2
0.0075	0.0187	-0.003	0.0397	-0.3
0.0052	-0.0053	-0.0038	-0.1133	-0.4
0.0052	-0.0203	0.003	-0.156	-0.4
0.0045	-0.0346	-0.0068	-0.1373	-0.4
0.0052	-0.0075	-0.0105	-0.2033	-0.3
0.0045	-0.003	-0.0091	0.0427	-0.2
0.003	-0.0165	-0.0053	0.2475	-0.1
0.0082	-0.024	0.0082	0.33	-0.2
0.0082	-0.0346	0.0082	0.144	-0.1
0.0067	-0.006	-0.0008	-0.0623	-0.1
0.0052	-0.0023	-0.0053	0.0682	-0.3
0.006	0.0052	-0.0068	0.0255	-0.3
0.0037	-0.0008	-0.0105	0.1665	-0.1
0.0052	-0.024	-0.0083	0.1402	-0.3
0.0082	-0.0195	-0.0015	0.009	-0.1
0.0082	-0.0256	-0.0023	0.0502	-0.2
0.0075	-0.006	-0.003	-0.165	-0.1
0.0052	0.0082	-0.0038	-0.333	-0.3
0.0052	-0.012	-0.003	-0.2055	-0.2
0.0067	-0.0143	0.0007	0.0675	0
0.0052	-0.0015	0.0015	0.2895	-0.1
0.0037	-0.0105	-0.0038	0.4267	-0.1
-0.0008	0.0045	-0.0105	0.0952	-0.2
-0.0015	0.0292	-0.006	-0.2145	-0.2
-0.0008	0.042	0.0007	-0.321	-0.3
0.0007	0.0352	0.0015	-0.513	-0.2
0.003	0.009	0.0127	-0.1073	-0.2
0.0022	-0.0195	0.0232	0.3045	0.1
0.0037	-0.0465	0.0277	0.1747	-0.2
0.0045	0.0052	0.024	0.1065	0
0.0022	0.0157	0.0157	0.084	-0.2
0.0007	0.0067	0.0127	0.0127	-0.2
0.0007	0.036	0.0097	0.1155	0.1
0.0007	0.027	0.006	0.156	-0.2
0.0007	0.045	0.0007	0.0742	0
-0.0008	0.0465	-0.003	-0.105	-0.2
-0.0015	0.0577	-0.0015	-0.2033	0
-0.0023	0.0172	-0.0046	0.0225	0
-0.0015	-0.0653	-0.0098	0.1035	-0.2
-0.0008	-0.0968	-0.0105	0.0345	-0.2
-0.0008	-0.084	-0.0113	-0.1028	-0.2
-0.0023	-0.0195	-0.0143	-0.2708	-0.2
-0.0008	0.0292	-0.0143	-0.2123	-0.3
-0.0015	0.042	-0.0091	-0.075	0
0.0015	0.021	0	0.0997	-0.1
0.0015	-0.0053	0.0142	0.1665	0.2
0.0007	-0.0188	0.021	0.0727	-0.2
0.003	-0.0143	0.0195	-0.045	0.1
0.003	0.0097	0.012	-0.0143	-0.1
0.003	0.0082	0.003	0.1095	0.1
0.0037	-0.0091	-0.0091	0.3082	0.1
0.0037	-0.0248	-0.0165	0.5085	0
0.0037	-0.0203	-0.0181	0.2895	0
0.006	-0.0075	-0.0143	-0.1223	-0.2
0.0052	0.0045	-0.0075	-0.5453	-0.1
0.0037	0.0157	0.0052	-0.597	-0.2
0.0007	0.0142	0.0195	-0.2295	0
0	0.0142	0.0195	-0.105	0
-0.0008	0.015	0.0232	-0.0863	0.1
0.0015	0.006	0.024	0.0277	0
0.0022	0.0037	0.0127	0.108	0.2
0.0007	0.018	-0.0008	0.0652	0
0.003	0.0217	-0.0038	0.0862	0.2
0.0052	0.003	-0.0023	0.15	0.2
0.006	-0.0195	-0.0068	0.0607	0
0.0045	-0.0105	-0.0068	0.012	0
0.003	0.0037	-0.0091	-0.0638	-0.1
0.003	0.0157	-0.0068	-0.162	0.2
0.0067	0.0217	-0.0023	-0.0938	0.1
0.009	0.0052	-0.0023	-0.0698	0
0.009	0.0112	0.0007	0.0727	0.3
0.009	-0.015	-0.003	0.2955	0.1
0.0067	-0.042	-0.0068	0.1725	0.2
0.0082	-0.0278	-0.0083	0.0352	0.3
0.0067	-0.0105	-0.0008	-0.0638	0.1
0.0067	0.0007	0.009	-0.0825	0.2
0.0082	-0.0165	0.0045	0.0592	0.2
0.0067	-0.0105	0.0037	0.072	0.4
0.0067	-0.0046	0.0015	0.1237	0.3
0.006	0.0045	-0.0038	0.1425	0.2
0.0067	0.018	-0.0008	-0.0368	0.4
0.0052	-0.0008	0.0007	-0.2063	0.1
0.0037	0.0082	0.006	-0.147	0.4
0.003	-0.0091	0.009	-0.015	0.5
0.0007	-0.0293	0.0045	0.057	0.2
0.003	-0.0046	0	0.0442	0.4
0.0045	-0.003	-0.0046	-0.0691	0.2
0.0037	-0.0046	-0.0068	-0.1313	0.3
0.003	-0.006	-0.0053	-0.1643	0.3
0.003	-0.0083	-0.0046	-0.063	0.4
0.0045	-0.0046	-0.003	0.0727	0.5
0.0052	0.0022	-0.0015	0.0607	0.4
0.0067	-0.003	-0.0008	0.0277	0.4
0.0067	-0.0068	-0.0023	0.0315	0.5
0.003	0.0067	-0.0008	0.018	0.4
0.0007	0.018	0.0007	-0.0383	0.4
-0.0008	0.0217	-0.0015	-0.012	0.4
0.0007	-0.0008	-0.0038	0.0352	0.4
0.0007	-0.0068	-0.003	-0.0098	0.5
0.0007	-0.006	0.0007	0.0165	0.4
0.003	-0.0046	0.0015	0.0532	0.4
0.0007	0.0037	-0.0008	0.051	0.4
-0.0008	0.0015	-0.0053	0.0547	0.4
-0.0053	0.0015	-0.0075	0.0157	0.4
-0.0068	-0.006	-0.0053	0.0315	0.5
-0.0068	-0.012	-0.0008	0.0592	0.5
-0.0075	-0.0158	0.003	0.078	0.4
-0.0046	-0.0098	-0.0015	0.0487	0.3
-0.0046	0.0052	-0.0083	-0.1463	0.4
-0.0046	0.0052	-0.0083	-0.2715	0.3
-0.0038	0.003	-0.0053	-0.0871	0.5
-0.0046	0.0052	-0.0008	-0.0503	0.5
-0.0046	0.0292	0.0052	-0.231	0.4
-0.0015	0.021	0.009	-0.0368	0.8
-0.0008	-0.003	0.0105	0.2407	0.4
0.0007	-0.0053	0.0082	0.2557	0.7
-0.0008	-0.0128	0.0082	0.1177	0.6
-0.0008	0.0135	0.0105	0.0555	0.7
0.0007	0.0232	0.0067	-0.0181	0.7
0.0007	0.012	0.006	-0.0885	0.5
0.0015	0.0075	0.0067	0.0247	0.7
0.0067	0.0075	0.0075	-0.0181	0.6
0.0075	0.0015	0.0105	0.1087	0.7
0.0052	-0.0046	0.009	0.1095	0.7
0.0037	0.0007	0.0022	-0.0248	0.8
-0.0008	-0.0203	-0.0053	-0.0091	0.6
-0.0046	-0.0225	-0.0053	-0.2108	0.8
-0.006	-0.0083	-0.0008	-0.1373	0.7
-0.006	0.0082	-0.0008	-0.0645	0.8
-0.0053	-0.0083	-0.0046	-0.0023	0.7
-0.003	-0.0465	-0.0046	0.117	0.7
-0.0008	-0.0405	-0.0083	0.051	0.9
-0.0015	-0.012	-0.0083	0.123	0.6
-0.0023	0.0127	-0.003	0.027	0.9
0	0.039	0.0052	-0.129	0.7
0.0022	0.0345	0.0097	-0.108	0.9
0.006	0.0157	0.0105	-0.093	0.8
0.009	0.012	0.003	-0.078	1
0.009	-0.0023	-0.0053	-0.0008	0.9
0.0105	-0.0091	-0.0038	0.093	1
0.0142	-0.0068	-0.006	0.0465	0.8
0.0127	0.009	-0.0068	-0.0278	0.9
0.0112	0.0165	-0.0068	0.0435	0.9
0.012	-0.003	-0.0053	0.0727	1
0.0082	-0.0165	-0.0023	0.0135	1.2
0.0022	-0.0165	-0.003	0.078	1.1
0.003	-0.0068	0.0007	0.0885	1.2
0.0037	0.009	-0.0008	-0.0383	0.9
0.0052	0.0157	0.0007	-0.186	1
0.0067	-0.0053	0.0007	-0.1118	1.2
0.006	-0.012	0.0015	0.0517	1
0.0067	0.0015	0.006	0.0067	1.3
0.003	0.0015	0.0052	0.0705	1.2
-0.0015	0.0052	0.003	0.1035	1.1
-0.003	-0.0008	-0.0068	0.0727	1.2
-0.0038	-0.0091	-0.0075	0.0487	1.1
-0.0008	-0.0068	-0.0038	-0.0015	1.3
0.0007	-0.0053	0.003	0.0352	1.2
0.0052	0.0067	0.009	-0.1185	1.1
0.0052	0.0172	0.0075	-0.2123	1.3
0.0007	0.0157	0.0052	-0.0615	1.2
-0.0038	0.0075	0.006	-0.0361	1.4
-0.0068	0.0052	0.0045	-0.0368	1.2
-0.0083	0.0067	0.0007	0.027	1.4
-0.0075	0.0067	-0.003	0.0307	1.4
-0.0046	0.009	-0.0008	0.0772	1.3
-0.0053	0	0.0045	0.051	1.5
-0.0046	0.0015	0.0082	-0.0713	1.3
-0.003	-0.0068	0.0082	-0.027	1.3
-0.0008	-0.015	0.0067	0.0037	1.4
0.0022	-0.0091	0.006	-0.054	1.5
0.0052	-0.0173	0.0015	-0.0405	1.3
0.0052	-0.0143	0	-0.0533	1.6
0.0045	-0.0053	0.0007	0.0082	1.4
0.0015	0.0015	0.0015	0.1162	1.7
-0.0023	0.003	0.0075	0.1222	1.6
-0.0068	-0.0008	0.009	0.0442	1.6
-0.0068	0.0007	0.006	0.003	1.7
-0.0075	0.003	0.0037	0.057	1.6
-0.0091	0	0.003	0.0825	1.8
-0.012	-0.0015	0.0037	0.0652	1.8
-0.0105	-0.0068	0.0007	-0.0375	1.7
-0.0083	-0.003	0.0007	-0.0878	1.9
-0.0053	0.0045	-0.0023	-0.0165	1.7
-0.0046	-0.0015	-0.0015	-0.0608	1.9
-0.003	-0.0068	-0.003	-0.0668	1.8
-0.0008	-0.0068	-0.0053	0.027	2
-0.0015	-0.0015	-0.003	-0.0143	1.9
-0.0053	0.0007	-0.0053	-0.0165	2
-0.0046	0.0015	-0.0068	0.0082	2
-0.003	0.0007	-0.0068	-0.0263	2.1
-0.0023	-0.0046	-0.0091	-0.0225	2.1
0.0007	-0.012	-0.0068	-0.0645	2.3
0.0007	-0.0105	-0.0068	-0.0765	2.1
0.0022	0.0082	-0.006	-0.054	2.4
0.0022	0.0307	-0.0053	-0.0203	2.3
0.0022	0.0255	-0.0068	0.0997	2.5
0.0045	-0.0075	-0.0046	0.1867	2.6
0.0045	-0.0195	-0.0038	0.0817	2.6
0.0067	-0.0008	-0.0046	-0.015	2.6
0.0067	0.0045	-0.0046	0.0082	2.6
0.0052	0.0015	-0.0023	-0.0165	2.6
0.003	-0.0008	-0.0008	-0.0046	2.8
-0.0015	-0.0015	-0.0015	0.003	2.8
-0.0053	-0.0008	-0.0008	-0.015	2.6
-0.012	-0.0015	-0.0008	-0.0098	2.9
-0.0158	-0.0008	0.0037	-0.027	2.8
-0.0143	-0.003	0.0052	-0.0203	2.8
-0.0338	-0.003	0.0067	-0.027	2.9
-0.0608	-0.0053	0.0067	-0.0293	2.9
-0.0608	-0.0083	0.0067	-0.027	2.8
-0.0495	-0.0083	0.0045	-0.033	2.8
-0.0465	-0.0083	0.003	-0.0256	3.1
-0.0233	-0.0083	0.0045	-0.0248	2.9
0.0142	-0.0105	0.0007	-0.0158	2.8
0.0367	-0.0091	-0.003	-0.0098	3
0.0487	-0.0091	-0.0046	-0.003	3
0.0637	-0.0083	-0.0068	0.0037	3.1
0.0705	-0.0068	-0.0083	0.003	2.9
0.0705	-0.0083	-0.0075	0.0037	3
0.0652	-0.006	-0.0083	0.0075	2.9
0.0517	-0.006	-0.0091	0.0142	3
0.0517	-0.0068	-0.0068	0.0142	3.2
0.0682	-0.006	-0.0068	0.0165	3.3
0.0712	-0.0068	-0.0046	0.0142	3.3
0.057	-0.0038	-0.0046	0.0105	3.6
0.0435	-0.0038	-0.0038	0.0105	3.6
0.0292	-0.006	-0.0015	0.0052	3.6
0.009	-0.006	0	0.0045	3.8
-0.0046	-0.0083	0.0007	0.0037	3.7
-0.0105	-0.0091	-0.0008	0.003	4.1
-0.015	-0.0068	0.0007	0.0015	3.7
-0.015	-0.006	0.0015	0	4
-0.0128	-0.006	0.0015	-0.0015	4.1
-0.003	-0.0038	0.0037	-0.003	4.2
0.006	-0.003	0.0045	-0.0038	4.4
0.0112	-0.0008	0.0052	-0.003	4.3
0.0127	0.003	0.0067	0.003	4.4
0.0127	0.0037	0.0067	0.0045	4.6
0.015	0.003	0.0067	0.0067	4.6
0.0165	0.003	0.0075	0.0067	4.7
0.015	0.003	0.0075	0.0045	4.8
0.0105	0.003	0.0097	0.006	4.7
0.0075	0.0045	0.009	0.0052	4.9
0.0007	0.003	0.0082	0.0097	4.9
-0.0053	-0.0008	0.0075	0.009	5.1
-0.0091	0.0015	0.0045	0.0067	5
-0.0143	0.0037	0.0045	0.0067	5
-0.0158	0.0022	0.006	0.0052	5.2
-0.0158	0	0.0067	0.0082	5.1
-0.012	0.0015	0.003	0.0075	5.2
-0.0091	0.003	0.0022	0.009	5.3
-0.0053	0.0045	0.0015	0.0097	5.2
-0.003	0.0037	0.0022	0.009	5.5
-0.0015	0.0015	0.0015	0.009	5.4
0.0007	0.003	0.0015	0.0045	5.4
0.003	0.0022	0.0045	0.0022	5.6
0.003	0.003	0.0022	0.009	5.6
0.0022	0.0022	0.003	0.0202	5.8
0.0037	0.0007	0.003	0.0217	5.8
0.0022	-0.0008	0.0022	0.0007	5.8
-0.003	0.0007	0.0015	-0.0368	6.1
-0.0046	0.0007	0	-0.0383	5.8
-0.0053	0.0022	0	-0.003	6.1
-0.0046	0.0015	-0.0015	-0.0068	6.2
-0.006	0.0015	-0.0015	-0.0091	6.2
-0.0053	0.003	-0.0015	-0.0038	6.1
-0.0053	0.0015	0.0007	-0.0105	6.5
-0.0083	0.0015	0.0007	-0.0038	6.4
-0.0091	0	-0.0015	-0.0083	6.5
-0.0128	0.0015	-0.0015	-0.003	6.4
-0.012	0.0022	0	-0.0008	6.7
-0.0083	0.003	0	-0.0015	6.7
-0.0083	0.0052	-0.0015	0.0022	6.8
-0.0083	0.0022	-0.003	0.0045	6.9
-0.0083	0.0015	-0.006	0.0367	6.9
-0.0075	-0.0023	-0.0068	0.0757	7.1
-0.0075	-0.0015	-0.0053	0.063	7.1
-0.0075	0.0007	-0.0068	-0.0375	7.1
-0.0083	0.0007	-0.0046	-0.1433	7.3
-0.0068	0.0067	0.0037	-0.0885	7.4
-0.0068	0.0052	0.0105	0.0127	7.5
-0.0068	0.0067	0.012	-0.0143	7.5
-0.0068	0.006	0.012	-0.045	7.5
-0.0038	0.0007	0.0105	-0.0256	7.9
-0.0046	0.0067	0.0075	-0.0165	7.8
-0.0053	0.0045	0.006	-0.0353	7.8
-0.006	-0.0008	0.0052	-0.0105	7.9
-0.0053	-0.0278	0.0067	0.1065	7.9
-0.0015	-0.0368	0.0022	0.144	8.2
-0.003	-0.0008	-0.0046	0.0967	8.1
-0.0038	0.0112	-0.0083	0.072	8.1
-0.0038	0.0247	-0.0083	-0.075	8.2
-0.0068	0.0352	-0.0023	-0.2085	8.4
-0.0083	0	0	-0.096	8.6
-0.0083	-0.015	-0.0015	-0.0256	8.5
-0.0068	-0.0083	-0.0091	0.0345	8.5
-0.006	-0.0038	-0.0143	0.1882	8.7
-0.0068	0.012	-0.0105	0.024	8.7
-0.0091	0.0007	-0.006	-0.1253	9
-0.0083	-0.0046	-0.0038	0.0457	9
-0.006	0.0045	-0.0008	0.0712	9.1
-0.006	-0.0046	-0.0038	0.0907	9
-0.0046	-0.003	-0.0068	0.0675	8.9
-0.0046	-0.0046	-0.0091	-0.1163	9.3
-0.0068	-0.0038	-0.0105	-0.165	9.3
-0.0105	0.0045	-0.0068	-0.0803	9.3
-0.015	-0.0015	-0.0075	-0.0128	9.6
-0.0181	-0.0046	-0.0091	-0.0233	9.5
-0.0203	-0.0008	-0.0091	0.006	9.7
-0.0165	0.0022	-0.0098	0.0007	9.7
-0.0098	0.0045	-0.0091	-0.0008	9.8
-0.0038	0.003	-0.0053	0.0067	9.9
-0.0023	0.0037	-0.0046	-0.0105	10.1
-0.003	0.0022	-0.0068	0.0105	9.9
-0.0008	-0.0008	-0.0091	0.003	10.2
0.0007	-0.003	-0.0075	0.0195	10.2
0.003	-0.003	-0.0046	0.0232	10.4
0.0067	-0.0015	-0.0015	0.0442	10.4
0.0052	-0.0075	0.003	0.039	10.7
0.0045	-0.0165	0.0082	0.0195	10.7
0.0052	-0.0098	0.009	0.0412	10.5
0.003	0.0067	0.0097	-0.03	11
0.0022	0.0067	0.0082	-0.0046	10.8
0.003	-0.0023	0.0067	0.105	11.2
-0.0008	-0.0008	0.0075	0.0457	11.2
-0.003	0.0015	0.0127	-0.1388	11
0.003	-0.0015	0.0172	-0.1523	11.4
0.0052	-0.0008	0.0127	0.054	11.4
0.0045	0.0105	0.0075	0.063	11.6
0.006	0.0202	0.0052	0.072	11.8
0.0045	0.0135	0.0045	0.0765	11.9
0.003	0.0007	0.0067	-0.0713	11.8
0.003	-0.006	0.0075	-0.1275	12
0.0037	-0.012	0.0105	-0.1778	12.1
0.0067	-0.024	0.0142	-0.159	12.3
0.0075	-0.0158	0.0142	-0.1021	12.1
0.0082	-0.0023	0.0105	-0.033	12.6
0.0082	-0.0046	0.0082	0.1125	12.7
0.0052	-0.0203	0.0075	0.1897	12.6
0.003	-0.0285	0.0067	0.0615	12.9
0.0052	-0.0135	0.0075	-0.0825	12.8
0.0045	0.0007	0.0052	-0.0608	13
0.0037	0.003	-0.0008	0.018	13.2
0.003	0.0015	-0.0046	0.1215	13.3
0.0022	-0.0105	-0.0083	0.2212	13.3
0.003	-0.0218	-0.0098	0.0765	13.3
0.0045	-0.012	-0.006	-0.2235	13.5
0.0015	0.0067	0.0045	-0.165	13.6
0.0067	0.021	0.0082	-0.0788	13.7
0.0067	0.0277	-0.0008	-0.0953	13.9
0	0.0307	-0.0075	-0.0105	13.9
0.0015	0.0307	-0.0091	-0.0023	14.2
0.0007	0.0187	-0.0083	0.108	14.2
0.0015	-0.0008	-0.0068	0.0892	14.3
0.0037	-0.0368	-0.0091	0.0517	14.6
0.0075	-0.075	-0.0113	0.2197	14.6
0.012	-0.0653	-0.0128	0.2977	14.8
0.0127	-0.0203	-0.012	0.21	14.9
0.0142	-0.0008	-0.0091	-0.078	14.9
0.0157	0.0337	-0.003	-0.297	15.2
0.0172	0.084	0.003	-0.1575	15.4
0.015	0.0862	0.003	0.0315	15.6
0.0172	0.0652	0.0022	-0.0113	15.7
0.0165	0.0547	0.0067	-0.0248	15.9
0.0142	0.0397	0.0082	0.0502	16
0.0135	0.0075	0.0037	0.093	16.2
0.0135	0.0015	0.0037	0.0727	16.2
0.0172	0.0285	0	0.0142	16.6
0.0195	0.0277	-0.0046	-0.0346	16.6
0.0165	0.0202	-0.0068	-0.0788	16.8
0.0142	0.0157	-0.0128	0.1455	17
0.0127	0.0015	-0.0143	0.3165	17.1
0.0105	-0.0068	-0.015	0.1222	17.3
0.009	-0.033	-0.0098	-0.039	17.3
0.0097	-0.0413	-0.0008	-0.261	17.5
0.009	-0.0285	0.0105	-0.486	17.8
0.0082	-0.0233	0.0157	-0.4823	18
0.0075	-0.0008	0.015	-0.333	18.2
0.0082	0	0.0157	-0.2011	18.4
0.0075	-0.0068	0.003	-0.0758	18.6
0.0052	-0.0038	-0.0008	0.0592	19
0.0067	-0.0158	0.0007	0.0195	18.9
0.0067	-0.012	-0.003	0.0045	19.3
0.0082	-0.0173	-0.0008	-0.0743	19.4
0.0105	-0.0256	-0.0023	-0.1058	19.4
0.0105	-0.0353	-0.0068	-0.0046	19.8
0.0105	-0.048	-0.0091	0.0495	19.8
0.009	-0.0503	-0.0053	0.3105	20.4
0.0075	-0.0458	0.0007	0.3517	20.5
0.0067	-0.0158	0.003	0.1192	20.6
0.0075	-0.003	0.0052	-0.033	20.9
0.0067	-0.0091	0.0015	-0.084	21
0.006	0.0157	0.0037	-0.0413	21.4
0.0045	0.0495	0.0052	-0.015	21.6
0.0007	0.0382	0.0015	0.0615	21.7
0	0.0075	0.0007	0.0517	21.9
-0.0008	-0.0353	0.0007	0.0577	22.1
-0.0015	-0.0405	-0.0008	0.0712	22.3
-0.0023	-0.021	-0.0068	0.1042	22.7
-0.0053	-0.0165	-0.006	0.261	22.8
-0.0046	-0.006	0.003	0.168	23.2
-0.006	0	0.0045	0.0345	23.3
-0.0068	0.009	0.0067	0.0712	23.4
-0.006	-0.0143	0.0082	0.1192	23.8
-0.006	-0.0353	0.0082	0.0825	23.8
-0.0053	-0.0285	0.0127	0.0045	24.2
-0.003	-0.0375	0.0142	0.09	24.3
-0.003	-0.0068	0.009	0.1522	24.6
-0.003	0.0292	-0.0015	0.2092	24.7
-0.003	0.0142	-0.0091	0.2902	24.9
-0.0046	0.0075	-0.0128	0.0877	25.1
-0.0038	0.0165	-0.012	-0.1103	25.3
-0.003	0.0195	-0.0068	-0.2333	25.3
-0.0015	0.0255	-0.0023	-0.3315	25.8
0	0.033	0.009	-0.1298	25.9
0.003	0.0345	0.0172	-0.0173	26.1
0.0082	0.0502	0.0135	-0.0503	26.5
0.0082	0.057	0.0082	0.0187	26.5
0.0097	0.0427	0.0007	0.048	27
0.012	0.024	-0.0023	0.1335	27
0.009	0.0067	-0.003	0.0967	27.3
0.0067	0.0127	0.0015	-0.0495	27.5
0.006	0.0052	0.003	-0.1568	27.5
0.0052	-0.0046	0.003	-0.21	27.9
0.006	0.0075	0.0097	-0.0023	28
0.0082	0.006	0.0105	0.1027	28.3
0.009	0.0112	0.0075	0.0495	28.4
0.0112	0.0015	0.012	0.174	28.4
0.0135	-0.0405	0.0202	0.1537	28.8
0.0142	-0.021	0.0202	-0.0346	28.8
0.0112	0.0675	0.015	-0.189	29
0.0135	0.0855	0.0105	-0.2235	29.2
0.0172	0.045	0.0052	-0.0173	29.4
0.0195	0.0322	0.0037	-0.0368	29.6
0.0165	0.027	-0.0046	-0.0871	29.8
0.0127	0.027	-0.0083	0.1192	29.9
0.015	0.0195	0.003	0.027	30.2
0.0142	0.0412	0.0082	-0.1718	30.2
0.0112	0.0825	0.0075	-0.2595	30.5
0.0082	0.0727	0.0067	-0.2295	30.6
0.0067	0.036	-0.0038	-0.081	30.9
0.0052	0.0045	-0.012	0.0285	31.1
0.0067	-0.0315	-0.0105	0.2152	31.3
0.0075	-0.024	-0.0091	0.2317	31.5
0.0067	-0.0023	-0.0128	0.159	31.9
0.0082	-0.0053	-0.0181	0.0465	31.9
0.0097	0.0007	-0.0128	-0.2273	32.2
0.009	0.0165	-0.0158	-0.2738	32.2
0.0105	0.0247	-0.0233	-0.1463	32.7
0.0105	0.003	-0.0278	-0.0893	32.9
0.0067	-0.0165	-0.0315	-0.0353	33.1
0.0022	-0.0256	-0.0158	-0.1411	33.4
-0.0046	-0.0195	0.0045	-0.1575	33.6
-0.0068	-0.0668	0.0127	0.225	33.9
-0.0128	-0.1328	0.0067	0.3345	34.1
-0.0165	-0.1328	-0.0015	0.1687	34.2
-0.0158	-0.1328	-0.0015	0.0922	34.4
-0.015	-0.1313	0.003	0.039	34.7
-0.0165	-0.1193	0.0015	-0.027	34.8
-0.021	-0.1021	-0.0053	-0.1575	34.9
-0.0233	-0.0878	-0.0091	-0.1073	35.1
-0.0293	-0.075	-0.0083	-0.039	35.5
-0.0278	-0.0968	-0.0083	0.0532	35.8
-0.0233	-0.1388	-0.0083	0.1995	35.8
-0.0218	-0.1133	-0.0038	0.1132	36.5
-0.0203	-0.0675	0.0007	-0.0518	36.3
-0.0195	-0.0465	0.0007	-0.114	36.9
-0.0188	-0.0428	-0.0015	0.0172	36.9
-0.0225	-0.096	-0.006	0.0345	37
-0.0248	-0.1426	-0.0046	-0.057	37.5
-0.0263	-0.126	-0.0015	-0.1553	37.5
-0.024	-0.1035	0.0045	0.027	38
-0.0181	-0.1088	0.0082	0.4762	38.2
-0.0143	-0.105	-0.0083	0.327	38.2
-0.012	-0.0623	-0.0188	0.0195	38.3
-0.0143	-0.0181	-0.0158	-0.3593	38.6
-0.015	-0.0023	-0.0075	-0.3818	38.7
-0.0128	0.0022	0.0105	0.0202	39.2
-0.0113	0.0127	0.0285	-0.0503	39.2
-0.0113	0.0082	0.0277	0.0787	39.6
-0.0105	0.0157	0.0195	0.0592	39.5
-0.0113	0.0277	0.015	-0.1403	39.7
-0.0113	0.0285	0.0022	-0.1628	40
-0.012	0.033	-0.003	-0.0443	40.2
-0.0091	0.0427	-0.0015	0.1132	40.5
-0.0091	0.0592	-0.0023	-0.0856	40.4
-0.0083	0.0532	-0.0075	-0.123	40.7
-0.0038	0.0442	-0.0091	-0.1433	40.8
-0.0015	0.0405	-0.012	-0.0691	41
-0.0015	0.042	-0.0165	0.1417	41.1
-0.0023	0.0615	-0.0158	0.1777	41.3
-0.0015	0.0802	-0.0195	0.0787	41.5
-0.0008	0.0847	-0.0188	-0.0706	41.8
0.0045	0.0825	-0.0128	-0.0218	41.9
0.006	0.0802	-0.0181	0.2242	42.1
0.003	0.0712	-0.0203	0.249	42.2
0.0015	0.0705	-0.015	-0.1193	42.2
0.003	0.0592	-0.012	-0.0773	42.6
0.0075	0.0532	-0.0091	0.0457	42.5
0.009	0.0585	-0.0053	-0.1305	42.9
0.012	0.054	-0.0023	-0.0105	43.1
0.015	0.0532	-0.0046	-0.0203	43.1
0.0157	0.057	-0.0075	-0.057	43.2
0.015	0.0607	-0.012	0.0075	43.3
0.0015	0.0472	-0.0165	-0.0315	43.5
-0.0075	0.0345	-0.0173	0.0022	43.8
-0.0091	0.0315	-0.0181	0.0525	43.9
-0.0098	0.0195	-0.015	0.1882	44
-0.0091	0.0157	-0.0128	0.18	44.1
-0.0105	0.0217	-0.0143	0.0442	44.3
-0.0068	0.0442	-0.0128	-0.129	44.4
0.0007	0.06	-0.0083	-0.1958	44.5
0.0075	0.0675	-0.0075	-0.027	44.8
0.0105	0.0712	-0.0105	-0.0405	44.9
0.0105	0.0622	-0.0098	-0.0923	45
0.0127	0.0682	-0.0091	-0.0623	45.4
0.0127	0.0727	-0.012	-0.015	45.4
0.0135	0.0885	-0.0075	0.0195	45.7
0.015	0.1035	0.0007	-0.057	45.7
0.0202	0.1012	0.0045	0.0862	45.7
0.0307	0.0892	0.0142	0.2707	46
0.0382	0.0607	0.0255	0.2377	46
0.042	0.0682	0.0345	0.1447	46.2
0.042	0.0637	0.0345	-0.0278	46.2
0.0382	0.0352	0.0307	-0.0256	46.4
0.0315	0.0457	0.0277	0.1357	46.8
0.0262	0.0465	0.0217	-0.0315	46.6
0.0202	0.0465	0.0195	-0.2745	46.8
0.0135	0.0367	0.0187	-0.1988	47
0.0105	0.0127	0.0195	-0.048	47
0.0105	0.0045	0.0187	-0.0293	47.1
0.006	-0.0098	0.0202	-0.03	47.3
0.0015	-0.0165	0.021	-0.0173	47.5
0.0007	-0.0195	0.0195	-0.0218	47.5
-0.003	-0.0315	0.0202	0.0217	47.5
-0.0046	-0.0443	0.0217	0.0735	47.8
-0.0053	-0.0653	0.0187	0.2017	47.9
-0.0068	-0.0788	0.0157	0.2295	47.9
-0.0135	-0.054	0.0135	0.018	47.9
-0.0173	-0.0315	0.0105	-0.3068	48
-0.0143	-0.024	0.0052	-0.4051	48
-0.012	-0.0308	-0.006	-0.0668	48.3
-0.0091	-0.042	-0.0181	-0.0195	48.2
-0.0128	-0.0361	-0.027	-0.0495	48.6
-0.012	-0.0346	-0.039	0.0495	48.4
-0.0068	-0.0293	-0.054	-0.0383	48.6
-0.0075	-0.0315	-0.066	0.0262	48.6
-0.003	-0.033	-0.0721	-0.003	48.7
-0.0008	-0.0308	-0.0743	0.006	48.8
-0.0008	-0.03	-0.0683	0.0322	48.8
-0.012	-0.0308	-0.054	-0.0053	49
-0.0293	-0.033	-0.027	0.0345	49.1
-0.042	-0.027	0.0277	0.0007	49.1
-0.0473	-0.027	0.114	0.0195	49.2
-0.0428	-0.027	0.2302	0.0015	49.4
-0.0458	-0.027	0.3502	-0.0008	49.3
-0.0436	-0.0308	0.4297	0.0045	49.4
-0.0383	-0.0315	0.5025	0.0022	49.4
-0.0353	-0.0293	0.5647	0.0367	49.6
-0.0346	-0.0225	0.4897	0.0307	49.6
-0.0465	-0.0263	0.2812	0.0255	49.5
-0.054	-0.0338	0.0255	0.0127	49.7
-0.0593	-0.033	-0.2175	0.0052	49.6
-0.0706	-0.0293	-0.3015	-0.0443	49.8
-0.0593	-0.0195	-0.2933	-0.0143	49.8
0.0037	-0.0165	-0.2806	0.045	49.9
0.1117	-0.0143	-0.1845	0.0082	49.9
0.1845	-0.012	-0.126	0.0195	49.9
0.1477	-0.012	-0.1035	0.003	50
0.135	-0.0105	-0.063	0.003	50.1
0.1252	-0.0135	-0.0863	0.0142	50
0.0862	-0.0135	-0.1478	0.0015	50.2
0.09	-0.0143	-0.1793	0.0195	50.3
0.0652	-0.0128	-0.1875	0.0067	50.2
0.0517	-0.0105	-0.192	0.0097	50.4
0.0277	-0.0098	-0.1748	0.0075	50.2
0.009	-0.0091	-0.1628	0.003	50.5
0.0067	-0.0098	-0.1365	0.0052	50.5
0.012	-0.0075	-0.1103	0.0015	50.4
0.0285	-0.0091	-0.0915	0.006	50.5
0.039	-0.0091	-0.081	0	50.3
0.0817	-0.0105	-0.075	0.0052	50.7
0.1035	-0.0113	-0.0585	0.0195	50.4
0.0937	-0.0113	-0.0428	0.0375	50.5
0.0645	-0.0113	-0.0233	0.033	50.4
0.0757	-0.0105	-0.0046	0.009	50.7
0.2557	-0.0091	0.012	-0.0495	50.7
0.4627	-0.0091	0.0225	-0.0818	50.6
0.4807	-0.0165	0.0277	0.0015	50.6
0.4537	-0.0195	0.0322	0.0067	50.7
0.4035	-0.0143	0.0375	-0.0068	50.8
0.297	-0.0128	0.045	0.0202	50.8
0.1897	-0.0083	0.0502	-0.0015	51
0.0315	-0.006	0.0585	0.0097	50.7
-0.0675	-0.0075	0.06	0.0015	50.9
-0.165	-0.0053	0.0652	0.0037	50.8
-0.2318	-0.0046	0.066	0.0082	50.8
-0.2213	-0.0046	0.0652	0.0007	50.8
-0.231	-0.0023	0.0697	0.012	50.9
-0.2123	0	0.0652	0.0052	51.1
-0.192	0.003	0.0585	0.0127	50.9
-0.1696	0.0105	0.06	0.0082	50.9
-0.177	0.0195	0.06	0.0082	50.9
-0.1958	0.0135	0.057	0.0067	50.8
-0.228	-0.003	0.057	-0.0383	50.9
-0.27	-0.0233	0.0577	-0.0743	50.8
-0.2528	-0.0308	0.06	-0.0765	50.9
-0.2325	-0.0091	0.0622	0.0262	51.1
-0.2168	0.0007	0.0615	0.1702	51
-0.2198	0.006	0.0532	0.1005	51
-0.2483	0.0157	0.0442	0.0142	51
-0.2408	0.0112	0.0382	0.048	51
-0.1778	0.0007	0.03	0.0547	51
-0.1148	-0.0368	0.0217	0.096	50.9
-0.0615	-0.0578	0.0135	0.0195	50.9
-0.0375	-0.0278	0.0052	-0.0675	50.8
-0.0353	0.018	0.0022	-0.0758	50.8
0.0022	0.0427	-0.0046	-0.1568	50.8
0.0352	0.048	-0.0165	-0.153	50.8
0.0157	0.0307	-0.0323	-0.042	50.8
-0.0361	0.0187	-0.048	0.0652	50.8
-0.0465	0.0172	-0.0578	0.0397	50.6
-0.0503	0.0105	-0.063	-0.0285	50.6
-0.054	0.0127	-0.063	0.048	50.4
-0.0533	0.015	-0.0615	-0.0128	50.5
-0.0713	0.012	-0.0585	-0.0495	50.4
-0.0818	0.0075	-0.0548	0.0172	50.3
-0.0825	0.0082	-0.0518	-0.0263	50.4
-0.0511	0.0052	-0.0488	0.0112	50.3
-0.0218	0.0015	-0.0465	0.003	50.1
0.003	-0.0015	-0.0405	-0.0128	50.2
0.0352	-0.0046	-0.0353	0.006	50
0.057	-0.0075	-0.0308	0.0037	50.1
0.063	-0.0068	-0.0263	0.0172	49.8
0.0495	0.0037	-0.0233	-0.0015	49.8
0.0592	0.0105	-0.0188	-0.0165	49.7
0.0585	0.018	-0.0128	-0.0495	49.7
0.0592	0.012	-0.0046	-0.0053	49.7
0.078	0.0052	-0.0008	0.021	49.6
0.0937	0.0082	-0.0015	0.0352	49.4
0.117	0.0045	-0.0008	-0.0218	49.4
0.129	0.0007	0.0015	-0.2063	49.1
0.1387	-0.0135	0.0015	-0.1635	49.3
0.1522	-0.0113	-0.0015	0.0135	49.1
0.1485	0.0007	-0.0038	0.108	49
0.1305	0.006	0.0007	0.0555	49
0.1252	0.015	0.0082	0.093	48.8
0.1072	0.0157	0.018	0.2167	48.7
0.0892	0.0082	0.0232	0.1102	48.6
0.0877	0.0127	0.0277	-0.0225	48.5
0.0652	0.0157	0.0285	-0.1283	48.5
0.0472	0.009	0.027	-0.0203	48.2
0.033	0.0015	0.0262	0.015	48.1
0.0457	-0.0023	0.0247	-0.042	48.3
0.0712	-0.0015	0.0225	0.0315	47.9
0.0735	-0.003	0.021	-0.039	47.9
0.06	0.0007	0.0232	0.0015	47.8
0.0345	-0.0015	0.0232	-0.0143	47.6
0.0232	-0.006	0.0247	-0.024	47.6
0.0255	-0.0091	0.0232	0.0172	47.4
0.015	-0.0083	0.0202	-0.003	47.4
-0.0038	-0.0068	0.0217	0.033	47.2
-0.012	-0.0053	0.018	0.0007	47.1
-0.0105	0.0007	0.0157	-0.0436	46.9
-0.0165	-0.0008	0.0142	-0.0923	46.9
-0.0315	-0.0008	0.0157	-0.0338	46.7
-0.0428	-0.0015	0.0142	0.0112	46.6
-0.0458	-0.0046	0.0112	0.0277	46.5
-0.0436	-0.0053	0.0105	0.0802	46.4
-0.0368	0.0052	0.003	0.024	46.2
-0.0405	0.039	-0.0008	-0.0533	46.1
-0.048	0.0607	-0.0038	-0.0675	46
-0.0353	0.0217	-0.0091	-0.0143	45.7
-0.0323	-0.0218	-0.0165	-0.1613	45.7
-0.021	-0.0383	-0.024	-0.327	45.4
0.0037	-0.0623	-0.0195	-0.2145	45.4
-0.0023	-0.045	-0.0083	0.0975	45.4
-0.0083	-0.0383	0.0075	0.2407	45
-0.0218	-0.075	0.021	0.1192	45.1
-0.048	-0.063	0.0165	0.0915	44.8
-0.0473	0.003	0.0022	0.066	44.7
-0.0555	0.0697	-0.0091	0.1207	44.5
-0.0653	0.0487	-0.0181	0.111	44.3
-0.075	0.009	-0.0233	0.0225	44.3
-0.0968	0	-0.0256	-0.0143	44.1
-0.1088	-0.012	-0.0293	-0.0413	44.1
-0.1178	0.0157	-0.0308	0.0045	43.8
-0.1006	0.03	-0.0293	-0.1253	43.5
-0.0593	0.0352	-0.0293	-0.1028	43.6
-0.0353	0.0232	-0.0278	0.024	43.3
-0.0181	0.0255	-0.027	-0.027	43.1
0.0052	0.0232	-0.024	-0.0015	43.1
0.0157	0.0165	-0.0225	-0.0128	42.8
0.0217	0.0157	-0.0195	-0.0158	42.8
0.0165	0.0052	-0.0188	0.0067	42.6
0.0127	0.009	-0.0181	-0.0015	42.4
0.0217	0.0015	-0.0165	0.0195	42.2
0.0382	0.0067	-0.0128	-0.0091	42
0.0525	-0.0181	-0.012	-0.0233	41.8
0.0592	-0.0443	-0.0173	-0.024	41.7
0.0637	-0.0181	-0.0203	-0.0315	41.4
0.0607	-0.0083	-0.0195	0.0165	41.4
0.0622	-0.0098	-0.0181	0.0405	41.2
0.0652	-0.0008	-0.0135	0.033	41.1
0.0465	-0.0075	-0.0113	0.0382	40.8
0.0157	-0.0105	-0.012	-0.0023	40.8
0.0007	-0.0075	-0.0091	0.0067	40.5
0.0195	-0.0143	-0.0053	0.0592	40.5
0.0375	-0.0143	-0.003	0.0765	40.4
0.0262	-0.0105	-0.0046	0.0277	40
0.0127	0.0015	-0.0053	-0.066	39.9
0.0067	0.0127	-0.0038	-0.0135	39.7
0.012	0.012	-0.0015	0.0405	39.6
0.0157	0.0127	-0.0015	0.0495	39.4
0.012	0.0202	0.0045	0.03	39.2
0.0105	0.0165	0.0082	-0.0578	38.9
-0.003	0.015	0.0082	-0.12	38.8
-0.0068	0.0157	0.0105	-0.0893	38.6
0.0067	0.0045	0.0112	0.0082	38.6
0.0052	-0.0015	0.009	-0.0181	38.3
-0.0038	-0.0068	0.0097	0.0052	38.2
0.0015	-0.0075	0.0142	0.018	38.1
-0.0053	-0.0068	0.0157	-0.0008	37.6
-0.0091	-0.0083	0.0127	0.0277	37.7
-0.003	-0.0083	0.0142	-0.0015	37.3
0.0022	-0.0075	0.0157	0.018	37.3
0.0097	-0.0068	0.0157	0.0082	37.1
0.015	-0.0083	0.0172	0.0082	36.8
0.024	-0.0068	0.0172	0.0142	36.8
0.03	-0.0068	0.0157	0.0045	36.5
0.0262	-0.0083	0.0142	0.018	36.3
0.024	-0.0068	0.0127	0.0135	36.2
0.0285	-0.0068	0.0105	0.033	35.9
0.0322	-0.0038	0.0097	0.027	35.8
0.033	-0.0008	0.0097	-0.0143	35.6
0.033	-0.003	0.0082	-0.0315	35.3
0.0277	-0.012	0.0037	0.0082	35.3
0.0217	-0.0233	0.0015	0.027	34.9
0.0165	-0.027	0.0015	0.0547	34.9
0.0135	-0.0181	0.0015	-0.0068	34.6
0.0127	-0.003	0.0015	-0.1215	34.5
0.0082	0.0165	0.0052	-0.0023	34.4
0.0067	0.0232	0.0105	0.0127	33.9
0.003	0.0067	0.0127	-0.015	34.1
0.0007	0.0052	0.0135	0.0675	33.6
-0.0046	0.0105	0.009	0.0712	33.3
-0.0143	-0.0008	0.0142	0.0667	33.3
-0.0181	0.0037	0.0187	-0.0203	33
-0.0218	0.0037	0.0142	-0.0195	32.9
-0.0233	-0.0068	0.0105	0.009	32.8
-0.0181	-0.003	0.009	-0.0203	32.6
-0.0165	0.024	0.0052	0.0022	32.4
-0.0173	0.069	0.0015	-0.0113	32.2
-0.021	0.06	0.003	-0.0046	32
-0.0195	0.0255	0.0022	-0.0075	31.8
-0.0165	0.0127	0.0007	-0.0128	31.6
-0.0128	-0.0128	0	-0.0053	31.6
-0.0091	-0.0256	-0.003	0.0097	31.2
-0.0046	-0.0368	-0.0008	0.0277	31
-0.0046	-0.0278	-0.0023	0.0202	30.9
-0.0038	-0.0105	-0.0053	0.0345	30.5
0.0052	-0.0158	-0.0053	-0.1426	30.4
0.0075	-0.0075	-0.0038	-0.2235	30.2
0.0082	-0.003	-0.0008	0.1357	30.1
0.0022	0.0157	0.0015	0.207	30
-0.0128	0.0345	0.0022	-0.021	29.5
-0.033	0.0165	0.0052	-0.0263	29.6
-0.057	-0.0473	0.0067	0.0187	29.2
-0.0458	-0.0968	0.0082	0.0285	29.1
-0.0308	-0.117	0.0097	0.0352	28.9
-0.033	-0.1125	0.006	0.0187	28.7
-0.0143	-0.039	0.0007	-0.0788	28.5
0.0052	0.033	-0.0008	-0.1673	28.2
0.0165	0.0487	-0.003	-0.2063	28.2
0.0277	-0.0098	-0.0023	-0.1508	27.9
0.0337	-0.0495	-0.003	-0.024	27.6
0.0345	-0.0083	0.0007	0.0525	27.6
0.0352	0.0352	0.0022	0.1777	27.4
0.0397	0.069	-0.0023	0.1102	27.1
0.0412	0.0607	-0.0015	0.0112	26.9
0.039	0.0007	-0.0015	-0.024	26.7
0.0315	-0.0338	-0.003	-0.15	26.5
0.0285	-0.0398	0.0007	-0.0383	26.4
0.0247	-0.0128	0.0052	0.0307	26
0.0277	0.0262	0.0037	-0.0068	26.1
0.03	0.018	-0.0008	0.0292	25.6
0.027	0.0285	-0.0075	-0.0023	25.5
0.0255	0.0382	-0.0105	0.0142	25.3
0.024	0.033	-0.012	0.0232	25.1
0.021	0.0255	-0.0113	0.0217	24.8
0.015	0.0195	-0.0091	0.0307	24.7
0.009	0.0375	-0.0128	0.021	24.6
0.0007	0.0352	-0.0128	0.0202	24.3
-0.006	0.039	-0.015	0.0015	24.2
-0.0091	0.0277	-0.0143	0.0712	24.1
-0.012	-0.0068	-0.0143	0.177	23.8
-0.015	-0.0233	-0.0143	0.1837	23.6
-0.0181	-0.0323	-0.0143	0.1365	23.5
-0.0188	-0.042	-0.012	0.0277	23
-0.0195	-0.0308	-0.0046	-0.2866	23
-0.0195	-0.0068	0.0052	-0.4305	22.8
-0.0195	0	0.0127	-0.1388	22.8
-0.0233	0.0075	0.015	-0.0015	22.5
-0.0256	0.012	0.0105	0.012	22.3
-0.0308	0.0105	0.0052	0.0457	22.3
-0.0353	0.0105	0.0015	0.003	21.9
-0.0338	-0.0203	0.0007	0.0705	21.9
-0.03	-0.0533	-0.0015	0.093	21.6
-0.027	-0.0608	-0.0068	0.0952	21.4
-0.024	-0.0473	-0.0105	0.0862	21.2
-0.021	-0.0181	-0.0105	0.033	21.1
-0.0165	0.0142	-0.0098	-0.1583	20.7
-0.0105	0.0352	-0.0091	-0.4013	20.5
-0.0053	0.0232	-0.0053	-0.2333	20.4
-0.0023	0.0225	-0.0053	0.033	20.4
0	0.024	-0.0008	0.1807	20.2
0.0037	0.018	0.0075	0.3502	20.1
0.0045	0.0202	0.006	0.3075	19.9
0.003	0.0105	-0.0023	0.0937	19.6
-0.0015	0.0082	-0.0046	-0.0915	19.6
-0.0015	0.0067	-0.003	-0.1538	19.3
0.0007	0.0105	-0.0008	-0.1021	19.1
0.0045	-0.003	0.0067	0.0645	19
0.003	-0.0443	0.0127	0.057	18.6
-0.0008	-0.024	0.012	-0.0315	18.7
-0.0053	0.0157	0.0045	0.087	18.4
-0.0083	0.009	0.0015	0.0607	18.1
-0.0083	0.0075	0.003	0.069	18
-0.0105	0.0165	0.0022	0.0442	17.8
-0.0068	0.024	0.0007	-0.0706	17.7
0.003	0.0315	0.0007	-0.0383	17.2
0.0075	0.0255	0.0015	-0.105	17.2
0.0045	-0.0015	0.0015	-0.0795	17
0.003	-0.006	0.0135	-0.057	16.7
-0.0008	0.0405	0.0165	-0.1021	16.7
0.0045	0.033	0.0142	0.0435	16.5
0.0127	0.0142	0.0127	0.0592	16.2
0.018	0.0232	0.0105	0.0465	16.1
0.024	0.0097	0.009	0.1087	15.8
0.0195	-0.0053	0.0045	0.0495	15.7
0.0142	-0.0398	0.0007	0.0105	15.3
0.009	-0.0593	-0.0008	-0.0158	15.3
0.0045	-0.0638	-0.0015	-0.0038	14.9
0.0097	-0.0511	-0.006	0.0015	14.8
0.018	-0.0308	-0.0068	-0.0263	14.7
0.0217	-0.03	-0.006	-0.012	14.5
0.0225	-0.012	-0.0068	0.0255	14.4
0.0172	-0.0046	-0.003	0.045	14.4
0.0082	-0.0091	-0.0015	0.0007	14.1
0.0037	-0.0181	0.0007	0.0547	14.1
0.0015	-0.0083	0.0022	0.0457	13.8
0.0105	0.0135	0.0007	-0.0428	13.7
0.0165	0.018	0.0022	-0.0068	13.5
0.0135	0.0292	0.0015	-0.033	13.4
0.015	0.0285	0.0015	-0.0465	13.3
0.0135	0.0052	0.0007	-0.0188	13.1
0.0045	-0.024	0.0015	0.003	13
-0.0046	-0.0256	0.0022	0.0262	12.8
-0.0015	-0.006	0.003	0.0045	12.7
-0.0015	-0.0046	0	-0.0083	12.6
-0.0038	-0.0023	-0.003	-0.0465	12.4
-0.0068	0.0082	-0.0038	-0.06	12.1
-0.0075	0.0082	-0.003	-0.0548	12.2
-0.0091	0.0037	-0.0053	-0.039	11.9
-0.0143	-0.0008	-0.0083	-0.0008	11.9
-0.0105	0.0045	-0.0083	-0.0046	11.7
-0.0113	0.0307	-0.0098	0.0007	11.6
-0.0113	0.0525	-0.012	0.009	11.6
-0.0083	0.0622	-0.0105	0.0165	11.2
-0.0046	0.0502	-0.0068	0.0292	11.4
-0.0008	0.0165	-0.0046	0.0277	11.1
-0.0046	-0.0181	-0.0053	0.0255	11.1
-0.0015	-0.0218	-0.0015	-0.0083	11
0.0045	0.006	0.0015	-0.0893	10.7
0.0067	0.033	0.0015	-0.1748	10.7
0.0052	0.024	-0.0015	-0.1613	10.7
0.0067	-0.0308	-0.003	-0.0428	10.4
0.0105	-0.0713	-0.0008	0.0367	10.4
0.0165	-0.0788	0.003	0.084	10.3
0.018	-0.0863	0.0045	0.2227	10.2
0.018	-0.0856	0.009	0.2565	10.2
0.0202	-0.048	0.0157	0.087	9.9
0.0255	-0.024	0.0195	0.0277	10
0.036	-0.0233	0.018	-0.0548	9.6
0.0472	-0.0128	0.0127	-0.162	9.7
0.0517	-0.0038	0.0097	-0.0743	9.8
0.0502	-0.0015	0.009	-0.0825	9.3
0.0502	0.0172	0.0082	-0.0975	9.4
0.0442	0.0465	0.0052	-0.0165	9.1
0.0435	0.054	0.0022	-0.0091	9.3
0.0472	0.0862	0.0007	0.0142	9.1
0.0525	0.12	-0.0008	0.0367	9.1
0.0577	0.1035	-0.0053	0.0255	9
0.06	0.0645	-0.0083	0.0322	9.1
0.057	-0.0083	-0.0046	0.0975	9
0.051	-0.057	-0.0015	0.0712	8.9
0.0555	-0.0728	0.0052	-0.0053	8.7
0.0555	-0.0863	0.012	0.0705	8.7
0.0487	-0.078	0.0127	-0.0683	8.5
0.045	-0.0706	0.0135	-0.1913	8.5
0.0405	-0.0555	0.0105	-0.0638	8.5
0.0277	-0.0165	0.009	-0.0698	8.2
0.0135	0.0277	0.0082	-0.1028	8.4
0.0217	0.0667	0.0075	-0.1275	8.1
0.0352	0.069	0.0067	0.0345	8.2
0.0307	0.0345	0.0022	0.237	8.1
0.0277	0.0037	-0.0038	0.1447	8.1
0.0292	-0.0233	-0.0105	0.0412	8.1
0.0195	-0.0413	-0.0143	-0.054	8.1
0.0105	-0.054	-0.0158	-0.0743	7.8
0.0052	-0.0615	-0.0188	-0.0443	7.9
-0.0015	-0.054	-0.0218	-0.0615	7.6
-0.0158	-0.0338	-0.0165	0.0037	7.7
-0.0256	-0.0128	-0.0075	0.0375	7.6
-0.039	-0.0218	0.0007	-0.0195	7.6
-0.0533	-0.0368	0.0067	-0.1163	7.6
-0.0608	-0.0428	0.003	-0.1065	7.6
-0.0713	-0.0256	-0.003	0.0247	7.6
-0.0735	0.0465	-0.0068	0.1815	7.5
-0.0856	0.123	-0.0075	0.3397	7.3
-0.1043	0.1612	-0.0046	0.222	7.5
-0.1073	0.1665	-0.003	-0.021	7.2
-0.0998	0.1237	-0.0046	-0.1088	7
-0.0878	0.0345	-0.0068	-0.1328	7.1
-0.0833	-0.0518	-0.0128	-0.1403	7
-0.0743	-0.0645	-0.021	-0.291	7
-0.0578	-0.0083	-0.0233	-0.1673	7.1
-0.0533	-0.003	-0.0195	0.0217	6.9
-0.0525	-0.0181	-0.0203	-0.0563	7.1
-0.0495	0.018	-0.0233	0.0592	6.8
-0.0428	0.0622	-0.0203	0.0877	7.1
-0.0315	0.0765	-0.015	0.0457	6.7
-0.024	0.021	-0.0128	0.018	6.9
-0.0308	-0.0788	-0.0046	-0.0083	6.8
-0.054	-0.1373	0.0007	-0.0023	6.7
-0.0788	-0.084	0.0007	-0.0856	6.7
-0.0728	-0.0135	-0.003	-0.066	6.5
-0.0458	-0.0158	-0.0068	0.0075	6.8
-0.027	-0.021	-0.0008	0.159	6.6
-0.0113	-0.0015	0.0067	0.195	6.7
-0.0098	0.0075	0.009	0.1575	6.6
-0.012	0.021	0.0067	0.234	6.7
-0.006	0.0195	0.0052	0.054	6.3
0.0037	0.0157	0.0052	-0.1411	6.5
0.018	0.033	0.0045	-0.1778	6.4
0.0307	0.0247	0.006	-0.1793	6.5
0.042	0.0082	0.0015	-0.0803	6.5
0.0427	-0.0143	-0.003	0.1785	6.4
0.0322	-0.0518	-0.003	0.3682	6.6
0.024	-0.0511	-0.003	0.189	6.3
0.027	-0.0218	0.0037	0.2032	6.6
0.0292	-0.0233	0.003	0.084	6.3
0.0255	-0.0091	0.0015	-0.357	6.3
0.0277	0.006	0.0007	-0.2851	6.3
0.024	-0.003	-0.0015	-0.105	6.3
0.0202	-0.0038	-0.0023	-0.0308	6.4
0.0165	0.0007	-0.0053	0.063	6.3
0.006	0.015	-0.0158	0.1042	6.3
-0.0098	0.0262	-0.0256	0.1177	6.4
-0.0293	0.0375	-0.0323	-0.0143	6.3
-0.0383	0.012	-0.0368	-0.0675	6.2
-0.0518	-0.027	-0.0375	-0.0878	6.4
-0.0765	-0.0233	-0.0368	-0.1065	6.3
-0.0968	-0.0053	-0.0361	-0.0795	6.5
-0.1103	-0.0128	-0.0375	-0.057	6.3
-0.1193	-0.006	-0.0368	0.036	6.4
-0.1335	0.0277	-0.03	0.0667	6.2
-0.1455	0.0217	-0.0285	0.0622	6.1
-0.1515	0.0127	-0.0285	-0.057	6.3
-0.162	0.0232	-0.03	-0.0938	6.1
-0.165	0.0195	-0.0368	0.099	6.3
-0.1568	-0.0015	-0.0315	0.0615	6
-0.1403	-0.0128	-0.027	-0.0638	6.1
-0.1275	-0.0083	-0.033	-0.1313	5.8
-0.1133	-0.0083	-0.0495	-0.168	5.9
-0.0915	-0.006	-0.0758	-0.0046	5.8
-0.057	-0.0053	-0.0975	0.0067	5.8
-0.0158	-0.0038	-0.114	0.003	5.7
0.024	-0.006	-0.1253	0.0427	5.8
0.051	-0.0105	-0.1313	-0.0105	5.5
0.0735	-0.0105	-0.1426	0.0232	5.5
0.105	-0.0105	-0.1485	-0.0046	5.6
0.1252	-0.0105	-0.1493	0.0067	5.3
0.1387	-0.0091	-0.1583	0.0142	5.4
0.1485	-0.003	-0.1583	0.0015	5.1
0.1575	0.0007	-0.1305	0.0202	5.3
0.168	0.0015	-0.1155	-0.0008	5.1
0.1672	0.0015	-0.1508	0.0195	4.9
0.174	0.0037	-0.1823	0.0105	4.9
0.174	0.0135	-0.1748	0.015	4.9
0.156	0.0255	-0.1118	0.0172	4.7
0.135	0.0202	0.012	0.0105	4.9
0.1042	0.0105	0.1605	0.009	4.7
0.0832	0.0007	0.2887	-0.0083	4.7
0.0772	-0.0128	0.3742	0.009	4.6
0.075	-0.012	0.4125	0.0382	4.7
0.0765	-0.0128	0.417	0.0877	4.6
0.0765	-0.021	0.411	0.0975	4.4
0.0765	-0.0278	0.3975	0.0727	4.5
0.075	-0.0353	0.3757	0.0232	4.4
0.0787	-0.0263	0.3495	-0.1493	4.2
0.0765	-0.0068	0.327	-0.1838	4.4
0.0727	0.0022	0.3082	-0.003	4.4
0.0615	0.0082	0.2782	-0.0361	4.2
0.0405	0.0037	0.2325	-0.0968	4.1
0.0232	-0.0143	0.1875	0.0232	4.1
0.0015	-0.0346	0.15	0.0562	4.2
-0.0158	-0.045	0.1042	0.1372	4.1
-0.0248	-0.0323	0.0675	0.102	4
-0.0338	-0.0143	0.0517	-0.0083	4
-0.0361	0.0082	0.0532	0.0885	3.9
-0.0285	0.0255	0.06	0.084	4
-0.0046	0.012	0.0712	0.0352	3.7
0.033	-0.0203	0.0892	-0.216	3.8
0.0682	-0.0158	0.1027	-0.4898	3.6
0.0862	0.0292	0.108	-0.2573	3.6
0.0817	0.0742	0.0975	-0.1088	3.7
0.0705	0.0675	0.0652	-0.006	3.6
0.0652	0.0285	0.0352	0.1972	3.7
0.0555	0.0382	0.0262	0.165	3.6
0.0367	0.0667	0.0225	0.111	3.6
0.0292	0.0705	0.0127	-0.0308	3.6
0.0292	0.039	0.0067	-0.0608	3.5
0.0067	-0.0008	0.003	0.1282	3.5
-0.0218	-0.0165	-0.0091	0.1335	3.6
-0.054	-0.027	-0.0203	0.075	3.3
-0.0915	-0.0233	-0.027	0.1252	3.6
-0.1163	-0.0128	-0.0346	0.0757	3.5
-0.1268	-0.0068	-0.0405	-0.0721	3.4
-0.1305	-0.0046	-0.0518	-0.1426	3.6
-0.1223	-0.0098	-0.0578	-0.0668	3.5
-0.1133	-0.0128	-0.0578	0.0007	3.6
-0.1283	-0.0091	-0.0721	-0.0668	3.5
-0.1441	0.003	-0.093	-0.042	3.8
-0.1553	0.012	-0.1065	0.0877	3.8
-0.159	0.0045	-0.114	0.0832	4
-0.1598	-0.0143	-0.1178	-0.0143	4
-0.1448	-0.03	-0.1283	-0.0608	4.1
-0.1043	-0.039	-0.1365	0.0142	4.1
-0.0856	-0.0405	-0.1403	0.1305	4.3
-0.057	-0.0353	-0.1388	0.1792	4
-0.0293	-0.0323	-0.1298	0.1605	4
-0.0158	-0.0195	-0.1253	0.0495	4.2
0.0217	-0.0023	-0.1223	0.0052	4.1
0.039	0.0165	-0.1163	-0.0256	4.2
0.0547	0.024	-0.1073	-0.1928	4
0.0697	0.0202	-0.096	-0.2873	4.3
0.084	0.0067	-0.0788	-0.18	4.1
0.096	-0.0143	-0.0638	-0.0075	4.1
0.0975	-0.0308	-0.0668	0.0525	4.2
0.1192	-0.0495	-0.0721	0.1065	4.2
0.1335	-0.033	-0.0691	0.0982	4.1
0.1365	0.0127	-0.0668	0.0127	4.2
0.135	0.039	-0.0653	0.024	4.3
0.1237	0.0412	-0.0518	0.0495	4.4
0.1162	0.0495	-0.0353	0.0765	4.1
0.1162	0.0555	-0.0293	0.0862	4.4
0.1185	0.021	-0.0256	-0.057	4.2
0.1162	-0.0158	-0.0218	-0.2453	4.1
0.1177	-0.0203	-0.0165	-0.1155	4.3
0.1215	-0.006	-0.0075	-0.0203	4.1
0.1117	0.0052	-0.0008	-0.0945	4.2
0.084	0.0112	-0.0015	-0.0091	4.3
0.0592	0.0322	0.003	0.1192	4.2
0.039	0.0427	0.0067	0.2947	4.2
0.0217	0.0352	-0.0015	0.1552	4
0.0127	0.0075	-0.0053	-0.3248	3.8
0.006	-0.0495	-0.006	-0.4178	3.9
-0.0075	-0.0878	0.0015	-0.0713	4
-0.0195	-0.0675	0.0157	0.105	3.9
-0.0165	-0.0405	0.0225	0.2062	4
-0.0053	-0.0285	0.0292	0.141	3.9
-0.003	-0.0098	0.0315	0.0547	4
-0.0015	-0.0046	0.0337	0.2205	3.7
0.006	0.0015	0.0442	-0.0143	3.9
0.0082	0.0097	0.0502	-0.1741	3.5
0.0015	0.0045	0.042	0.024	3.6
-0.0128	-0.0135	0.0382	0.1267	3.8
-0.0233	-0.0143	0.039	0.0315	3.6
-0.0158	0.0075	0.0367	-0.0915	3.6
-0.0008	0.018	0.0397	-0.2175	3.3
0.012	0.021	0.0277	-0.2498	3.6
0.024	0.006	0.012	0.012	3.6
0.0367	0.0075	0.0082	0.072	3.6
0.0352	0.0127	-0.003	0.1027	3.3
0.0375	0.0045	-0.0181	0.0952	3.5
0.0397	0.0142	-0.027	-0.0706	3.1
0.0315	0.0105	-0.027	-0.0825	3.5
0.027	0.009	-0.0308	-0.24	3.2
0.012	0.0232	-0.0525	-0.1313	3.3
-0.003	0.0165	-0.0691	0.1515	3.4
-0.0158	0	-0.0773	0.0615	3.3
-0.0398	-0.0091	-0.078	0.078	3.6
-0.0495	-0.0195	-0.0713	0.12	3.1
-0.0563	-0.021	-0.0691	0.0802	3.5
-0.0675	-0.0113	-0.0713	0.1057	3.3
-0.0713	-0.0023	-0.0863	-0.0083	3.3
-0.0511	0.003	-0.1058	-0.1515	3.1
0.0285	0.0105	-0.1185	-0.1913	3.2
0.1957	0.012	-0.1215	-0.1155	3.2
0.4065	-0.0015	-0.1215	0.0465	3.3
0.4905	-0.0105	-0.1043	0.1282	3.1
0.3757	-0.0008	-0.0758	0.0375	3.1
0.18	0.0022	-0.0608	0.0232	3.1
0.0037	-0.0105	-0.042	0.096	3.2
-0.0953	-0.012	-0.0173	0.1312	3.2
-0.1328	-0.006	0.009	0.24	3.1
-0.1365	-0.0053	0.0307	0.222	3.2
-0.1178	-0.0068	0.045	0.012	3
-0.1006	0.0007	0.0592	-0.2235	3
-0.0915	-0.0008	0.0705	-0.2535	3.1
-0.0803	-0.0181	0.075	0.0142	3
-0.0668	-0.0181	0.075	0.0367	3.1
-0.0675	0.0097	0.075	-0.057	2.9
-0.084	0.0367	0.075	0.03	3.1
-0.1065	0.0247	0.0765	0.0045	2.9
-0.1215	0.018	0.0787	-0.1125	2.8
-0.108	0.0232	0.075	-0.1643	2.7
-0.1006	0.009	0.0615	-0.0015	2.9
-0.1118	0.006	0.0345	0	2.9
-0.1335	-0.0053	-0.0068	-0.0015	2.8
-0.1718	-0.0075	-0.0338	0.0787	2.6
-0.2063	0.012	-0.024	-0.0046	2.8
-0.2318	0.0037	-0.0181	-0.0008	2.7
-0.2468	0.0007	-0.0075	-0.1178	2.7
-0.2475	0.0052	0.0187	-0.1553	2.6
-0.2385	0.0037	0.03	-0.0165	2.6
-0.2168	-0.0083	0.0187	0.258	3
-0.1838	-0.0293	0.006	0.4117	2.9
-0.1455	-0.045	0.0165	0.1717	2.8
-0.1118	-0.0563	0.0307	0.0705	2.8
-0.0825	-0.0293	0.0562	0.0315	2.9
-0.0593	0.0045	0.0765	-0.1013	2.6
-0.0443	0.0007	0.0787	-0.1711	2.7
-0.0225	-0.0008	0.0802	-0.2565	2.5
0.0015	0.0082	0.1005	-0.3233	2.8
0.0397	0.0127	0.1065	-0.1313	2.5
0.0727	0.0075	0.033	0.1012	2.9
0.0967	-0.0023	-0.0563	0.1425	2.6
0.1177	0.0165	-0.1253	0.2212	2.6
0.1312	0.0277	-0.1778	0.1942	2.7
0.156	0.027	-0.2048	0.0457	2.6
0.1875	0.027	-0.2273	-0.0878	2.9
0.2265	0.009	-0.2273	-0.1163	2.7
0.279	-0.0053	-0.2168	-0.012	2.6
0.3127	-0.027	-0.1973	-0.0353	2.6
0.2917	-0.0375	-0.1793	-0.0398	2.6
0.2415	-0.0256	-0.165	0.0135	2.6
0.183	-0.0068	-0.147	-0.012	2.6
0.1447	0.0105	-0.1328	0.0052	2.5
0.129	0.0165	-0.12	-0.0068	2.7
0.0877	0.0232	-0.1103	0.0067	2.6
0.066	0.0322	-0.1028	-0.003	2.4
0.0652	0.039	-0.0953	-0.0653	2.4
0.048	0.0435	-0.084	-0.0436	2.6
0.033	0.0397	-0.0706	-0.0008	2.6
0.0195	-0.0053	-0.0533	0.051	2.4
-0.0015	-0.0878	-0.0413	0.108	2.8
-0.0105	-0.108	-0.0278	0.1567	2.5
-0.0091	-0.0593	-0.0135	0.2475	2.6
0.0247	-0.03	-0.003	0.213	2.6
0.0922	-0.0181	0.0127	-0.0675	2.4
0.1027	0.0007	0.0277	-0.2333	2.6
0.018	0.0217	0.0412	-0.2063	2.4
-0.063	0.021	0.0517	-0.3398	2.4
-0.1238	0.0165	0.0592	-0.246	2.6
-0.1598	0.0352	0.0652	0.0532	2.4
-0.1793	0.0315	0.0705	-0.0398	2.5
-0.2213	0.0217	0.0712	-0.0585	2.5
-0.2333	0.0142	0.069	0.054	2.5
-0.252	-0.0015	0.063	0.078	2.7
-0.2513	-0.0068	0.0517	0.1237	2.4
-0.2535	-0.0098	0.0405	0.0915	2.5
-0.2588	-0.0091	0.0322	0.111	2.6
-0.246	-0.0075	0.0307	0.0322	2.4
-0.2528	0.0007	0.0345	-0.129	2.5
-0.2453	0.0022	0.042	-0.1313	2.2
-0.222	-0.0038	0.057	0.0037	2.6
-0.1778	-0.0053	0.0675	0.099	2.3
-0.1343	-0.0158	0.0787	0.0382	2.4
-0.1073	-0.0218	0.105	0.0082	2.4
-0.0743	-0.0158	0.15	-0.0533	2.2
-0.0428	-0.0038	0.1995	-0.1245	2.3
-0.0218	0.015	0.2407	-0.048	2.5
-0.0285	0.018	0.276	0.093	2.3
-0.0091	0.0105	0.2992	0.153	2.5
0.0607	0.018	0.3105	0.1597	2.3
0.063	0.0195	0.3112	0.0862	2.4
0.0802	0.009	0.2955	0.0322	2.4
0.1162	0.0082	0.2782	0.0187	2.4
0.105	0.0105	0.2677	-0.1696	2.4
0.1267	0.0045	0.2677	-0.2776	2.2
0.1222	0	0.2745	-0.1253	2.3
0.1177	0.0022	0.291	0.177	2.4
0.1102	0.003	0.3082	0.1395	2.3
0.105	0.0007	0.3232	-0.0008	2.2
0.1192	-0.0075	0.3405	0.0802	2.2
0.1147	-0.0143	0.3457	0.0202	2.3
0.1155	-0.0285	0.339	0.0922	2.4
0.1012	-0.0361	0.3195	0.1042	2.1
0.0975	-0.0256	0.3007	0.0352	2.4
0.0885	-0.0188	0.2865	0.0157	2.3
0.0825	0.0037	0.2662	-0.1335	2.2
0.075	0.018	0.24	-0.1741	2.3
0.057	0.0037	0.2137	-0.0615	2.3
0.0442	0.009	0.1815	0.033	2.1
0.0337	0.0082	0.138	0.0307	2.3
0.0292	-0.0158	0.0907	0.1177	2.3
0.0255	-0.024	0.0442	0.126	2.5
0.0292	-0.0015	0.0045	0.0187	2.2
0.024	0.021	-0.0308	0.0382	2.4
0.0187	0.021	-0.0653	-0.0068	2.1
0.0202	0.0307	-0.1095	-0.198	2.1
0.0232	0.0157	-0.1523	-0.2633	2.2
0.027	-0.0353	-0.1875	-0.096	2.4
0.024	-0.0548	-0.222	-0.0143	2.2
0.0165	-0.033	-0.252	-0.1103	2.2
0.012	0.0037	-0.2798	-0.0893	2
0.0135	0.018	-0.303	-0.0038	2.3
0.0067	0.015	-0.3218	0.033	2.2
0.0045	0.0157	-0.3391	0.075	2.4
0.0142	0.0097	-0.3525	0.0577	2.2
0.0277	0.0097	-0.3615	0.0952	2.2
0.027	0.003	-0.3608	0.054	2.3
0.0127	-0.0015	-0.3585	-0.0248	2.2
0.003	0.0015	-0.3593	0.054	2.3
0.0045	-0.0023	-0.3593	-0.0218	2.1
0.0202	-0.003	-0.3578	-0.1335	2
0.0277	0.0045	-0.3503	-0.0863	2.1
0.0277	0.0075	-0.3338	0.0247	2.2
0.0315	-0.0053	-0.3105	-0.0278	1.9
0.048	0.0097	-0.2895	-0.0668	2.3
0.072	0.015	-0.2791	0.045	2.1
0.0607	0.0007	-0.2708	0.0885	2.2
0.0217	-0.003	-0.2595	0.0952	2.1
-0.0046	-0.0075	-0.249	-0.0653	2.1
-0.0135	-0.0053	-0.234	-0.0555	2.2
-0.0128	-0.0105	-0.2115	0.0367	1.9
-0.0233	-0.0038	-0.1898	0.0322	2.2
-0.0458	0.0022	-0.1688	0.0607	1.9
-0.0623	0.003	-0.1485	-0.054	2.1
-0.0608	0.003	-0.1298	0.0165	2.1
-0.0346	-0.0091	-0.108	0.12	2
-0.0195	-0.0083	-0.0885	-0.0225	1.9
-0.0225	0.0037	-0.0758	-0.1215	2.1
-0.0278	0.006	-0.063	-0.0338	1.8
-0.0375	-0.0015	-0.0503	0.105	2.1
-0.0443	-0.015	-0.039	0.1635	1.8
-0.0443	-0.0233	-0.0256	0.1252	2.1
-0.0315	-0.0158	-0.0128	0.0525	1.8
-0.0158	-0.0173	-0.0008	-0.0143	1.8
-0.0038	-0.0053	0.012	-0.195	2
0.0075	0.012	0.0202	-0.237	1.7
0.0142	0.0082	0.0255	-0.0728	2.1
0.0255	-0.0008	0.0285	0.0217	2.1
0.0292	-0.0023	0.0367	-0.09	1.8
0.0247	0.0202	0.0472	-0.1793	2.1
0.0082	0.0142	0.0622	0.0892	1.9
-0.0263	0.0015	0.0727	0.1575	2.1
-0.0773	0.012	0.078	0.0097	2
-0.126	0.0082	0.0757	0.03	2
-0.1305	0.009	0.0652	-0.0068	2
-0.1028	0.0052	0.0615	0.057	2
-0.0706	0	0.0615	0.0855	2
-0.0361	-0.0038	0.0592	0.0457	1.9
-0.0128	-0.0083	0.0592	0.084	1.8
0.0105	-0.0143	0.0607	-0.0375	2
0.0292	-0.0218	0.0667	-0.0765	1.9
0.0442	-0.0105	0.069	0.123	2
0.0592	-0.0008	0.0712	0.1177	1.8
0.0682	0.0052	0.078	0.036	1.8
0.0682	-0.0008	0.0727	0.0345	1.9
0.054	-0.0083	0.0637	-0.0788	1.6
0.0345	-0.0105	0.0645	-0.0278	1.8
0.0337	-0.012	0.06	0.0352	1.8
0.0405	-0.0128	0.0577	0.0765	1.8
0.0382	-0.0135	0.0562	0.1575	1.8
0.0382	-0.0046	0.0555	0.1042	1.8
0.048	0.0045	0.057	0.0045	1.7
0.057	0.0105	0.054	-0.1223	1.8
0.054	0.0127	0.0555	-0.1478	1.7
0.048	0.0255	0.0555	-0.0735	1.9
0.0427	0.027	0.051	0.0682	1.8
0.0292	0.006	0.0472	0.1627	1.8
0.0202	-0.0046	0.0495	0.1177	1.8
0.0225	-0.0046	0.0487	0.141	1.8
0.024	-0.003	0.0457	0.2332	2
0.0255	-0.0075	0.0442	0.2685	1.8
0.0247	-0.0008	0.0397	0.2715	1.8
0.024	0.0142	0.0457	0.1695	1.8
0.0202	0.0157	0.0502	0.0967	1.7
0.0202	0.0082	0.0465	0.1552	1.8
0.0187	0.0082	0.0405	-0.084	1.8
0.0105	-0.003	0.042	-0.2933	1.7
0.003	-0.0143	0.045	-0.297	1.7
-0.003	-0.003	0.0495	-0.4103	1.7
-0.0046	0.003	0.0495	-0.1935	1.8
-0.0015	-0.0113	0.0405	0.057	1.8
0.0097	-0.0195	0.0367	0.0007	1.8
0.03	-0.0068	0.03	0.0735	1.9
0.0465	-0.0053	0.027	0.0682	1.5
0.0435	-0.0165	0.0247	0.0015	1.8
0.0322	-0.0195	0.0195	0.0442	1.5
0.0247	-0.0098	0.0165	0.0292	1.7
0.0105	-0.0091	0.0157	0.0112	1.7
-0.012	-0.006	0.015	0.0052	1.5
-0.0361	-0.0083	0.0097	-0.0315	1.5
-0.0443	-0.0233	0.0082	-0.09	1.5
-0.0473	-0.0233	0.0075	-0.1628	1.5
-0.0495	-0.0203	0.0052	-0.2318	1.5
-0.0525	-0.0218	0.0007	-0.1935	1.6
-0.0555	-0.024	-0.0008	-0.1073	1.5
-0.0578	-0.021	0.0052	-0.0346	1.6
-0.0548	-0.0068	0.0037	0.0007	1.3
-0.0465	0.0015	-0.0038	-0.147	1.5
-0.0436	0.0082	-0.006	-0.36	1.3
-0.039	0.0165	-0.0038	-0.3908	1.5
-0.0323	0.0015	0	-0.246	1.6
-0.024	-0.0068	0.003	-0.216	1.3
-0.0233	0.0022	0.0127	-0.207	1.5
-0.0233	-0.012	0.0157	0.0165	1.3
-0.0181	-0.0383	0.012	0.0225	1.5
-0.0098	-0.0443	0.0172	-0.2123	1.4
-0.0015	-0.0473	0.0217	-0.0653	1.6
-0.003	-0.0713	0.027	0.0645	1.5
-0.0015	-0.0623	0.0315	-0.177	1.5
-0.0008	-0.0233	0.0367	-0.1411	1.3
-0.0023	-0.0503	0.0405	0.012	1.6
-0.0046	-0.0915	0.0315	0.0262	1.4
-0.0068	-0.075	0.0247	0.1192	1.7
-0.006	-0.03	0.0277	0.0652	1.5
-0.0046	0.012	0.0352	0.0585	1.4
-0.003	0.0675	0.0397	0.0637	1.5
-0.0015	0.1282	0.039	-0.2108	1.3
0.0022	0.1477	0.036	-0.3511	1.4
0.0105	0.1537	0.033	-0.1635	1.3
0.0165	0.1635	0.0307	0.0675	1.5
0.021	0.1597	0.0292	0.2355	1.5
0.0292	0.1425	0.0277	0.2835	1.4
0.036	0.1267	0.024	0.1755	1.5
0.042	0.1192	0.0225	0.087	1.4
0.042	0.1132	0.0262	0.0067	1.3
0.0367	0.0945	0.0285	0.1882	1.5
0.0285	0.0682	0.03	0.3157	1.3
0.021	0.0607	0.0292	0.1005	1.5
0.0135	0.0607	0.0262	0.1417	1.5
0.009	0.0367	0.0135	0.123	1.3
0.0045	0.015	-0.006	0.0765	1.4
-0.0075	0.006	-0.012	0.216	1.2
-0.027	-0.0218	-0.012	0.1477	1.3
-0.0458	-0.0353	-0.0113	0.1012	1.3
-0.0511	-0.0383	-0.006	0.1815	1.3
-0.0428	-0.057	0.0052	0.0015	1.3
-0.0323	-0.0683	0.0135	-0.1898	1
-0.0233	-0.0713	0.0142	0.1747	1.4
-0.0165	-0.0691	0.012	0.2932	1.3
-0.0128	-0.0338	0.003	0.0765	1.3
-0.0068	0.012	-0.003	0.1267	1.4
-0.003	0.0262	-0.0091	-0.0128	1.1
0.0007	0.0195	-0.0165	-0.0675	1.2
0.0067	-0.024	-0.024	0.0202	1.1
0.012	-0.0818	-0.0293	0.0495	1.1
0.0135	-0.1238	-0.0285	0.1485	1.3
0.0105	-0.1298	-0.0233	0.1852	0.9
0.0075	-0.099	-0.0165	0.039	1.2
0.0075	-0.0675	-0.0195	-0.264	0.9
0.009	-0.054	-0.0165	-0.2573	1
0.0127	-0.0413	-0.0083	-0.1328	1.3
0.0157	-0.0285	-0.0038	-0.1043	1.2
0.021	-0.0383	-0.0015	0.0855	1.3
0.027	-0.0368	0.0015	-0.0173	1.1
0.0315	-0.006	0.003	-0.084	1.3
0.0345	0.0045	0.0007	0.1027	1.2
0.033	-0.0173	-0.0008	0.0727	1.1
0.0307	-0.0188	0.0052	0.0045	1.1
0.024	-0.012	0.012	-0.0765	1.2
0.0195	-0.0458	0.0165	-0.0248	0.9
0.0165	-0.0405	0.0172	-0.0075	1.3
0.012	-0.0233	0.0105	0.039	1.2
0.009	-0.0436	0.0045	0.1672	1.2
0.0045	-0.0405	-0.0046	-0.0315	1
0.003	-0.0293	-0.0098	0.0045	0.9
0.0015	-0.0083	-0.0135	0.0945	1.2
0.0015	0.0135	-0.0105	-0.1125	0.9
-0.0015	0.0135	-0.0098	-0.0315	1.2
-0.0046	0.0082	-0.0158	0.0457	1
-0.003	0.012	-0.0195	-0.0195	1
-0.0046	0.0195	-0.0285	0.0292	0.9
-0.0053	0.018	-0.0308	0.0165	1.1
-0.006	0.0127	-0.0308	0.0195	1.1
-0.0038	-0.0023	-0.027	0.0292	0.9
0	-0.015	-0.0233	0.0075	0.9
0.0007	-0.0015	-0.027	-0.0473	1.1
0.0007	0.0112	-0.0263	-0.2258	0.9
0.0067	0.003	-0.0233	-0.2445	0.9
0.0105	-0.006	-0.0173	0	1.1
0.0127	-0.027	-0.0098	-0.0533	0.8
0.015	-0.0083	-0.0105	-0.1853	0.9
0.0157	0.024	-0.012	-0.0908	0.9
0.0157	0.0285	-0.0128	-0.0008	0.9
0.015	0.0255	-0.0173	0.0922	1
0.0142	0.0007	-0.0128	0.0337	0.9
0.0142	0.003	-0.012	0.0142	1.2
0.012	0.009	-0.015	0.0517	1
0.0097	0.0052	-0.0135	0.024	1
0.0082	0.0067	-0.0135	0.0465	1.2
0.0052	0.003	-0.0135	0.036	0.9
0.0007	0.003	-0.0158	0.0412	1.2
-0.0015	-0.0015	-0.0143	0.0067	1
-0.0015	0.006	-0.0128	-0.0443	1
0.0015	0.0112	-0.015	-0.0578	1.2
0.006	0.0195	-0.0128	-0.0638	1
0.009	0.0315	-0.015	0.0007	1
0.0142	0.018	-0.0173	0.1252	1.2
0.0172	0.0015	-0.0173	0.2047	1.1
0.018	-0.0113	-0.015	0.1987	1.2
0.0172	-0.0308	-0.0091	0.0892	0.9
0.0142	-0.0203	-0.0015	-0.117	1.2
0.0127	0.0112	0.006	-0.0158	1.1
0.0142	0.0277	0.0157	0.0802	1.3
0.0157	0.0457	0.0255	-0.1358	1.1
0.009	0.0427	0.024	-0.1223	1.1
0.003	0.0112	0.018	-0.0653	1.3
0.0082	0.009	0.0225	0.0202	1.3
0.0127	0.0142	0.0217	0.051	1.1
0.0097	0.0105	0.0142	-0.0488	1.3
0.0015	0.0075	0.0075	-0.0083	1
-0.003	0.003	0.0015	0.0022	1.3
-0.003	-0.003	-0.0008	0.09	1.3
-0.0046	-0.0128	-0.0038	0.108	1.2
-0.0053	-0.0165	-0.0008	0.0937	1.3
-0.0015	-0.0143	0.0015	-0.0165	1
-0.0008	0.0082	-0.0008	-0.2123	1.1
-0.0008	0.0367	-0.0038	-0.057	1.3
0	0.0412	-0.003	-0.0263	1.1
-0.0008	0.0172	0.0045	-0.2625	1.1
-0.0008	-0.0068	0.012	-0.2895	1.2
-0.0015	-0.0225	0.0195	-0.075	1.3
-0.003	-0.0128	0.0157	0.0652	1.3
-0.0038	0.0052	0.0105	0.1267	1.2
-0.0038	0.0097	0.0105	0.2685	1.3
-0.003	0.0105	0.0015	0.1717	1.3
-0.0023	0.009	-0.003	0.0045	1.3
0	0.0157	-0.0008	-0.0181	1.3
-0.0008	0.0112	0	-0.0293	1.2
-0.0008	0.0007	0.0015	0.0615	1.4
-0.0053	-0.0143	-0.0008	0.0292	1.2
-0.0083	-0.0308	-0.0046	0.057	1.4
-0.0105	-0.0428	-0.0015	0.249	1.3
-0.0128	-0.06	0.003	0.1267	1.3
-0.015	-0.0405	0.0037	-0.1328	1.3
-0.0181	0.0202	0.003	-0.3263	1
-0.0195	0.039	0.0052	-0.327	1.2
-0.0203	0.0157	0.0052	-0.0856	1.3
-0.0203	-0.0015	0.0015	0.0652	1.5
-0.0218	-0.0256	0.0037	-0.0165	1.3
-0.0225	-0.0256	0.0045	-0.105	1.3
-0.0218	-0.0091	0.0052	0.0817	1.2
-0.0203	0.0007	0.009	0.102	1.5
-0.0203	-0.0053	0.0127	-0.0398	1.3
-0.0188	-0.0038	0.012	0.0232	1.4
-0.0158	0.0142	0.006	-0.0353	1.3
-0.0158	0.0217	0	-0.0706	1.3
-0.0143	0.0277	-0.0046	0.003	1.5
-0.0143	0.0015	-0.0083	0.0525	1.2
-0.0105	-0.0248	-0.0083	0.1417	1.6
-0.0083	-0.0233	-0.0091	0.0442	1.3
-0.0091	-0.0075	-0.012	-0.0113	1.5
-0.0098	-0.0068	-0.0143	0.0277	1.4
-0.0083	-0.0068	-0.0165	-0.0181	1.3
-0.0038	0.0052	-0.0173	-0.0038	1.4
-0.0023	0.0127	-0.0143	-0.033	1.4
0	0.0105	-0.0158	-0.0308	1.3
0.003	-0.0158	-0.0158	0.045	1.3
0.0075	-0.027	-0.0143	0.0705	1.3
0.009	-0.0075	-0.0181	0.0247	1.3
0.0097	0.0105	-0.0188	0.012	1.5
0.0105	0.0127	-0.0195	0.0232	1.3
0.0075	0.0052	-0.0218	-0.033	1.5
0.0052	-0.0046	-0.0233	0.006	1.3
0.003	-0.0053	-0.021	0.0097	1.4
0.0007	0.0015	-0.0158	0.003	1.3
0.0015	0.0052	-0.0128	0.048	1.3
0	0.0045	-0.0105	0.063	1.4
0.0022	-0.003	-0.0068	0.0765	1.3
0.0045	-0.0083	-0.0053	-0.1163	1.4
0.0022	-0.0038	0.0007	-0.1838	1.3
0.0007	-0.0008	0.003	-0.012	1.3
0.003	-0.0046	-0.0015	0.0022	1.5
0.0015	-0.0038	0.003	0.009	1.3
0.003	-0.0038	0.009	0.0195	1.4
0.003	-0.0008	0.0105	-0.024	1.5
0.0022	0.0105	0.0142	-0.0405	1.3
0.0015	0.015	0.0165	-0.0645	1.4
0.0015	0.0082	0.0165	-0.0188	1.4
0.0052	0.003	0.018	0.003	1.5
0.0045	0.0045	0.0195	-0.0038	1.5
0.006	-0.0008	0.018	0.0135	1.3
0.0052	0.0015	0.0165	0.003	1.5
0.0037	0.0015	0.0187	0.0112	1.3
0.0045	-0.0008	0.0202	0.0052	1.3
0.0052	-0.0015	0.0195	0.0022	1.4
0.0045	-0.0023	0.0172	0.006	1.5
0.003	-0.003	0.0165	0	1.4
0.0022	-0.003	0.0172	0.0052	1.3
0.0022	-0.003	0.0157	0.0045	1.4
0	-0.0038	0.015	0.006	1.5
-0.003	-0.0015	0.0127	0.0037	1.4
-0.0023	-0.0015	0.009	0.0045	1.5
0.0015	0.0007	0.009	0.0052	1.3
0.0007	0.0007	0.0082	0.003	1.4
-0.0008	0.0007	0.006	0.0007	1.5
-0.0015	0.003	0.0022	-0.0038	1.4
-0.0015	0.003	-0.0008	-0.0008	1.5
0	0.003	0	-0.0023	1.3
0.0007	0.0015	0.003	-0.0008	1.4
0.0015	0.0007	0.0052	-0.0015	1.7
0.0067	0.0007	0.0052	-0.0046	1.5
0.009	0.0015	0.0052	-0.0053	1.5
0.0105	0.0015	0.0082	-0.012	1.5
0.009	0.0015	0.0097	-0.0188	1.5
0.0082	0.0075	0.0112	-0.0203	1.5
0.0067	0.0105	0.0127	-0.0173	1.4
0.0075	0.009	0.0127	-0.012	1.5
0.0097	0.0007	0.012	0.0277	1.6
0.0082	-0.0165	0.0135	0.0555	1.4
0.0082	-0.0128	0.009	-0.0113	1.6
0.0052	0	0.0045	-0.042	1.4
0.0037	-0.003	0.0045	-0.0263	1.6
0.0045	0.0007	0.003	-0.033	1.6
0.006	0.0007	0.0007	0.0045	1.6
0.0082	0	-0.0015	-0.0015	1.6
0.0105	-0.003	-0.0038	-0.0181	1.5
0.0127	-0.0053	-0.0053	-0.0068	1.6
0.0157	-0.0053	-0.0075	-0.024	1.5
0.0217	-0.0083	-0.0091	-0.0165	1.5
0.0255	-0.0083	-0.0105	-0.0158	1.5
0.0277	-0.0075	-0.0113	-0.012	1.6
0.0202	-0.003	-0.0128	-0.003	1.7
0.012	0.0015	-0.0143	0.0202	1.7
0.0037	0.003	-0.0165	0.033	1.5
-0.0053	-0.003	-0.0195	-0.0105	1.7
-0.0091	-0.0053	-0.0181	-0.0091	1.7
-0.0105	-0.0113	-0.0158	-0.0015	1.7
-0.0128	-0.0128	-0.0158	-0.0158	1.8
-0.0143	-0.0015	-0.012	-0.0068	1.5
-0.015	0.003	-0.0008	-0.0091	1.9
-0.0158	0.0067	0.0105	0.0442	1.8
-0.0158	-0.0008	0.0187	0.078	1.8
-0.0128	0.0007	0.0292	-0.0068	1.8
-0.0083	0.0157	0.039	-0.0308	1.9
-0.0015	0.0142	0.0427	0.0262	1.8
0.003	0.018	0.0442	0.063	2
0.006	0.0142	0.042	0.0367	1.8
0.0052	-0.0053	0.0292	-0.0495	2
0.0052	-0.0143	0.0165	-0.0353	2
0.006	0.0015	0.0045	0.0052	1.9
0.0045	0.0187	-0.0128	-0.003	1.9
0.0037	0.0195	-0.0278	-0.0105	1.8
0.0045	0.0202	-0.042	-0.0046	2.1
0.006	0.0052	-0.0503	0.039	1.8
0.0052	-0.0046	-0.0555	0.003	1.9
0.0082	0.009	-0.0518	-0.0068	1.9
0.0142	0.0097	-0.0428	0.0427	1.8
0.0165	0.0082	-0.042	0.0067	1.9
0.0195	0.0112	-0.0368	0.0165	2.1
0.0217	0.0142	-0.033	0.0142	2
0.0232	0.018	-0.0248	-0.0248	2.1
0.0195	0.0127	-0.0195	-0.0383	1.8
0.0135	0.0037	-0.0135	-0.0203	2.2
0.012	0.006	-0.012	0.075	2.1
0.009	-0.0008	-0.0143	0.138	2.1
0.009	-0.0181	-0.0091	0.1912	2.1
0.0037	-0.012	-0.0083	0.195	2.1
0.0007	-0.0075	-0.0105	0.0525	2.1
-0.0015	-0.0008	-0.0113	-0.2295	2
-0.0015	0.0135	-0.0075	-0.3428	2
0.0007	0.0165	-0.0008	-0.2175	2.2
-0.0008	0.015	0.0015	-0.1815	2.1
0.0007	0	0.0045	0.0315	2.4
0.0052	-0.021	0.0015	0.1365	2.3
0.0067	-0.0256	-0.0015	-0.0465	2.3
0.0052	-0.0158	0.0015	-0.0015	2.3
0.003	-0.0105	0	0.0255	2.4
-0.0008	-0.0128	-0.0023	0.0412	2.4
-0.0053	-0.0143	-0.0038	0.063	2.6
-0.0046	-0.0165	-0.0023	0.018	2.3
-0.0015	-0.0158	-0.0015	0.0487	2.5
-0.0015	-0.0143	-0.003	0.0067	2.4
-0.0046	-0.0158	-0.003	0.0202	2.5
-0.003	-0.0173	-0.0038	0.0487	2.5
-0.003	-0.0195	-0.0046	0.027	2.6
-0.003	-0.0195	-0.0068	0.0277	2.6
-0.0008	-0.0181	-0.0091	0.0172	2.5
0.0015	-0.0173	-0.0098	0.0217	2.5
0.0015	-0.0181	-0.0098	0.0172	2.6
-0.0008	-0.0165	-0.0091	0.0195	2.5
-0.0008	-0.0173	-0.0091	0.0172	2.6
0.0007	-0.0165	-0.012	0.0157	2.6
0.0015	-0.015	-0.012	0.0157	2.6
0.0022	-0.0143	-0.0098	0.0097	2.8
0.0022	-0.0105	-0.0098	0.0112	2.6
0.003	-0.0098	-0.0098	0.009	2.8
0	-0.0098	-0.0068	0.009	2.6
0.0007	-0.0091	-0.0068	0.006	2.6
-0.0015	-0.006	-0.0091	0.0067	2.9
-0.0038	-0.0038	-0.0075	0.003	2.5
-0.0046	-0.0023	-0.0068	-0.0008	3
-0.003	-0.0008	-0.003	-0.0008	2.8
0	0.0015	-0.003	-0.0068	3
-0.0015	0.0045	-0.0046	-0.0091	3
0.0007	0.006	0.0007	-0.012	2.9
0.003	0.0075	0.0052	-0.012	2.9
0.0037	0.0082	0.0082	-0.0143	3.1
0.006	0.0082	0.0097	-0.0203	3.2
0.0052	0.0082	0.012	-0.0218	3
0.006	0.0075	0.0172	-0.024	3
0.0082	0.0075	0.0217	-0.0248	3.1
0.0105	0.0045	0.0255	-0.0263	3.1
0.0097	0.003	0.03	-0.0256	3
0.012	0.0007	0.0322	-0.0256	3.2
0.009	0.0007	0.0352	-0.0248	3
0.0052	0.0015	0.0367	-0.0218	3.2
0.003	0.0007	0.0397	-0.0225	3.2
-0.0015	-0.0015	0.0427	-0.0218	3.2
-0.0038	-0.0053	0.042	-0.0195	3.4
-0.0038	-0.0113	0.0405	-0.0143	3.2
-0.0015	-0.0165	0.0375	-0.0143	3.5
0.0007	-0.0158	0.0367	-0.0105	3.2
0.003	-0.0113	0.0367	0.0007	3.5
0.0022	-0.0113	0.0345	-0.0068	3.4
0	-0.0143	0.0337	-0.0105	3.4
0.0007	-0.0068	0.0322	0.012	3.6
-0.0015	-0.0075	0.0292	-0.0181	3.4
0.0015	-0.0083	0.027	-0.0668	3.6
-0.0008	-0.003	0.0255	-0.0383	3.7
-0.0015	0.0052	0.0247	-0.0053	3.4
0.0007	0.0157	0.0195	-0.0323	3.7
0.0045	0.0195	0.0165	-0.0443	3.6
0.0082	0.0225	0.0165	-0.0015	3.6
0.0105	0.0195	0.0142	0.0127	3.8
0.0097	0.0165	0.0112	-0.0256	3.8
0.0052	0.027	0.012	0.0015	3.9
0.0022	0.033	0.0105	0.054	3.8
0.0007	0.0262	0.0105	-0.0158	3.8
-0.0008	0.0255	0.0112	-0.0315	3.8
-0.0015	0.0135	0.0097	0.0585	4
-0.0015	0.006	0.009	-0.0046	3.9
0	0.0262	0.0067	-0.0773	3.9
0.0045	0.0277	0.009	0.0225	3.9
0.0052	0.0135	0.0082	0.1125	4.1
0.0022	0.009	0.006	0.0405	4
0.0052	0.0172	0.0067	-0.0263	4.1
0.0075	0.012	0.0045	0.0255	4.2
0.009	0.0045	0.0067	0.0382	4.2
0.0097	0.003	0.0052	0.054	4.4
0.009	0.0045	0.0015	0.0427	4.2
0.012	0.0082	-0.0038	-0.006	4.4
0.0067	0.0082	-0.0046	-0.0353	4.4
0.0007	0.0082	-0.0053	-0.0443	4.3
0.0007	-0.0046	-0.0128	0.0277	4.4
0.0015	-0.0023	-0.012	0.0187	4.4
0.0037	0.006	-0.012	-0.03	4.4
0.0037	0.018	-0.0143	-0.0518	4.5
0.0045	0.0247	-0.0188	-0.093	4.4
0.0067	0.0127	-0.0218	-0.03	4.5
0.009	0.0135	-0.0256	-0.0195	4.7
0.015	0.0135	-0.0308	-0.0518	4.5
0.0187	0.003	-0.03	-0.027	4.8
0.021	-0.003	-0.033	-0.0428	4.7
0.0262	-0.003	-0.0308	-0.0218	5
0.03	-0.0105	-0.0308	0.0127	4.9
0.0315	-0.0203	-0.0285	0.042	4.9
0.0285	-0.0278	-0.0285	0.0285	5.2
0.024	-0.039	-0.0308	-0.0338	5.1
0.0202	-0.0413	-0.0315	-0.0495	5.3
0.0142	-0.03	-0.0323	-0.0075	5.3
0.0037	-0.0203	-0.027	0.1402	5.5
-0.006	-0.0383	-0.0285	0.1552	5.5
-0.0143	-0.0443	-0.027	-0.0405	5.6
-0.0218	-0.0218	-0.024	-0.06	5.5
-0.027	-0.0203	-0.0195	0.0067	5.8
-0.0256	-0.0083	-0.0158	0.0007	5.6
-0.0256	-0.0068	-0.0203	0.0322	6
-0.0256	-0.012	-0.0195	0.0045	5.9
-0.0233	-0.0008	-0.0181	-0.003	6
-0.0195	-0.0023	-0.0165	-0.0346	6.1
-0.0143	-0.0015	-0.0158	-0.0668	6
-0.0113	0.0007	-0.0128	-0.0143	6.3
-0.012	0.0105	-0.0113	-0.0233	6.1
-0.0128	0.0142	-0.012	-0.0083	6.4
-0.0105	0.0157	-0.0105	0.0015	6.5
-0.0083	0.018	-0.0091	-0.003	6.6
-0.003	0.0187	-0.0068	0.0105	6.5
0.0015	0.0187	-0.0046	0.003	6.7
0.003	0.021	0.0007	0.0202	6.7
0.0045	0.0217	0.0052	0.015	7
0.0052	0.018	0.0105	0.0195	6.8
0.0067	0.018	0.018	0.0255	7
0.0067	0.0127	0.0225	0.0202	7.2
0.0022	0.0135	0.0247	0.0225	7
0.0007	0.012	0.027	0.0202	7.2
0.0007	0.0105	0.0292	0.0307	7.2
-0.0015	0.0142	0.0292	0.033	7.3
0.0015	0.0135	0.0292	0.024	7.4
0.0067	0.009	0.027	0.009	7.4
0.0082	0.0007	0.024	0.012	7.6
0.0075	-0.0068	0.021	0.0097	7.6
0.0052	-0.0165	0.0157	-0.0181	7.8
0.0007	-0.0218	0.0127	-0.0046	7.8
0	-0.0195	0.012	0.012	8.1
0.0015	-0.0158	0.012	-0.0105	8.1
-0.0008	-0.0158	0.0112	-0.0323	8.1
0	-0.0165	0.0082	-0.0285	8.3
0.0007	-0.0195	0.0067	-0.024	8.3
-0.0008	-0.0285	0.0075	-0.0293	8.4
-0.0015	-0.0263	0.0067	-0.0308	8.7
-0.0008	-0.0181	0.006	-0.0383	8.7
-0.0015	-0.0135	0.003	-0.0353	8.7
0	-0.0098	0.0007	-0.0346	9.1
0	-0.0075	-0.0008	-0.0315	9
-0.0008	0.0015	-0.003	-0.0263	9.4
-0.0015	0.009	-0.0053	-0.0181	9.4
-0.003	0.0075	-0.006	-0.0091	9.4
-0.0015	0.0075	-0.0053	-0.0008	9.5
-0.0023	0.003	-0.0046	0.039	9.8
-0.003	-0.0053	-0.0046	0.0577	9.8
-0.0023	-0.0098	-0.0053	0.0262	9.9
-0.0023	-0.012	-0.0046	0.012	10
-0.0046	-0.0091	-0.0068	0.009	10.3
-0.0098	-0.0046	-0.0083	-0.0008	10.3
-0.0143	-0.0053	-0.0046	-0.0008	10.5
-0.0181	-0.0046	-0.0053	-0.0075	10.6
-0.0218	0.0045	-0.006	-0.0181	10.7
-0.0158	0.0067	-0.0053	-0.0308	11
-0.003	0.003	-0.003	-0.0218	11.1
0.0007	-0.003	-0.0038	-0.0023	11.3
-0.0008	-0.0038	-0.0053	-0.0248	11.6
-0.0015	-0.0046	0.0007	-0.0278	11.5
-0.0015	-0.0046	0.0045	-0.0023	11.8
-0.0038	-0.003	0.0082	0.0075	11.9
-0.0053	-0.003	0.0135	0.0427	12.1
-0.0046	0.0045	0.0157	0.1252	12.3
-0.0023	0.0165	0.0165	0.246	12.5
-0.0008	0.0202	0.0217	0.2175	12.6
-0.0008	0.018	0.0292	-0.1095	12.7
0.0007	0.0217	0.0337	-0.1778	12.9
0.003	0.0082	0.0375	-0.0285	13.4
0.0045	0.003	0.0412	-0.0885	13.2
0.0007	0.0142	0.0367	-0.027	13.6
-0.0105	0.024	0.0307	-0.0113	13.6
-0.0158	0.027	0.0307	-0.012	13.9
-0.0165	0.0157	0.0262	0.0232	14.2
-0.0158	0.006	0.0255	-0.0173	14.1
-0.0188	0.0015	0.0217	0.0045	14.5
-0.015	0.0202	0.0127	-0.0383	14.6
-0.0083	0.0255	0.0082	-0.0405	14.9
-0.0015	0.018	0.0015	-0.0158	15
0.0007	0.0112	-0.003	0.0442	15.3
0.0037	-0.003	-0.0053	0.1432	15.3
0.0127	-0.0046	-0.0083	0.159	15.7
0.0217	-0.0046	-0.0105	0.0352	15.6
0.0255	0.0082	-0.0135	-0.0803	16
0.0262	0.018	-0.0128	0.03	16
0.0232	0.0307	-0.0128	0.0382	16.3
0.021	0.0457	-0.012	-0.111	16.3
0.0135	0.0382	-0.0143	-0.1485	16.5
0.0045	0.0202	-0.0195	-0.0405	17
-0.0008	0.0105	-0.0248	-0.0135	17
-0.006	0.015	-0.0338	-0.0728	17.4
-0.0105	0.0075	-0.0405	0.0727	17.5
-0.0105	-0.0105	-0.0473	0.2182	17.9
-0.0053	-0.0248	-0.0503	0.237	18
-0.0015	-0.0105	-0.0533	0.0997	18.3
0.0007	-0.0113	-0.0578	0.0247	18.5
0.0075	-0.024	-0.0623	0.0495	18.6
0.0082	-0.024	-0.0645	-0.0158	18.9
0.0015	-0.0285	-0.063	0.009	19.3
-0.0015	-0.0128	-0.0585	-0.006	19.3
-0.0008	-0.0083	-0.0525	-0.0038	19.6
0.0045	-0.0068	-0.0465	0.0045	19.8
0.0052	-0.0053	-0.0346	-0.0278	19.8
0.0097	-0.0128	-0.03	-0.012	20.4
0.0082	-0.012	-0.03	-0.0008	20.4
0.0015	-0.0128	-0.0323	0.0652	20.9
-0.0008	-0.0098	-0.0361	0.078	21.1
-0.0053	-0.0158	-0.0383	0.0667	21.2
-0.012	-0.0195	-0.0323	0.0082	21.6
-0.0165	-0.0128	-0.0218	-0.1478	21.6
-0.0225	-0.0158	-0.0135	-0.1711	22.1
-0.0256	-0.0158	-0.0038	-0.0706	22.4
-0.0278	-0.024	0.0045	-0.0315	22.5
-0.0278	-0.0413	0.015	-0.0308	22.8
-0.0181	-0.0518	0.0277	-0.0953	22.9
-0.0053	-0.0593	0.0382	-0.1756	23.4
-0.0015	-0.0765	0.0502	-0.132	23.6
0.0015	-0.1021	0.0615	-0.096	23.9
0.003	-0.1103	0.069	-0.075	24.2
0.0097	-0.1065	0.075	-0.0465	24.4
0.015	-0.105	0.0787	-0.0008	24.9
0.0135	-0.099	0.0802	0.048	25.2
0.0172	-0.093	0.0787	0.0105	25.3
0.0142	-0.0953	0.078	-0.0053	25.7
0.0067	-0.093	0.0765	-0.0675	25.8
-0.0008	-0.0788	0.0757	-0.183	26.3
-0.0083	-0.0555	0.0772	-0.267	26.5
-0.0091	-0.0338	0.0795	-0.2558	26.9
-0.0068	-0.0188	0.0862	-0.0398	27.2
-0.0053	-0.0008	0.0847	0.117	27.5
-0.0008	0.012	0.0712	0.1815	27.6
0.0067	0.0142	0.0555	0.1747	27.9
0.0127	0.0202	0.0405	0.045	28.2
0.0135	0.0307	0.0292	0.0255	28.7
0.0067	0.0352	0.0165	0.051	28.8
0.0037	0.0195	0.0045	0.0817	29.2
0.0045	0.0225	-0.0091	0.048	29.3
0.0045	0.0367	-0.0263	0.042	29.6
0.0015	0.0307	-0.0428	0.141	29.7
-0.0046	0.0442	-0.054	0.0757	29.9
-0.0046	0.0607	-0.054	0.0442	30.2
-0.0015	0.0525	-0.0511	-0.063	30.4
0.0015	0.0555	-0.045	-0.267	30.7
0.009	0.0637	-0.0368	-0.12	31
0.0165	0.0622	-0.0368	0.039	31.3
0.0255	0.0637	-0.0436	0.1102	31.4
0.0315	0.0607	-0.0533	0.1477	31.8
0.0337	0.0667	-0.0555	0.0315	32
0.0337	0.0697	-0.0533	0.1282	32.1
0.033	0.0637	-0.0578	0.1117	32.5
0.0382	0.075	-0.0585	0.0112	32.5
0.0435	0.0802	-0.0608	0.0787	33
0.0465	0.0765	-0.0615	0.0442	32.9
0.0435	0.075	-0.0653	0.0412	33.4
0.0375	0.0712	-0.0706	0.033	33.5
0.033	0.0682	-0.0691	0.0352	33.8
0.0307	0.0577	-0.0683	0.1005	34.1
0.0322	0.0472	-0.0638	0.1485	34.1
0.0292	0.0442	-0.0555	0.1305	34.5
0.0255	0.0495	-0.0525	0.1222	34.7
0.0285	0.048	-0.0525	0.1447	35.1
0.03	0.0547	-0.0458	0.087	35.1
0.0307	0.0607	-0.0413	0.0337	35.4
0.0307	0.0705	-0.0346	-0.147	35.4
0.0277	0.0862	-0.024	-0.216	36
0.024	0.084	-0.0165	-0.0346	36.2
0.0232	0.069	-0.0113	-0.033	36.4
0.0262	0.0315	-0.0046	-0.0315	36.7
0.027	-0.0075	0.0037	0.0195	36.9
0.0292	-0.0518	0.0135	-0.0143	37.2
0.0255	-0.0863	0.0202	-0.0225	37.3
0.0157	-0.1021	0.0262	-0.0706	37.7
0.015	-0.1223	0.0345	-0.0953	37.7
0.0195	-0.1313	0.0382	-0.066	38
0.0202	-0.129	0.0375	0.0345	38.2
0.0165	-0.1275	0.0435	0.0307	38.4
0.0127	-0.1155	0.0487	-0.0645	38.6
0.0142	-0.1013	0.0457	-0.0181	38.8
0.0217	-0.0953	0.0435	-0.0015	39.1
0.0307	-0.0923	0.0427	0.039	39.4
0.036	-0.0863	0.0397	0.0637	39.5
0.0375	-0.0691	0.039	-0.042	39.6
0.0337	-0.057	0.0352	-0.156	39.8
0.0217	-0.045	0.03	-0.2026	40
0.0075	-0.0353	0.0307	-0.1485	40.4
-0.003	-0.024	0.0307	-0.0495	40.5
-0.0091	-0.0083	0.03	-0.0218	40.6
-0.012	-0.012	0.0315	-0.0383	41
-0.0203	0.003	0.0397	0.0015	41.1
-0.03	0.0352	0.048	-0.0683	41.4
-0.0398	0.0442	0.0442	-0.0375	41.5
-0.0428	0.042	0.0337	0.0307	41.6
-0.0443	0.0442	0.0277	-0.006	42
-0.048	0.0487	0.021	0.0337	42.2
-0.06	0.048	0.0142	0.015	42.4
-0.0691	0.0435	0.0127	0.0652	42.5
-0.0683	0.0382	0.0105	0.0892	42.7
-0.0675	0.039	0.0105	0.0697	42.8
-0.0578	0.051	0.0097	0.0405	42.8
-0.0443	0.0607	0.006	-0.1785	43.3
-0.0375	0.063	0.0082	-0.1756	43.4
-0.033	0.0457	0.0075	0.0825	43.6
-0.0338	0.0232	0.003	0.114	44.1
-0.0293	0.0135	0.0015	0.057	43.9
-0.0203	0.0157	-0.0053	0.0435	44.3
-0.0128	0.018	-0.0128	-0.1028	44.2
-0.0068	0.0112	-0.0128	-0.1365	44.5
0.0007	0.0105	-0.0068	0.1485	44.7
0.0105	0.0195	0	0.186	44.8
0.0195	0.0277	0.006	-0.1763	44.9
0.018	0.0315	0.0067	-0.207	45.2
0.012	0.0165	0.0007	-0.0383	45.2
0.006	0.0007	-0.0008	0	45.7
0.0007	0.0045	-0.0046	0.0442	45.6
-0.006	0.0097	-0.012	0.0015	45.9
-0.015	0.0135	-0.0165	-0.0083	45.9
-0.0188	0.0105	-0.0218	-0.0135	46.1
-0.0256	0.009	-0.0218	-0.0188	46.3
-0.0315	0.0045	-0.021	0.0712	46.6
-0.0256	-0.0075	-0.0173	0.1402	46.7
-0.0173	-0.0015	-0.012	0.1485	46.8
-0.0083	0.003	-0.0128	0.0937	46.9
0.0112	0.0045	-0.012	0.0405	47.2
0.027	0.0015	-0.012	0.0187	47.2
0.0337	-0.0038	-0.0098	0.006	47.4
0.042	-0.0053	-0.0083	0.009	47.6
0.0532	-0.012	-0.0091	0.0045	47.6
0.0562	-0.0181	-0.0098	-0.0068	47.9
0.048	-0.0195	-0.0105	-0.0083	48
0.0435	-0.0195	-0.0113	-0.0195	48.2
0.033	-0.0188	-0.0105	-0.0233	48.4
0.0195	-0.015	-0.0113	-0.021	48.3
-0.0053	-0.012	-0.0158	-0.027	48.7
-0.024	-0.0098	-0.0158	-0.0158	48.7
-0.0293	-0.0105	-0.0143	0.006	48.8
-0.0293	-0.0091	-0.0113	0.0015	49
-0.0195	-0.0053	-0.0075	-0.0188	49.1
-0.003	-0.006	-0.0015	-0.0256	49.4
0.0022	-0.0053	0.0015	-0.033	49.5
-0.0083	-0.0075	-0.0008	-0.0353	49.6
-0.0113	-0.0068	0.0022	-0.0353	49.6
-0.0195	-0.0083	0.003	-0.0413	49.8
-0.0308	-0.0091	-0.0046	-0.0428	49.9
-0.039	-0.0098	-0.0143	-0.048	50
-0.0495	-0.012	-0.0308	-0.0458	50
-0.0511	-0.012	-0.048	-0.0443	50.3
-0.048	-0.0143	-0.0653	-0.0428	50.2
-0.039	-0.0195	-0.0856	-0.0413	50.6
-0.0278	-0.024	-0.108	-0.0405	50.7
-0.033	-0.0278	-0.129	-0.0353	50.8
-0.039	-0.027	-0.1463	-0.0308	51
-0.0361	-0.0195	-0.1635	-0.024	50.8
-0.0353	-0.0038	-0.1733	-0.0165	51.3
-0.042	0.0112	-0.1711	-0.0068	51.1
-0.048	0.018	-0.1335	0	51.4
-0.0533	0.0135	-0.0158	0.003	51.5
-0.0465	0.0045	0.1642	0.0052	51.6
-0.033	-0.006	0.312	0.0097	51.7
-0.0225	-0.0135	0.414	0.0142	51.8
-0.0158	-0.0165	0.4897	0.0187	51.7
-0.0181	-0.012	0.5212	0.0217	51.9
-0.0233	-0.0083	0.528	0.0232	51.9
-0.0098	-0.0098	0.5137	0.0262	52.2
0.012	-0.0105	0.4845	0.024	52.3
0.0277	-0.0158	0.438	0.0195	52.2
0.042	-0.0135	0.375	0.015	52.5
0.0495	-0.0068	0.3082	0.0127	52.3
0.0465	0.0007	0.2287	0.0157	52.6
0.0465	0.0067	0.1485	0.0217	52.6
0.051	0.0112	0.075	0.0255	52.7
0.054	0.0165	0.0082	0.0247	52.8
0.0517	0.0165	-0.0473	0.0247	52.8
0.0457	0.0135	-0.0863	0.024	52.8
0.039	0.0067	-0.1155	0.0255	53
0.0277	0.0045	-0.1365	0.03	53
0.024	0.0067	-0.1403	0.0292	53.3
0.0255	0.0067	-0.1388	0.0262	53.1
0.0255	0.0067	-0.15	0.0232	53.4
0.0532	0.003	-0.1853	0.018	53.3
0.1125	0.0082	-0.2258	0.0082	53.4
0.1492	0.0082	-0.2378	0.003	53.6
0.1672	0.0007	-0.1973	0.0052	53.5
0.1582	-0.0083	-0.1238	0.0067	53.6
0.1057	-0.0203	-0.0706	0.0097	53.7
0.0217	-0.0293	-0.0638	0.009	53.5
-0.0555	-0.033	-0.12	0.0067	53.9
-0.0638	-0.0353	-0.216	0.006	53.8
-0.0728	-0.0361	-0.2858	0.0112	53.8
-0.1065	-0.033	-0.3525	0.0247	53.9
-0.1118	-0.027	-0.4335	0.0315	53.8
-0.1163	-0.0158	-0.4883	0.0292	53.9
-0.1013	-0.0008	-0.5393	0.015	54
-0.0908	0.0112	-0.6098	-0.0278	54
-0.0893	0.0172	-0.6923	-0.063	54.1
-0.0878	0.0255	-0.6855	-0.0945	54.1
-0.0893	0.051	-0.5618	-0.1696	54.2
-0.0803	0.0592	-0.4005	-0.1628	54.1
-0.0765	0.0592	-0.2318	-0.0743	54.1
-0.0653	0.0787	-0.0825	0.0952	54.2
-0.054	0.0555	0.033	0.2857	54.1
-0.0525	0.0345	0.1215	0.1815	54.4
-0.0443	0.0315	0.1732	0.087	54.3
-0.0495	-0.003	0.1957	0.0945	54.2
-0.0653	-0.0315	0.225	0.0045	54.1
-0.0743	-0.0585	0.2497	0.0307	54.1
-0.078	-0.0668	0.2655	-0.015	54
-0.0743	-0.0668	0.2865	-0.0878	54.2
-0.0706	-0.0743	0.2955	-0.114	54
-0.048	-0.0668	0.3015	-0.1418	54.2
-0.0105	-0.0706	0.3015	-0.0405	54.2
0.009	-0.0653	0.2962	-0.012	54.1
0.0015	-0.0585	0.2857	-0.0098	54.3
-0.0135	-0.0533	0.2737	-0.012	54
-0.0008	-0.0368	0.2632	0.006	54.2
0.03	-0.0195	0.2482	0.039	54.1
0.0592	0.0007	0.2347	-0.033	54.1
0.0825	0.0082	0.216	-0.0203	54.2
0.0847	0.0127	0.1972	0.0052	54
0.0802	0.0232	0.1815	-0.0091	54.1
0.078	0.027	0.1665	-0.0053	54
0.0682	0.0285	0.1515	-0.0083	53.9
0.0442	0.0285	0.1327	0.0007	53.8
0.0285	0.021	0.1102	-0.0053	53.8
0.0345	0.0022	0.087	0.003	53.7
0.0232	-0.0256	0.0682	0.0322	53.8
0.0022	-0.054	0.048	0.081	53.4
-0.0158	-0.0713	0.03	0.1402	53.6
-0.0278	-0.081	0.0142	0.1905	53.4
-0.0278	-0.0788	-0.0023	0.0997	53.1
-0.0256	-0.0721	-0.012	-0.1013	53.3
-0.0405	-0.075	-0.0233	-0.2806	52.8
-0.0668	-0.0675	-0.0323	-0.3615	53.1
-0.0675	-0.0691	-0.0368	-0.1208	52.8
-0.0593	-0.0803	-0.0458	0.0142	52.8
-0.0308	-0.0818	-0.057	0.0007	52.7
-0.0443	-0.075	-0.063	0.1005	52.5
-0.1748	-0.0473	-0.0675	0.0307	52.4
-0.186	-0.0128	-0.0713	-0.012	52.2
-0.0218	0.0202	-0.0743	-0.0593	52.1
0.1027	0.045	-0.075	-0.0818	52.2
0.1725	0.069	-0.0765	-0.012	51.9
0.2115	0.0907	-0.078	0.0015	52
0.2167	0.1087	-0.075	0.0232	51.9
0.195	0.1192	-0.075	0.0195	51.6
0.1762	0.123	-0.0735	0.0292	51.7
0.1537	0.1267	-0.0706	0.027	51.2
0.1027	0.1215	-0.0638	0.0127	51.3
0.0915	0.1155	-0.0563	-0.0181	50.9
0.1102	0.1057	-0.0511	-0.0713	50.8
0.1012	0.099	-0.0428	-0.0878	50.8
0.069	0.0915	-0.0353	-0.0353	50.5
0.0457	0.081	-0.0315	0.1402	50.5
0.024	0.069	-0.0278	0.207	50.2
0.0502	0.0607	-0.021	0.114	50.2
0.1987	0.0547	-0.0128	0.1042	50
0.4162	0.0465	-0.0068	0.0292	49.8
0.5527	0.057	-0.0015	-0.093	49.6
0.5362	0.057	-0.003	-0.048	49.6
0.4102	0.042	-0.0068	-0.006	49.4
0.27	0.033	-0.0083	-0.0203	49.2
0.1447	0.0262	-0.0105	0.0007	49
0.048	0.0255	-0.0143	0.0052	48.9
0.09	0.024	-0.0181	-0.0361	48.6
0.2047	0.0157	-0.0173	-0.0368	48.5
0.2512	-0.0075	-0.0165	0.012	48.4
0.2235	-0.0046	-0.0233	-0.0075	48
0.189	0.0067	-0.0285	0.0142	48
0.1747	-0.0181	-0.0315	0.0502	47.8
0.0997	-0.0248	-0.0323	0.0315	47.5
0.0232	-0.0195	-0.0218	0.0382	47.3
-0.0068	-0.0428	-0.0105	0.0645	47.3
-0.0533	-0.0653	0.0015	-0.0113	46.8
-0.1193	-0.0638	0.0157	-0.0593	47.1
-0.1515	-0.0458	0.0142	0.1522	46.6
-0.1733	-0.0293	0.0052	-0.0023	46.3
-0.2378	-0.0195	0.0037	-0.2018	46.2
-0.2993	0.0202	0.0007	0.0045	45.9
-0.3428	0.0345	0.0015	0.0832	45.9
-0.3758	0.0165	0.0022	0.087	45.7
-0.3653	0.009	0	-0.0068	45.4
-0.297	-0.0015	0.0052	-0.0443	45.2
-0.2213	-0.0053	0.0082	-0.0555	45
-0.168	-0.0038	0.012	-0.0495	45
-0.12	-0.0008	0.0157	0.09	44.7
-0.0938	0.0022	0.018	-0.0181	44.4
-0.0915	0.003	0.018	-0.0975	44.2
-0.0825	-0.006	0.0165	0.054	44
-0.0706	-0.012	0.018	0.0615	43.7
-0.0615	-0.0233	0.0157	-0.0691	43.6
-0.045	-0.024	0.0142	-0.1763	43.2
-0.0285	-0.0098	0.015	-0.2535	43
-0.0338	-0.0105	0.0142	-0.0046	42.9
-0.0608	-0.0203	0.0105	0.1672	42.8
-0.0795	-0.0346	0.0052	0.0142	42.3
-0.1006	-0.0346	0.0045	0.063	42.2
-0.1103	-0.0405	0.003	0.0075	42.2
-0.12	-0.0443	0.0007	-0.0878	41.8
-0.1373	-0.039	-0.0008	-0.0308	41.7
-0.1553	-0.024	-0.0008	-0.0098	41.2
-0.1898	-0.006	0.003	-0.0706	41
-0.1815	-0.012	0.0007	-0.1058	40.9
-0.1298	-0.0218	-0.0015	-0.021	40.7
-0.0871	-0.0278	-0.0046	-0.0218	40.4
-0.0608	-0.027	-0.0075	0.0007	40.2
-0.0383	-0.021	-0.0068	0.0067	39.8
-0.0128	-0.0128	-0.0083	0.0015	39.6
-0.0046	-0.0128	-0.0068	0.0277	39.3
0.0007	-0.0181	-0.006	0.0195	39.1
0.0067	-0.012	-0.0075	0.0397	39.1
0.0015	-0.0053	-0.0075	0.0195	38.6
-0.0098	0.0052	-0.0091	-0.003	38.6
-0.0218	0.0307	-0.0046	-0.0285	38.2
-0.0218	0.057	-0.0015	-0.015	38.1
-0.0233	0.0547	-0.0008	0.0052	37.9
-0.0293	0.0345	0.0007	-0.0008	37.4
-0.0405	0.027	0.0015	0.0315	37.3
-0.0503	0.0172	0.0022	0.0412	37
-0.0495	0.018	0.0022	0.0337	36.7
-0.0413	0.0352	0	0.027	36.4
-0.0158	0.0465	0.0007	0.0495	36.2
0.0127	0.054	0.0015	0.0412	36
0.0367	0.042	0.0015	0.0285	35.7
0.0555	0.024	0.0015	0.0067	35.3
0.0577	0.0112	-0.003	-0.0593	35.3
0.054	0.003	-0.0068	-0.039	34.7
0.0465	0.0255	-0.003	-0.0638	34.8
0.042	0.036	0.0045	-0.0473	34.5
0.042	0.0307	0.0142	0.0705	34
0.0487	0.0307	0.0165	0.0157	33.9
0.0547	0.0225	0.0142	0.012	33.5
0.0622	0.009	0.009	0.045	33.5
0.0697	-0.012	0.0067	-0.0068	33.1
0.0765	-0.027	0.003	0.0015	32.9
0.0817	-0.0413	0.0007	0.0007	32.6
0.084	-0.0533	0.0037	0.0135	32.4
0.0877	-0.0188	0.0045	-0.0008	32.2
0.0862	-0.0015	0.0045	-0.0046	32
0.0832	-0.0091	0.0037	0.0202	31.5
0.0847	-0.0015	0.0022	0.039	31.4
0.0855	-0.0233	0.0037	0.0975	31.2
0.0795	-0.0458	0.0045	0.0637	30.8
0.0742	-0.078	0.0007	-0.0015	30.6
0.069	-0.1253	-0.0015	-0.0165	30.3
0.066	-0.15	-0.0046	-0.1073	30.3
0.0637	-0.156	-0.0068	-0.1545	29.7
0.0577	-0.1605	-0.0053	0.0442	29.7
0.0487	-0.1463	-0.0046	0.2025	29.4
0.0405	-0.0998	-0.0038	0.0765	29.1
0.0307	-0.0721	-0.0046	-0.0353	28.8
0.0255	-0.0458	-0.0015	-0.1013	28.6
0.0225	-0.0248	0.0022	-0.0233	28.4
0.0127	-0.003	-0.0008	0.0322	28.2
0.0045	0.0232	-0.0038	-0.0915	27.8
-0.0068	0.0037	-0.0091	-0.0436	27.6
-0.0203	-0.012	-0.0113	-0.0285	27.4
-0.0256	-0.0218	-0.0075	0.0645	27.3
-0.0315	-0.0383	-0.0053	0.1155	27
-0.042	-0.045	-0.003	0.0082	26.7
-0.0511	-0.057	0.0007	0.0217	26.6
-0.0495	-0.0788	0.006	0.0495	26.3
-0.0443	-0.105	0.003	0.1477	26
-0.0428	-0.1006	0.0015	0.111	25.9
-0.0428	-0.0608	0.0075	0.0195	25.6
-0.054	-0.0143	0.0105	0.0037	25.4
-0.0578	0.0307	0.009	-0.1238	25.1
-0.042	0.0892	0.0067	-0.1485	24.9
-0.024	0.1087	0.0067	-0.0773	24.6
-0.0105	0.0885	0.0045	-0.0691	24.5
-0.0105	0.054	0.0015	-0.0413	24.3
-0.0083	0.0127	0.0015	-0.0165	24.2
-0.0015	0.0127	0.0007	0.027	23.8
-0.0105	0.0255	0.0015	0.003	23.8
-0.0203	0.0345	0.0015	-0.0818	23.3
-0.0203	0.0165	0	-0.0128	23.3
-0.0135	0.0112	0.0045	-0.039	22.9
-0.012	0.048	0.0105	-0.0293	22.8
-0.0188	0.0615	0.009	0.1432	22.8
-0.0143	0.0517	0.0067	0.183	22.4
-0.0023	0.0382	0.0097	0.2047	22.3
-0.003	0.0247	0.0067	0.033	22
-0.015	0.0405	0.0067	-0.1703	21.6
-0.024	0.0787	0.0075	-0.2258	21.7
-0.021	0.1102	0.0037	-0.2408	21.5
-0.0181	0.1102	0.0045	-0.2498	21.2
-0.0195	0.069	0.0015	-0.225	21.2
-0.0091	0.0135	0.0037	0.024	21
0.0045	-0.0465	0.0015	0.0772	20.9
0.0105	-0.078	-0.003	0.069	20.6
0.0165	-0.0773	0.0015	0.0705	20.4
0.0142	-0.0436	0.0045	0.1065	20.3
0.0157	0.006	0.003	0.2205	20
0.0232	0.0292	0.0022	0.078	19.9
0.0202	0.0547	0.0045	0.0157	19.4
0.0315	0.081	0.0045	-0.0383	19.4
0.0345	0.0517	0.0045	-0.0143	19
0.0255	0.0187	-0.0008	-0.0458	19
0.0262	0	-0.003	-0.0728	18.8
0.0232	-0.0158	-0.003	0.1042	18.4
0.0202	-0.0075	-0.0023	0.0345	18.2
0.0195	-0.0023	-0.0046	-0.0256	18.1
0.0142	0.0277	-0.0068	-0.1635	17.7
0.0082	0.0562	-0.0068	-0.1628	17.5
0.0075	0.0502	-0.0075	0.0645	17.2
0.0007	0.0225	-0.0068	0.0397	17
0.0022	0.0015	-0.0053	0.0315	17
0.003	0.0015	-0.0023	0.0082	16.6
0.003	-0.0083	0	0.0015	16.7
0.0082	-0.0046	0.0022	0.024	16.4
0.0052	0.0082	0.0045	0.0255	16.1
0.0045	0.0165	0.003	0.0255	16
-0.0046	0.0225	-0.0015	-0.0315	15.6
-0.0128	0.0232	-0.0038	-0.0075	15.7
-0.0165	0.0285	-0.0015	-0.0203	15.6
-0.0195	0.0405	0.0007	0.0045	15.4
-0.0248	0.0607	0.0007	0.0337	15.1
-0.033	0.0885	-0.003	0.033	15
-0.0375	0.1117	-0.0046	0.0495	14.8
-0.0338	0.1215	-0.0046	0.0082	14.7
-0.0248	0.1117	-0.003	0.0052	14.4
-0.0218	0.0765	-0.006	-0.0203	14.3
-0.0195	0.0517	-0.0091	0.0082	13.9
-0.0083	0.0315	-0.0113	0.0802	14
-0.006	0.0105	-0.015	0.0555	13.8
-0.0053	0.0262	-0.0165	0.0142	13.5
0.0127	0.0375	-0.0165	0.0337	13.5
0.0585	0.0337	-0.0165	0.084	13.3
0.156	0.039	-0.0113	0.069	13.3
0.2895	0.0427	-0.0083	0.0367	12.9
0.3795	0.0435	-0.0068	0.0375	12.9
0.3772	0.0292	-0.006	0.0322	12.7
0.3135	-0.0098	-0.006	0.03	12.6
0.2235	-0.0615	-0.003	0.0217	12.5
0.1485	-0.0721	-0.0023	0.0202	12.4
0.0877	-0.0436	-0.0046	0.0232	12.1
0.0517	-0.0368	-0.006	0.0082	12.1
0.0412	-0.0511	-0.0075	-0.024	11.9
0.0292	-0.0653	-0.0068	-0.0938	11.9
0.012	-0.084	-0.0068	-0.12	11.6
-0.012	-0.0953	-0.0091	-0.0983	11.5
-0.021	-0.0908	-0.0105	-0.0375	11.6
-0.0361	-0.1155	-0.012	0.0255	11.1
-0.0473	-0.1485	-0.0143	0.0187	11.2
-0.0495	-0.1381	-0.0158	0.0427	11.1
-0.0638	-0.1245	-0.0181	0.0285	11.1
-0.0728	-0.12	-0.0181	-0.0915	10.8
-0.0728	-0.0998	-0.0135	-0.1448	10.7
-0.0713	-0.0915	-0.0143	-0.0278	10.6
-0.0668	-0.1088	-0.0203	0.0097	10.6
-0.0578	-0.1433	-0.024	0.0082	10.3
-0.0503	-0.1553	-0.0195	0.0975	10.4
-0.045	-0.1388	-0.012	0.0465	10
-0.0443	-0.1253	-0.0091	-0.0143	10
-0.0465	-0.1178	-0.012	-0.0165	9.9
-0.0353	-0.1388	-0.012	-0.0233	9.4
-0.0263	-0.1426	-0.0105	-0.0308	9.6
-0.0225	-0.0975	-0.0105	-0.0368	9.4
-0.0181	-0.0368	-0.0075	-0.0038	9.4
-0.0173	0.0277	-0.0075	0.0135	9.2
-0.021	0.0765	-0.006	-0.015	9
-0.0323	0.1192	-0.0038	-0.048	9
-0.042	0.1327	-0.0008	-0.0413	8.8
-0.0615	0.099	0.0045	-0.0413	8.6
-0.0938	0.0622	0.0105	-0.0346	8.5
-0.1335	0.0307	0.0217	0.0135	8.4
-0.1778	0.003	0.0345	0.186	8.5
-0.2235	-0.015	0.039	0.2572	8.3
-0.258	0.0292	0.0442	0.075	8.1
-0.2685	0.0907	0.0517	0.0862	8.1
-0.2513	0.1215	0.0555	0.0645	7.7
-0.225	0.1447	0.0577	-0.123	7.8
-0.2048	0.1357	0.0592	-0.1718	7.5
-0.192	0.1237	0.0622	-0.1763	7.5
-0.1853	0.105	0.0652	-0.0465	7.3
-0.1711	0.0892	0.0615	0.0255	7
-0.1485	0.0757	0.0525	-0.0143	7.3
-0.126	0.0405	0.048	0.0345	6.9
-0.108	0.0352	0.0457	0.0352	6.9
-0.0908	0.0495	0.042	0.0157	6.9
-0.0765	0.0555	0.039	0.0217	6.7
-0.0555	0.057	0.0352	0.0127	6.6
-0.0315	0.0525	0.0352	-0.048	6.4
-0.0181	0.0502	0.0307	-0.1628	6.4
-0.0038	0.0345	0.0232	-0.1508	6.4
0.0142	0.018	0.0172	-0.024	6.3
0.0277	0.012	0.009	0.0045	6.2
0.039	0.0022	-0.0008	0.0142	6.1
0.0465	-0.0053	-0.0098	0.0232	5.8
0.054	-0.0091	-0.0165	-0.0053	6
0.0615	0.0052	-0.0233	0.0097	5.8
0.0712	0.0277	-0.03	0.015	5.8
0.078	0.018	-0.0346	0.0225	5.5
0.078	-0.0083	-0.0383	0.0277	5.6
0.0787	-0.0233	-0.0361	0.024	5.4
0.0817	-0.0143	-0.0368	0.0322	5.5
0.0847	-0.0075	-0.0368	0.0247	5.3
0.0847	-0.0098	-0.033	0.0247	5.3
0.081	-0.0083	-0.0293	0.0202	5.3
0.0765	-0.0195	-0.027	0.0157	5.3
0.0757	-0.024	-0.021	0.0015	4.9
0.0765	-0.0248	-0.0165	-0.0091	5.1
0.078	-0.0165	-0.0128	0.0037	5
0.0757	-0.0128	-0.0075	0.012	4.9
0.0712	-0.0203	-0.0068	0.0142	4.9
0.0667	-0.024	-0.006	0.0172	4.9
0.0615	-0.0353	-0.0046	0.0187	5
0.054	-0.0398	-0.0038	0.0142	4.9
0.0435	-0.0173	-0.0046	0.006	4.7
0.0315	0.0052	0	0.0015	4.8
0.009	0.0172	0.0015	-0.0233	4.8
-0.0023	0.0165	-0.003	-0.0518	4.8
0.0202	-0.0008	-0.006	-0.0728	4.7
0.045	-0.0158	-0.0068	-0.0878	4.5
0.0615	-0.0346	-0.0046	-0.0165	4.7
0.0772	-0.0338	-0.0046	0.0795	4.6
0.0817	-0.03	-0.0008	0.1312	4.7
0.0907	-0.0158	0.0007	0.1665	4.7
0.1042	0.0097	0.003	0.1012	4.4
0.1215	0.0045	0.0052	0.03	4.6
0.141	0.0187	-0.0008	-0.003	4.4
0.144	0.036	-0.0015	-0.093	4.5
0.1305	0.0367	0.0022	-0.0975	4.4
0.1087	0.039	0.0172	-0.0308	4.5
0.0907	0.0232	0.0345	0.0495	4.6
0.0772	-0.0135	0.0412	0.1102	4.4
0.0555	-0.0563	0.0427	-0.0795	4.2
0.0277	-0.063	0.0375	-0.321	4.2
0.0022	-0.0346	0.0352	-0.1598	4.4
-0.0203	-0.0165	0.0345	0.0915	4.4
-0.0338	-0.0263	0.021	0.0345	4.4
-0.0436	-0.0278	0.0007	0.0015	4.4
-0.048	-0.027	-0.0218	0.024	4.3
-0.0428	-0.024	-0.042	0.003	4.2
-0.0323	-0.0128	-0.0585	0.0315	4.5
-0.0203	-0.015	-0.0735	0.0352	4.2
-0.0143	-0.0091	-0.0863	0.0585	4.2
-0.0143	0.0007	-0.0863	-0.0053	4.1
-0.0143	0.0007	-0.0773	-0.0698	4.1
-0.012	-0.0046	-0.0713	-0.1088	4.4
-0.0091	-0.0113	-0.06	-0.1103	4.2
-0.0046	-0.0083	-0.048	0.0705	4.5
-0.0008	0.003	-0.03	0.1162	4.3
-0.0023	0.0097	-0.0195	0.0277	4.3
-0.0068	0.012	-0.012	-0.108	4.3
-0.0046	0.018	0.0007	-0.21	4.3
-0.0008	0.0172	0.0097	-0.1515	4.4
0.0007	0.0202	0.018	-0.1275	4.3
0.0045	0.0247	0.024	-0.0691	4.3
0.0142	0.0127	0.0307	0.156	4.5
0.0195	0.0052	0.042	0.2482	4.4
0.0225	0.0015	0.0465	0.105	4.3
0.0307	-0.0083	0.0487	0.0397	4.5
0.0345	0	0.0487	-0.0098	4.3
0.0202	0.0247	0.042	-0.003	4.6
-0.0105	0.042	0.0315	0.0675	4.2
-0.0428	0.0525	0.0255	0.0615	4.5
-0.075	0.03	0.0187	0.2385	4.5
-0.0893	-0.0383	0.012	0.159	4.5
-0.0683	-0.0856	0.003	-0.0158	4.5
-0.042	-0.078	-0.0075	0.102	4.5
-0.0158	-0.0608	-0.0173	0.0577	4.3
0.0037	-0.0413	-0.0195	0.0742	4.6
0.024	-0.0285	-0.0181	0.0442	4.3
0.0367	-0.024	-0.0098	-0.1575	4.6
0.0412	-0.0091	0.006	-0.219	4.5
0.0427	-0.0128	0.0255	-0.0615	4.5
0.042	-0.0098	0.045	-0.0653	4.5
0.0427	0.0217	0.054	-0.2325	4.5
0.0427	0.0465	0.057	-0.105	4.7
0.0457	0.0382	0.0555	-0.078	4.5
0.042	0.0187	0.0465	-0.0158	4.7
0.0397	0.0142	0.042	0.0427	4.7
0.0367	0	0.033	0.0067	4.6
0.027	-0.0053	0.0255	0.186	4.7
0.0105	0.0165	0.0202	0.054	4.7
-0.0091	0.0532	0.024	-0.0953	4.7
-0.0091	0.0435	0.0247	0.057	4.6
0.0022	-0.0195	0.0172	0.0255	4.7
0.0142	-0.0818	0.0127	-0.0983	4.7
0.027	-0.0856	0.003	-0.1193	4.9
0.0367	-0.0256	-0.0008	-0.0675	4.9
0.0405	0.0255	-0.0083	-0.0915	4.8
0.0345	0.0315	-0.0195	-0.039	4.7
0.0285	0.0127	-0.033	0.0652	4.9
0.0157	0.0165	-0.0428	-0.0706	4.7
0.0015	0.006	-0.042	-0.0615	4.8
-0.0083	0.003	-0.0405	0.0645	4.9
-0.0218	0.0105	-0.0323	0.144	4.8
-0.0353	0.0045	-0.0256	0.156	4.9
-0.0525	0.018	-0.0256	0.075	4.7
-0.0638	0.012	-0.027	0.054	4.6
-0.0691	-0.003	-0.0368	-0.0578	4.6
-0.0743	-0.0105	-0.0398	-0.0765	4.8
-0.0728	-0.03	-0.033	0.0975	4.5
-0.0675	-0.0428	-0.024	0.1822	4.6
-0.0608	-0.012	-0.0128	0.0172	4.2
-0.0488	0.027	-0.012	-0.1575	4.1
-0.0383	0.0277	-0.0233	-0.054	4.1
-0.0263	0.027	-0.0263	0.0457	3.9
-0.0098	0.0172	-0.0353	0.0142	3.7
0.0022	0.0067	-0.048	-0.033	3.4
0.009	0.009	-0.0518	-0.0195	3.4
0.0165	0.0105	-0.0495	0.0202	3
0.0247	0.0157	-0.048	-0.0046	2.9
0.033	0.003	-0.0555	-0.0383	2.6
0.042	-0.0008	-0.0608	-0.0615	2.3
0.0547	0	-0.0675	-0.0443	2.2
0.0675	-0.0046	-0.0788	-0.0091	2
0.087	-0.012	-0.0975	0.066	1.6
0.1072	-0.0195	-0.1215	0.1402	1.6
0.1252	-0.0143	-0.1448	0.123	1.2
0.1425	-0.0143	-0.168	0.0495	1.3
0.1597	-0.0158	-0.195	-0.0091	1.1
0.177	-0.027	-0.231	-0.0068	1
0.1867	-0.0203	-0.2535	-0.081	0.9
0.192	-0.0023	-0.255	-0.1553	0.6
0.1912	-0.0075	-0.261	0.0142	0.8
0.174	-0.0023	-0.2595	0.0885	0.6
0.1372	0.0202	-0.2475	-0.0555	0.5
0.102	0.0285	-0.225	-0.015	0.7
0.072	0.0352	-0.1793	0.0442	0.5
0.0465	0.0367	-0.1223	0.042	0.6
0.0345	0.0255	-0.075	-0.0863	0.6
0.0202	0.024	-0.042	-0.1028	0.6
-0.0015	0.0127	-0.0368	0.0292	0.7
-0.0233	-0.0008	-0.0706	-0.1178	0.5
-0.0465	-0.0091	-0.0915	-0.0893	0.8
-0.0713	-0.0128	-0.0436	-0.0338	0.8
-0.0893	-0.0105	0.0562	-0.048	0.8
-0.096	-0.0105	0.1732	0.0015	0.9
-0.099	-0.0105	0.2685	-0.0308	0.9
-0.1013	-0.0075	0.3382	0.0457	0.9
-0.1028	-0.0008	0.3907	0.1245	1
-0.1125	-0.0068	0.4245	0.15	1.1
-0.1253	-0.0173	0.4425	0.1155	1.1
-0.1283	-0.0165	0.444	0.1605	1.1
-0.1343	-0.0181	0.4477	0.267	1.2
-0.1388	-0.0308	0.4522	0.1335	1.1
-0.1388	-0.0083	0.4402	-0.1635	1.1
-0.1388	0.0465	0.4155	-0.267	1.2
-0.1215	0.051	0.3892	-0.1605	1.3
-0.0968	0.012	0.36	-0.1838	1.3
-0.0743	-0.0525	0.339	-0.1155	1.3
-0.0465	-0.057	0.3285	-0.0053	1.3
-0.0181	0.0172	0.3082	-0.0518	1.5
0.0007	0.0382	0.2917	-0.0563	1.3
0.015	-0.015	0.2835	-0.0563	1.5
0.0285	-0.0885	0.2617	0.0517	1.5
0.0322	-0.1013	0.243	0.0855	1.8
0.0292	-0.0645	0.2295	-0.0203	1.7
0.0232	-0.0173	0.21	-0.0713	1.7
0.012	0.018	0.1905	-0.0218	1.8
-0.003	0.0067	0.165	0.0825	1.9
-0.0173	0.0037	0.1395	0.135	2.2
-0.0248	-0.0075	0.117	0.1267	2.2
-0.0256	-0.0083	0.0892	-0.0181	2.2
-0.024	0.012	0.0622	0.0045	2.3
-0.012	0.027	0.036	0.0487	2.5
-0.0008	0.0382	0.0135	-0.0833	2.4
0.0165	0.033	-0.012	-0.0458	2.6
0.0255	0.0352	-0.039	0.0172	2.4
0.0195	0.0315	-0.0706	0.042	2.6
0.012	0.027	-0.1043	0.0405	2.8
0.0037	0.0232	-0.1275	0.012	2.7
0.0052	0.0202	-0.153	0.0022	3
0.0142	0.0105	-0.186	-0.0008	2.9
0.0255	-0.003	-0.2108	-0.0293	3.2
0.0315	-0.0008	-0.2318	-0.0165	3.2
0.0352	-0.0068	-0.2633	0.051	3.2
0.033	-0.0083	-0.3	-0.0091	3.1
0.0067	-0.0091	-0.3315	0.0015	3.2
-0.0278	-0.0075	-0.36	0.0427	3.2
-0.0225	0.0015	-0.3833	0.0007	3.1
-0.0128	0.0082	-0.4043	-0.003	3.2
-0.033	0.0195	-0.4215	-0.0158	3.2
-0.048	0.0277	-0.4373	-0.03	3.2
-0.0706	0.0315	-0.4613	-0.0225	3.2
-0.0871	0.0285	-0.477	-0.003	3.1
-0.0968	0.0292	-0.4838	-0.0143	3
-0.1103	0.0277	-0.4785	0.0142	3.2
-0.12	0.015	-0.474	0.054	3.1
-0.1313	-0.0323	-0.474	0.0427	3.1
-0.1411	-0.0825	-0.4628	0.0345	3.1
-0.1553	-0.0615	-0.4448	0.027	3
-0.1635	-0.0203	-0.4223	0.0495	3.3
-0.1673	-0.0105	-0.3833	0.0277	3.2
-0.1673	-0.0015	-0.3248	-0.0383	3.1
-0.1665	0.0045	-0.261	0	3.2
-0.165	0.0045	-0.2123	0.045	3.1
-0.1613	-0.0008	-0.1523	-0.003	3
-0.1635	-0.0015	-0.09	0.018	3
-0.1493	-0.0083	-0.0375	0.0142	2.9
-0.1073	-0.0218	0.0202	-0.0856	3
-0.0465	-0.0143	0.0712	-0.177	2.8
0.0007	-0.006	0.1282	-0.1441	2.9
0.0187	0.0082	0.1837	0.027	3
0.0292	0.018	0.2295	0.0112	2.7
0.0397	0.0165	0.276	-0.0428	2.7
0.105	0.0142	0.3157	-0.1065	2.6
0.3292	0.0052	0.3487	-0.0578	2.7
0.7515	0.003	0.381	0.0885	2.7
1.152	0.0075	0.411	0.0585	2.6
1.2705	0.009	0.435	0.0675	2.4
1.1647	0.0067	0.4522	-0.0668	2.3
0.9757	0.0097	0.4672	-0.105	2.4
0.7672	0.0052	0.4785	-0.0008	2.4
0.5722	0.0007	0.486	0.0015	2.1
0.3892	-0.0046	0.4845	0.033	2.4
0.195	-0.0075	0.4785	0.0382	2.2
0.0075	-0.0053	0.4635	0.0157	2.2
-0.1298	-0.0068	0.4342	0.0307	2.2
-0.2505	-0.0068	0.4102	0.108	2
-0.396	-0.0105	0.384	0.0075	2.1
-0.5685	-0.0068	0.3457	-0.1058	2
-0.7373	-0.0091	0.3127	-0.0495	1.9
-0.882	-0.0105	0.2797	-0.027	2.1
-0.9878	0.0022	0.2407	-0.0353	1.8
-1.053	0.0127	0.198	0.0255	2
-1.0876	0.0105	0.1537	0.1372	1.8
-1.086	0.0075	0.1147	0.093	1.8
-1.0485	0.0082	0.0727	-0.0563	1.8
-0.9645	0	0.0382	-0.1125	1.7
-0.8378	-0.003	0.0007	-0.024	1.9
-0.6915	-0.015	-0.039	0.1027	1.6
-0.5393	-0.0218	-0.0713	-0.0458	1.6
-0.3908	-0.012	-0.0953	-0.1305	1.8
-0.249	-0.003	-0.1193	0.0697	1.5
-0.1155	0.0007	-0.1411	0.0532	1.8
0.0142	0.0015	-0.15	0.0345	1.5
0.1312	0.0015	-0.1538	0.054	1.6
0.237	0.003	-0.1575	0.0135	1.6
0.3397	0.0037	-0.1643	0.027	1.5
0.4342	-0.0008	-0.1673	-0.015	1.7
0.5197	-0.0046	-0.165	-0.012	1.4
0.5887	-0.0083	-0.1628	0.0105	1.5
0.639	-0.0113	-0.1545	0.039	1.5
0.6682	-0.0083	-0.1568	0.021	1.3
0.6855	-0.0053	-0.1696	-0.0075	1.3
0.6922	-0.0091	-0.177	0.0052	1.4
0.6885	-0.0068	-0.1808	0.051	1.2
0.6877	-0.0023	-0.1838	0.0847	1.4
0.687	-0.003	-0.1845	0.042	1.2
0.678	0.0015	-0.1778	0.0255	1.3
0.6592	0.0082	-0.1741	-0.0233	1.3
0.627	0.0082	-0.1703	-0.0848	1.1
0.582	0.0082	-0.1673	0.0382	1.3
0.5325	0.0037	-0.1703	0.2625	1.2
0.48	-0.0143	-0.1665	0.2475	1.3
0.4162	-0.021	-0.1598	0.0232	1
0.3495	-0.0068	-0.1538	-0.2378	1.1
0.2835	0.0135	-0.1493	-0.4665	0.9
0.207	0.024	-0.1485	-0.429	0.9
0.1275	0.0195	-0.1418	-0.1988	1
0.0517	0.0105	-0.1388	-0.0585	1
-0.0256	-0.003	-0.1448	-0.042	1
-0.096	-0.0195	-0.1463	0.0292	1
-0.1515	-0.033	-0.1403	0.1185	1.1
-0.1988	-0.0293	-0.1335	0.1755	1.3
-0.237	-0.0083	-0.1223	0.2355	1.1
-0.2723	-0.0008	-0.111	0.1935	1.1
-0.3015	0.0007	-0.1013	0.0345	1.2
-0.321	0.021	-0.0863	-0.117	1
-0.3428	0.033	-0.0818	-0.0615	1.2
-0.3593	0.0292	-0.0788	0.0075	1
-0.378	0.0202	-0.0706	-0.0915	1
-0.3833	0.0112	-0.0555	-0.075	1.1
-0.3818	0.0112	-0.039	-0.0113	1.1
-0.3825	0.0052	-0.0263	-0.0083	1.3
-0.3705	0.0052	-0.0091	0.0427	1.3
-0.3563	0.0082	-0.0068	0.039	1.2
-0.333	0.0067	-0.0165	0.0465	1.4
-0.312	0.018	-0.0383	0.0615	1.2
-0.291	0.0232	-0.0758	0.0502	1.3
-0.2723	0.018	-0.093	0.0607	1.3
-0.258	-0.0008	-0.0871	0.0832	1.3
-0.2355	-0.0368	-0.0706	0.108	1.4
-0.2145	-0.0683	-0.0413	0.0727	1.4
-0.1905	-0.0563	0.0007	0.0742	1.3
-0.165	-0.03	0.0427	0.0855	1.4
-0.1411	-0.0315	0.0802	0.0885	1.2
-0.1148	-0.024	0.1252	-0.0495	1.5
-0.0938	-0.0143	0.1837	-0.2273	1.1
-0.0735	-0.0015	0.2272	-0.1688	1.1
-0.0555	0.0075	0.2595	-0.1253	1.2
-0.0375	0.0067	0.2947	-0.189	1.2
-0.0188	0.018	0.3195	-0.1373	1.3
-0.0068	0.0217	0.3345	0.093	1.5
-0.0038	0.0255	0.3525	0.087	1.2
-0.0023	0.0285	0.3502	-0.03	1.3
0	0.018	0.3315	0.0202	1.2
0.0015	0.0127	0.3067	-0.0285	1.4
0.0075	0.0142	0.2872	-0.0083	1.3
0.0195	0.0067	0.276	0.0105	1.4
0.0307	0.0015	0.2685	-0.0075	1.5
0.0435	0.0007	0.264	0.0345	1.2
0.0532	-0.0023	0.312	0.0187	1.3
0.0615	-0.0046	0.492	0.0127	1.3
0.063	0.0007	0.6945	0.0015	1.2
0.0652	0.0052	0.705	0.0255	1.3
0.0705	0.0007	0.552	0.0442	1.2
0.0727	-0.0046	0.348	0.0195	1.2
0.0742	-0.0158	0.129	0.0667	1.2
0.0765	-0.0308	-0.0518	0.117	1.1
0.0825	-0.0323	-0.1965	0.027	1.3
0.09	-0.0218	-0.3105	-0.0856	1.3
0.0952	-0.0105	-0.3953	-0.0578	1
0.0967	-0.003	-0.459	-0.0008	1.3
0.0945	-0.0046	-0.4928	0.0277	1.2
0.09	0	-0.51	-0.048	1.3
0.0847	0.0127	-0.5093	-0.1485	1.2
0.0817	0.0105	-0.501	-0.0773	1.3
0.084	0.0022	-0.4905	-0.0083	1.3
0.084	-0.003	-0.4755	0.0682	1.4
0.0817	-0.012	-0.4523	0.1155	1.4
0.078	-0.0075	-0.432	0.1282	1.3
0.078	-0.0023	-0.4088	0.3307	1.4
0.0757	-0.0053	-0.3735	0.2512	1.3
0.0667	0	-0.3421	-0.2723	1.1
0.0577	0.0195	-0.3143	-0.4868	1.2
0.0487	0.0232	-0.2933	-0.1778	1.3
0.0345	0.0105	-0.2693	-0.0068	1.3
0.0217	0.0052	-0.2445	-0.0158	1.3
0.0165	-0.0008	-0.2243	-0.0128	1.2
0.018	0.0022	-0.1958	-0.0945	1.3
0.0255	0.0052	-0.1726	-0.0008	1.4
0.0337	0.0007	-0.1553	0.1192	1.3
0.0405	-0.006	-0.135	0.1237	1.5
0.045	-0.0128	-0.1118	0.1365	1.2
0.0435	-0.0165	-0.096	0.093	1.5
0.0382	-0.0173	-0.0803	-0.0293	1.2
0.0352	-0.0075	-0.0555	-0.0053	1.2
0.0367	0.0037	-0.0368	0.0307	1.3
0.0367	0.0075	-0.0158	-0.1148	1.3
0.0367	0.0082	0.0052	-0.1785	1.3
0.0367	0.0097	0.024	-0.1628	1.4
0.039	0.0142	0.0427	-0.048	1.3
0.039	0.009	0.06	0.0277	1.5
0.0352	0.0022	0.0787	0.0142	1.3
0.0277	-0.0046	0.0952	0.0517	1.4
0.0195	-0.015	0.1117	0.0405	1.5
0.0097	-0.012	0.1335	0.0517	1.4
0.0007	-0.006	0.1575	0.0292	1.5
-0.0015	0.0037	0.1867	-0.0023	1.5
-0.0008	0.018	0.2227	0.0127	1.5
0.0015	0.0217	0.2587	-0.0608	1.6
0.0015	0.0112	0.2992	-0.1065	1.3
0.0015	-0.006	0.3375	-0.066	1.5
0.003	-0.0143	0.3705	-0.0563	1.3
0.0007	-0.0128	0.4035	-0.003	1.5
-0.0068	-0.0068	0.4372	0.099	1.5
-0.0173	-0.012	0.474	0.1785	1.5
-0.027	-0.0068	0.5055	0.1935	1.5
-0.0375	0.0075	0.5332	0.1005	1.5
-0.0488	0.0022	0.5595	0.0975	1.5
-0.0548	-0.0068	0.576	0.1177	1.5
-0.0585	0.0015	0.573	-0.099	1.3
-0.057	0.0142	0.5505	-0.327	1.5
-0.0533	0.0202	0.522	-0.2573	1.3
-0.048	0.0165	0.4785	-0.1381	1.3
-0.0405	0.0067	0.417	-0.1103	1.5
-0.0361	0.0052	0.3517	-0.0278	1.3
-0.0308	-0.0008	0.2842	0.0232	1.5
-0.027	-0.0091	0.219	0.0795	1.3
-0.024	-0.012	0.1552	0.144	1.3
-0.0256	-0.0218	0.0892	0.2032	1.4
-0.027	-0.024	0.03	0.135	1.5
-0.0256	-0.0165	-0.0158	0.0735	1.2
-0.021	-0.0113	-0.0578	0.1162	1.5
-0.0173	-0.0015	-0.09	0.0705	1.3
-0.0165	-0.003	-0.1208	0.075	1.4
-0.0158	-0.0038	-0.1553	0.057	1.3
-0.012	0.003	-0.1845	0.1027	1.3
-0.0083	0.0075	-0.219	0.1192	1.3
-0.0046	0.009	-0.2573	0.045	1.1
-0.003	-0.0008	-0.2933	0.099	1.4
0.0007	-0.012	-0.327	0.0127	1
0.003	-0.0181	-0.3555	-0.258	1.3
0.0067	-0.0165	-0.3765	-0.2963	1.3
0.0082	-0.0068	-0.393	-0.0788	1.3
0.009	0.009	-0.4125	-0.0998	1.2
0.0075	0.009	-0.4253	-0.1913	1.3
0.0067	-0.0038	-0.4313	-0.1193	1.3
0.0067	-0.0158	-0.4358	0.0315	1.5
0.006	-0.0413	-0.435	0.1477	1.3
0.0067	-0.0458	-0.4373	0.1567	1.5
0.0067	-0.0315	-0.4305	0.21	1.4
0.0082	-0.012	-0.414	0.0202	1.4
0.009	0.0135	-0.39	-0.2033	1.5
0.0082	0.0195	-0.3593	-0.165	1.5
0.0082	0.0112	-0.3165	-0.1485	1.6
0.009	0.0015	-0.2768	-0.2595	1.3
0.012	0.009	-0.2408	-0.333	1.4
0.0142	0.006	-0.2108	-0.1275	1.6
0.0172	0.003	-0.1913	-0.0233	1.4
0.0202	0.0165	-0.1605	0.0277	1.5
0.0225	0.012	-0.126	0.1957	1.6
0.0232	0.0037	-0.093	0.12	1.3
0.0232	-0.0015	-0.0533	0.021	1.4
0.0195	0	-0.0293	0.075	1.4
0.0172	-0.006	-0.0053	0.1582	1.4
0.0157	-0.0203	0.0217	0.2197	1.5
0.015	-0.0218	0.0345	0.2617	1.4
0.0135	-0.0158	0.0465	0.2137	1.5
0.0142	-0.0083	0.0502	0.0967	1.3
0.0165	-0.0083	0.0525	0.036	1.3
0.021	-0.0173	0.0495	0.0225	1.4
0.021	-0.0233	0.045	0.0825	1.3
0.0225	-0.0203	0.0457	0.1147	1.5
0.0232	-0.0256	0.0465	0.1327	1.3
0.024	-0.0368	0.0517	0.1425	1.4
0.0285	-0.033	0.06	0.1327	1.2
0.0307	-0.027	0.0615	0.1297	1.3
0.03	-0.0256	0.0525	0.1065	1.3
0.024	-0.03	0.0337	0.0847	1.4
0.0157	-0.0428	0.0195	-0.0195	1.3
0.0112	-0.0615	0.0097	-0.1215	1.3
0.0112	-0.078	0.0015	-0.156	1.2
0.0135	-0.075	-0.0015	-0.105	1.4
0.0157	-0.0675	-0.0038	-0.0458	1.2
0.0202	-0.0503	-0.0008	-0.0638	1.3
0.027	-0.0046	0.0127	-0.0765	1.3
0.0322	0.057	0.0382	-0.0863	1.2
0.0367	0.114	0.069	-0.0675	1.3
0.0367	0.165	0.0997	-0.1103	1.2
0.0352	0.2055	0.117	-0.129	1.3
0.0345	0.2212	0.1237	-0.066	1.3
0.0307	0.2092	0.129	-0.0856	1.1
0.0277	0.186	0.1342	-0.1643	1.2
0.0217	0.1605	0.138	-0.186	1.1
0.018	0.12	0.1455	-0.1245	1.3
0.0165	0.072	0.15	-0.0098	1.4
0.0165	0.0367	0.1545	-0.0038	1.3
0.0157	-0.0046	0.159	-0.0721	1.2
0.0165	-0.0405	0.1627	-0.0068	1.1
0.0195	-0.0518	0.1627	0.0802	1.2
0.0157	-0.0533	0.1537	0.1972	1.3
0.0082	-0.054	0.141	0.1552	1.2
0.0007	-0.0511	0.1275	0.0562	1.4
-0.0075	-0.048	0.1117	0.1027	1.2
-0.0135	-0.0495	0.0975	0.0757	1.3
-0.0173	-0.0405	0.0825	0.111	1.3
-0.0195	-0.0181	0.0675	0.0952	1.2
-0.0203	0.012	0.0562	0.0742	1.2
-0.0233	0.0405	0.0457	0.0577	1.2
-0.0256	0.0585	0.0375	-0.1763	0.9
-0.0278	0.0615	0.0315	-0.2745	0.9
-0.0278	0.0367	0.0277	-0.2385	1
-0.0278	0.0255	0.0225	-0.2438	1.2
-0.0278	0.039	0.015	-0.0233	1.3
-0.027	0.045	0.0135	0.0937	1.1
-0.0308	0.048	0.0165	0.0007	1.2
-0.0308	0.0292	0.0165	-0.054	0.9
-0.0308	-0.0008	0.0127	-0.297	1.1
-0.03	-0.0225	0.0097	-0.2963	1
-0.0278	-0.0473	0.0037	-0.1013	1.1
-0.0256	-0.0675	0.003	-0.1365	1.2
-0.0181	-0.0795	0.0015	-0.1103	0.9
-0.0158	-0.057	0.0015	-0.1013	1
-0.0158	-0.0361	0.0067	-0.024	0.9
-0.0143	-0.054	0.0052	0.0255	0.9
-0.0143	-0.075	0.0052	-0.093	0.9
-0.0128	-0.0856	0.0045	-0.114	1
-0.0128	-0.09	0.0015	-0.1411	0.8
-0.0158	-0.0938	0	-0.1275	1.2
-0.0158	-0.0893	0	-0.081	0.9
-0.0195	-0.0795	0.003	0.0375	1.1
-0.0225	-0.0698	0.0037	0.0645	1.2
-0.0233	-0.0675	-0.0015	-0.0015	0.9
-0.0256	-0.0735	-0.0046	0.048	1.1
-0.0263	-0.0638	-0.0053	0.0045	0.8
-0.0248	-0.0593	-0.0068	0.0142	1
-0.0233	-0.0525	-0.0091	-0.0188	0.9
-0.021	-0.0458	-0.0091	-0.0428	1
-0.0195	-0.039	-0.0098	0.0225	1.1
-0.0165	-0.0308	-0.0105	0.0082	0.9
-0.0143	-0.024	-0.0105	0.0517	0.9
-0.0105	-0.0046	-0.0105	0.1485	1
-0.0068	0.0105	-0.0128	0.2085	1
-0.0053	0.0225	-0.0143	0.129	1.2
-0.003	0.048	-0.0098	0.0645	0.9
-0.0015	0.0645	-0.0053	0.0555	1.1
-0.0015	0.0615	-0.003	-0.054	1
-0.0015	0.0577	-0.003	-0.2003	0.9
-0.0023	0.0622	-0.0053	-0.123	1.1
-0.0015	0.0607	-0.0053	0.1455	1
-0.0008	0.0607	-0.006	0.1665	1.2
0.003	0.0645	-0.0046	0.2595	1.3
0.0052	0.0607	0.0007	0.3765	1
0.0045	0.0502	-0.0015	0.1957	1.3
0.0052	0.0367	0.0007	0.1117	1
0.0052	0.0352	0.0067	0.0795	1.2
0.0075	0.051	0.0082	0.045	1
0.0105	0.039	0.0037	0.0292	1
0.0105	0.03	-0.0053	0.018	1
0.012	0.0262	-0.0105	0.0862	1.1
0.0142	0.0075	-0.0128	0.0637	1
0.015	0.0075	-0.0128	-0.0443	1
0.0172	0.0157	-0.0135	-0.0436	0.9
0.0165	0.0232	-0.0143	-0.0383	0.9
0.0135	0.0172	-0.0128	-0.0743	0.9
0.0105	0.0075	-0.0128	-0.0428	1
0.0105	-0.0015	-0.0105	-0.0068	1.2
0.0127	-0.0053	-0.0098	0.0052	1.1
0.0157	-0.0046	-0.0091	-0.0068	1.1
0.0165	-0.0046	-0.012	0.012	0.9
0.0165	-0.0083	-0.0165	0.042	1.2
0.0195	-0.015	-0.0158	0.0232	1.1
0.0232	-0.012	-0.0135	0.0292	1.1
0.0255	-0.0158	-0.0105	0.0345	0.9
0.027	-0.0263	-0.0053	-0.0173	1.1
0.0262	-0.027	-0.0068	0.0337	1
0.0232	-0.0285	-0.0135	0.0892	1.3
0.021	-0.0218	-0.0143	0.0037	0.9
0.0202	-0.0165	-0.0128	0.099	1.3
0.0195	-0.033	-0.0143	0.2167	1
0.0195	-0.0383	-0.0135	0.2265	1.3
0.0187	-0.0405	-0.0105	0.2782	1.3
0.0172	-0.033	-0.0068	0.0105	0.9
0.0157	0.0007	-0.0053	-0.4725	1.1
0.0165	0.0352	-0.0046	-0.375	0.9
0.0157	0.0457	-0.0068	-0.0428	1.1
0.0142	0.0457	-0.0068	-0.0803	1.3
0.0127	0.0547	-0.0053	0.0157	1
0.0142	0.0495	-0.0091	-0.0165	1.2
0.0165	0.0367	-0.0105	-0.1088	1.1
0.0202	0.0142	-0.0091	-0.1448	1.2
0.0217	-0.0263	-0.0083	-0.0945	1.2
0.018	-0.0518	-0.0091	0.123	1
0.012	-0.0533	-0.0105	0.0337	1.3
0.0082	-0.0578	-0.0128	-0.021	1.3
0.0045	-0.0346	-0.0143	-0.0938	1.3
0.0015	-0.015	-0.0165	-0.0428	1.3
-0.0015	-0.0285	-0.0165	0.1402	1.1
-0.0015	-0.0308	-0.0143	0.2535	1.3
0.0015	-0.0555	-0.012	0.1065	1.2
0.0007	-0.0518	-0.012	-0.207	1.2
0.0022	-0.0338	-0.0128	-0.1298	1.3
0.0007	-0.0458	-0.012	-0.0645	1.3
-0.003	-0.048	-0.0068	0.0405	1.4
-0.0015	-0.0405	-0.0038	0.015	1.3
-0.0015	-0.027	-0.003	-0.0856	1.4
-0.0015	-0.0165	-0.003	0.009	1.5
-0.0046	-0.012	-0.0053	0.0157	1.4
-0.0068	-0.0046	0.0007	0.1387	1.5
-0.0083	0.0022	0.0112	0.18	1.5
-0.0053	-0.003	0.021	0.0255	1.3
-0.0038	0	0.0195	-0.1448	1.6
-0.0046	0.009	0.0157	-0.0743	1.4
-0.003	0.0052	0.0142	0.0577	1.5
-0.0053	0.0037	0.0097	0.006	1.3
-0.0075	0.0052	0.015	0.0457	1.3
-0.0083	0.0105	0.0165	0.0142	1.5
-0.012	0.0135	0.015	-0.0015	1.3
-0.012	0.0165	0.0127	0.0052	1.3
-0.0113	0.0202	0.009	-0.0263	1.3
-0.0105	0.018	0.0067	0.003	1.5
-0.0105	0.018	0.0037	-0.0181	1.5
-0.0128	0.0157	0.003	-0.0023	1.5
-0.0158	0.0157	0.0045	-0.0053	1.4
-0.0165	0.0157	0.0157	-0.0105	1.5
-0.0165	0.0157	0.0322	-0.0083	1.5
-0.0203	0.015	0.0457	-0.0135	1.5
-0.0218	0.012	0.054	0	1.4
-0.0233	0.0142	0.057	-0.0128	1.5
-0.0233	0.0157	0.0547	-0.0128	1.5
-0.0203	0.0165	0.048	-0.0158	1.3
-0.0181	0.0157	0.042	-0.0113	1.5
-0.0143	0.0127	0.0277	-0.0158	1.4
-0.0105	0.0112	0.0157	-0.0165	1.4
-0.0083	0.0075	0.006	-0.0158	1.5
-0.0075	0.0097	-0.0053	-0.033	1.5
-0.0068	0.018	-0.0143	-0.0368	1.4
-0.006	0.0232	-0.0195	-0.0405	1.4
-0.0053	0.0195	-0.0225	-0.0338	1.4
-0.0046	0.012	-0.0285	-0.012	1.6
-0.003	-0.003	-0.03	0.0465	1.3
-0.0008	-0.0195	-0.0293	0.042	1.5
0.0007	-0.0091	-0.0308	-0.048	1.3
0.0052	0.0007	-0.03	-0.0578	1.5
0.0075	0.003	-0.0293	-0.0488	1.6
0.0082	0.006	-0.0293	-0.057	1.5
0.012	0.006	-0.0308	-0.0203	1.5
0.0135	0.003	-0.03	0.0495	1.4
0.015	-0.0008	-0.0278	0.0622	1.6
0.0157	0.003	-0.027	-0.0091	1.5
0.0142	0.0045	-0.0263	-0.0053	1.4
0.0127	-0.0015	-0.0248	0.0105	1.7
0.009	-0.0046	-0.0225	0.0037	1.5
0.0045	-0.003	-0.0233	0.0195	1.6
0.0052	0.0007	-0.0218	0.0045	1.6
0.0045	0.0015	-0.0195	-0.015	1.8
0.003	0.006	-0.0195	-0.0555	1.6
0.0037	0.003	-0.0203	-0.0691	1.8
0.0015	0.0015	-0.0195	-0.0721	1.5
0.0022	0.0015	-0.0143	-0.0233	1.8
0.0015	-0.0053	-0.0083	0.093	1.6
0.0007	-0.0068	-0.003	0.084	1.8
0.0015	0.0007	-0.0015	0.0247	1.8
0.003	0.0045	-0.0046	-0.0548	1.7
0.0015	0.0052	-0.0068	-0.1275	1.8
0.0022	-0.0113	-0.0053	-0.0248	1.8
0.0067	-0.0278	-0.0023	0.1552	2
0.009	-0.0068	0	0.2347	1.9
0.009	0.0015	-0.0008	0.1027	1.9
0.0082	0.0015	0.0007	-0.0135	1.8
0.0037	0.0067	0.003	-0.0008	1.9
0	0	0.0037	0.0532	1.9
-0.0075	0.0007	0.0015	0.1785	2
-0.0181	-0.0158	0.0045	0.1687	1.8
-0.0181	-0.021	0.0052	0.078	2
-0.0143	-0.0218	-0.0015	-0.099	1.8
-0.0098	-0.0158	-0.0008	-0.429	1.8
-0.003	0.0097	0	-0.5475	1.9
0.0045	0.0172	0.0052	-0.1958	2
0.0135	0.012	0.0127	0.033	2.1
0.015	0	0.006	0.0015	2
0.0142	-0.0046	0	0.0577	2.1
0.0157	-0.006	-0.0046	0.105	2.1
0.0142	-0.012	-0.0023	0.18	2.1
0.0127	0.0052	0.0037	-0.0195	1.8
0.0142	0.015	0.0082	-0.0698	2.1
0.0157	-0.0015	0.0082	0.1065	2.1
0.0135	-0.0046	0.0045	0.0562	2.1
0.0127	-0.0053	0.0052	0.0742	2.2
0.0112	-0.0046	0.0075	0.015	2.3
0.009	0.0052	0.009	-0.0728	2.1
0.0067	0.003	0.012	-0.0135	2.1
0.003	0.0037	0.0165	0.0615	2.4
0.0007	0.006	0.0142	0.0555	2.2
-0.0015	0.0052	0.0135	0.045	2.3
-0.0023	0.0045	0.0157	0.0697	2.2
-0.0023	0.0007	0.0097	0.042	2.2
-0.0023	-0.0046	0.009	0.051	2.4
-0.003	-0.0023	0.0075	0.0322	2.3
-0.0023	-0.0015	0.0045	0.0195	2.5
-0.0046	-0.0023	0.0015	0.0255	2.4
-0.0046	-0.0015	-0.0023	0.0105	2.4
-0.0023	-0.0008	-0.003	0.021	2.2
-0.0046	0.0015	-0.003	0.0067	2.4
-0.0046	0.0015	-0.0038	0.0105	2.4
-0.003	0.0022	-0.0046	0.0045	2.4
-0.003	0.003	-0.003	-0.0008	2.3
-0.0015	0.003	-0.003	0.0015	2.5
-0.0023	0.0007	-0.0023	-0.006	2.4
0.0007	0	0.0007	-0.0023	2.5
0	0.0007	0.0015	-0.0083	2.5
-0.003	-0.0008	0.003	-0.006	2.5
-0.003	-0.0008	0.0007	-0.012	2.6
-0.003	-0.0008	0.003	-0.0135	2.3
-0.0023	-0.0015	0.0045	-0.015	2.6
-0.0023	-0.0038	0.0045	-0.0165	2.6
-0.0008	-0.003	0.0052	-0.0158	2.6
-0.0008	-0.003	0.0067	-0.0218	2.6
0.003	-0.003	0.0082	-0.0203	2.6
0.0052	-0.0008	0.0075	-0.0225	2.6
0.0037	0.0007	0.0067	-0.0195	2.8
0.0037	0.0015	0.006	-0.0173	2.6
0.0037	0.0007	0.0045	-0.0143	2.8
0.0037	0.0015	0.0045	-0.0105	2.5
0.0045	0	0.0022	-0.0083	2.9
0.006	-0.0015	0.0007	-0.003	2.8
0.0045	-0.0015	0	-0.0015	2.6
0.006	-0.0015	-0.003	0.0045	2.8
0.006	-0.0023	-0.0015	0.009	2.7
0.0045	-0.0046	-0.0023	0.012	2.8
0.006	-0.0053	-0.0053	0.012	2.7
0.0045	-0.0068	-0.0053	0.009	2.9
0.0052	-0.0068	-0.006	0.0052	2.8
0.0052	-0.0046	-0.0091	0.0007	2.9
0.0015	-0.003	-0.0091	-0.003	2.9
-0.0008	-0.006	-0.0068	-0.0075	3
-0.0008	-0.0068	-0.0053	-0.0091	2.9
-0.0023	-0.006	-0.003	-0.0128	3.2
-0.0023	-0.006	-0.0008	-0.0165	3
-0.0015	-0.0053	-0.0008	-0.0143	3.1
-0.0015	-0.006	0.0007	-0.0165	3.1
-0.0008	-0.0068	-0.0008	-0.0203	3
-0.003	-0.0075	-0.0015	-0.0256	3.3
-0.0015	-0.0068	-0.0015	-0.0278	3.1
0.0015	-0.0046	-0.0015	-0.027	3.2
0.0045	-0.0008	-0.0038	-0.0256	3.2
0.0052	0.003	-0.0046	-0.0165	3.1
0.0067	0.0037	-0.0038	-0.0128	3.3
0.0052	0.0015	-0.003	-0.0233	3.2
0.0007	0.003	-0.0023	-0.0248	3.4
-0.0015	0.0105	0.0015	-0.021	3.4
-0.0068	0.0157	0.006	-0.0165	3.3
-0.0091	0.018	0.0067	0.0337	3.4
-0.0091	0.0067	0.009	0.0757	3.5
-0.0091	-0.003	0.0105	0.0015	3.3
-0.0053	0.0022	0.0105	-0.0488	3.5
-0.0015	0.003	0.0127	-0.0046	3.4
-0.0008	0.0045	0.0157	0.0217	3.7
-0.0046	0.006	0.0165	0.0307	3.5
-0.0113	0.0037	0.0195	-0.0008	3.6
-0.0158	0.0037	0.021	-0.0083	3.7
-0.0165	0.0022	0.0225	-0.003	3.5
-0.0143	0.0037	0.0225	-0.0158	3.7
-0.0113	0.0015	0.0202	-0.0053	3.6
-0.0046	0.0007	0.0232	-0.0135	3.8
0.0015	-0.0008	0.024	-0.0105	3.8
0.0105	-0.003	0.0232	-0.0083	3.8
0.0195	-0.0015	0.0262	-0.0083	3.9
0.024	-0.0008	0.0262	-0.0015	3.9
0.0277	-0.0008	0.027	-0.0046	3.9
0.0307	-0.0015	0.0255	0.0015	3.9
0.033	-0.0008	0.0195	0.0007	3.8
0.0315	-0.0008	0.012	0.0015	4
0.0247	-0.0008	0.0097	0.0007	4.1
0.0217	-0.0046	0.0082	0.0015	3.8
0.0217	-0.0068	0.0052	0.0037	4.1
0.0217	-0.0098	0.0037	-0.0008	3.9
0.024	-0.0105	0.0022	0	4.2
0.0217	-0.0113	-0.0015	0.0007	4.1
0.0217	-0.0128	-0.0046	0.0037	4.1
0.0255	-0.0128	-0.0053	0.0015	4.2
0.0262	-0.012	-0.0046	0.0007	4.2
0.0345	-0.0105	-0.0023	-0.0015	4.3
0.0555	-0.0083	-0.0023	0.0007	4.2
0.0802	-0.0046	-0.0008	0.003	4.1
0.1042	-0.0046	-0.0015	0.003	4.4
0.1185	-0.0105	-0.003	0.0052	4.4
0.1125	-0.0181	-0.0038	0.0075	4.4
0.0982	-0.0195	-0.0046	0.0105	4.4
0.0802	-0.0181	-0.0075	0.0075	4.3
0.0637	-0.0135	-0.012	0.0007	4.5
0.0502	-0.0128	-0.0143	0	4.4
0.0352	-0.0128	-0.015	0.0007	4.5
0.0202	-0.0098	-0.015	0	4.6
0.0037	-0.0091	-0.0158	0.0022	4.5
-0.0053	-0.0053	-0.0173	0.0045	4.6
-0.0083	-0.0008	-0.0173	0.0067	4.5
-0.0158	0.0015	-0.0181	0.0067	4.6
-0.0248	0.0007	-0.0173	0.0052	4.7
-0.033	0.0015	-0.0188	0.0022	4.7
-0.042	0.0007	-0.0203	0	4.7
-0.0428	-0.0008	-0.0203	-0.0046	4.7
-0.0443	-0.0008	-0.0173	-0.0053	4.6
-0.0465	-0.003	-0.015	-0.0046	4.9
-0.0465	-0.003	-0.0143	-0.0038	4.7
-0.0488	-0.0046	-0.0143	-0.0023	4.9
-0.054	-0.003	-0.0113	-0.0015	4.9
-0.057	-0.0023	-0.0098	-0.0015	4.9
-0.0593	-0.0038	-0.0091	-0.0008	4.9
-0.0593	-0.0046	-0.0083	0.0045	4.9
-0.0563	-0.0068	-0.0091	0.0067	5
-0.0533	-0.0083	-0.0083	0.0097	5.1
-0.054	-0.0105	-0.0091	0.0142	5.2
-0.054	-0.0113	-0.0083	0.015	5.1
-0.0533	-0.0143	-0.0075	0.018	5.2
-0.0495	-0.0173	-0.0075	0.0142	5.2
-0.042	-0.0173	-0.0068	0.0097	5.3
-0.0383	-0.012	-0.006	0.0097	5.3
-0.033	-0.0053	-0.0038	0.0075	5.5
-0.0285	0	-0.003	0.0045	5.5
-0.0233	0.0082	-0.0015	0.0067	5.4
-0.0143	0.0112	-0.003	0.0277	5.6
-0.0068	0.0127	-0.0023	0.0367	5.4
-0.0038	0.0195	-0.0008	0.012	5.8
-0.0053	0.0262	-0.0023	0.0075	5.7
-0.0091	0.0277	-0.0008	0.0142	5.8
-0.0105	0.0262	-0.0008	0.003	5.8
-0.0091	0.0255	0.003	0.003	5.9
-0.0068	0.0277	0.0045	-0.0015	6
-0.0008	0.027	0.0037	-0.0075	6.1
0.0067	0.0232	0.0045	-0.0053	6.1
0.0157	0.0225	0.0045	-0.0105	6.4
0.027	0.0217	0.0045	-0.0091	6.3
0.0367	0.0172	0.0045	-0.0083	6.3
0.0442	0.0165	0.006	-0.0038	6.4
0.0517	0.0142	0.0045	-0.0015	6.4
0.0577	0.012	0.0045	-0.0038	6.7
0.0637	0.0142	0.0045	-0.006	6.6
0.0675	0.0127	0.003	-0.0105	6.7
0.0705	0.0082	0.0007	-0.0083	6.9
0.0727	0.0052	0.0015	-0.0091	6.7
0.0712	0.0052	0.0015	-0.0098	7
0.0682	0.0052	0.0007	-0.012	6.9
0.063	0.0045	0.0007	-0.0135	7.1
0.0547	0.003	0.0007	-0.0083	7
0.048	0.0015	0.0022	-0.0068	7.2
0.0427	0.003	0.0015	-0.003	7.2
0.036	0.0037	0.0007	-0.003	7.2
0.0345	0.0045	0.0007	-0.0015	7.3
0.033	0.0052	0.0015	-0.0038	7.6
0.0307	0.006	0.0007	-0.0046	7.5
0.0285	0.006	0.0007	0.0007	7.6
0.0255	0.0015	0.0007	0.0015	7.6
0.0202	0.0037	-0.0008	0.0007	7.9
0.0172	0.0052	0	0.0007	8.1
0.012	0.0037	-0.0023	-0.003	7.9
0.0052	0	-0.0046	-0.0053	8.1
-0.0008	-0.0068	-0.003	-0.0091	8.1
-0.0083	-0.0091	-0.0015	-0.0181	8.2
-0.012	-0.0091	-0.0008	-0.0195	8.4
-0.0135	-0.003	-0.0008	-0.0158	8.4
-0.0188	0.0052	0.0015	-0.0158	8.5
-0.024	0.0052	0.0015	-0.0158	8.7
-0.0315	0.003	0.0037	-0.0158	8.7
-0.0383	0.0007	0.0075	-0.0143	8.7
-0.0428	0.0015	0.006	-0.0165	8.7
-0.0488	0.0015	0.0045	-0.0173	9.1
-0.0525	-0.0023	0.0052	-0.0135	9.1
-0.0593	-0.0038	0.0037	-0.0075	9.3
-0.063	-0.0053	0.0045	-0.0023	9.4
-0.063	-0.0068	0.003	-0.0008	9.3
-0.063	-0.0083	0.0037	-0.0015	9.5
-0.063	-0.012	0.0037	0	9.8
-0.063	-0.0135	0.003	0.0015	9.7
-0.063	-0.0128	0.003	-0.0008	10.1
-0.0608	-0.0098	0.0067	-0.0023	10.1
-0.0548	-0.0068	0.0075	-0.0038	10.3
-0.0518	-0.0038	0.0052	-0.0053	10.3
-0.0548	-0.0008	0.0015	-0.0015	10.4
-0.06	0	-0.0015	-0.0008	10.5
-0.0638	-0.0008	-0.003	0.0007	10.7
-0.0653	0.0007	-0.003	0	10.8
-0.063	0.0007	-0.0023	-0.0038	11.1
-0.0533	0.0007	-0.0015	-0.0083	10.9
-0.0488	0.0007	0.0037	-0.012	11.3
-0.0465	0.0007	0.0037	-0.012	11.4
-0.0436	0.0015	0.0045	-0.015	11.6
-0.0398	0.0007	0.0067	-0.0165	11.7
-0.0315	-0.0023	0.0052	-0.0165	11.8
-0.0233	-0.0098	0.0067	-0.0128	12.1
-0.0128	-0.012	0.0067	-0.0075	12.1
-0.0038	-0.006	0.0067	0.0007	12.2
0.0007	-0.0075	0.006	0.0397	12.5
-0.0008	-0.0083	0.0052	0.066	12.7
-0.0008	-0.0038	0.0067	0.0232	12.8
0.0015	-0.0038	0.0045	0.003	12.9
0.0022	-0.0075	0.003	0.0135	13
0.0052	-0.012	0.003	0.0082	13.3
0.009	-0.0128	0.0045	0.0112	13.5
0.0157	-0.0105	0.0037	0.0067	13.6
0.0195	-0.003	0	0.0105	13.9
0.0165	-0.0015	-0.003	0.0157	13.9
0.0105	-0.0015	-0.003	0.0135	14.2
0.0082	0.0007	-0.003	0.0292	14.3
0.012	-0.0008	-0.0053	0.0397	14.5
0.0142	0.0007	-0.0015	0.0427	14.7
0.0157	0	-0.0015	0.0502	14.9
0.0187	-0.0008	0	0.0547	15.2
0.0217	0.0007	0	0.0517	15.3
0.0195	0.0015	-0.0015	0.048	15.6
0.0187	0.003	0.0007	0.0375	15.8
0.018	0.0015	0.0007	0.0232	15.8
0.0142	0.0007	0.0022	0.012	16
0.0142	0.006	0.0015	-0.0091	16.4
0.0127	0.012	0.0015	-0.0256	16.4
0.0127	0.0142	0.0022	-0.0413	16.8
0.0165	0.0082	0.0015	-0.0585	16.7
0.018	-0.0015	0.0015	-0.0765	17
0.018	-0.0083	0.0022	-0.0871	17.3
0.018	-0.0046	0.0015	-0.0938	17.3
0.0157	0.0022	0.0007	-0.1013	17.7
0.0157	0.0052	0.0015	-0.0953	17.7
0.0157	0.0067	0.0015	-0.0885	18
0.0165	0.012	-0.0008	-0.0818	18.2
0.0165	0.0165	-0.003	-0.0721	18.3
0.0157	0.018	-0.0053	-0.0675	18.5
0.0142	0.0202	-0.0053	-0.0743	18.6
0.012	0.0217	-0.0068	-0.0878	18.9
0.0097	0.0232	-0.0105	-0.0968	19.1
0.0082	0.0255	-0.012	-0.1013	19.3
0.0067	0.0247	-0.0113	-0.0975	19.6
0.0022	0.024	-0.0128	-0.0668	19.7
0.0007	0.0202	-0.0105	-0.0143	19.8
0.0015	0.0157	-0.0083	-0.0593	20.2
-0.0015	0.012	-0.0083	-0.1313	20.1
-0.0038	0.0052	-0.003	-0.0691	20.7
-0.0015	0.0052	-0.0015	-0.063	20.8
-0.0046	0.0082	-0.0046	-0.0968	21
-0.0068	0.0082	-0.0046	-0.0533	21.3
-0.0091	0.0075	-0.0023	-0.024	21.4
-0.0113	0.003	-0.0015	0.0442	21.9
-0.0105	-0.0046	-0.0023	0.048	22
-0.0091	0.003	-0.0015	0.0105	22.3
-0.0053	0.0067	0	0.0397	22.5
-0.0008	0.0052	0.0015	0.0427	22.8
0.006	0.003	-0.0008	0.054	22.9
0.0105	0	-0.0015	0.0592	23.3
0.0135	-0.006	-0.0015	0.0532	23.5
0.0142	-0.0203	-0.0053	0.069	23.7
0.0157	-0.0225	-0.0068	0.0742	23.7
0.0157	-0.0233	-0.0105	0.087	24.1
0.0142	-0.0285	-0.0128	0.093	24.4
0.009	-0.027	-0.0128	0.0967	24.5
0.006	-0.03	-0.0135	0.093	25
0.0067	-0.0308	-0.0143	0.09	25.3
0.009	-0.0285	-0.0158	0.0937	25.5
0.0112	-0.0278	-0.0143	0.0877	25.6
0.0127	-0.0256	-0.0158	0.087	25.9
0.0172	-0.027	-0.0165	0.0975	26.4
0.018	-0.027	-0.0128	0.1215	26.5
0.018	-0.0233	-0.0143	0.1147	26.7
0.0187	-0.0195	-0.015	0.0817	27.1
0.0165	-0.0225	-0.015	0.081	27.2
0.012	-0.0278	-0.015	0.0675	27.6
0.006	-0.0285	-0.0143	0.0555	27.6
0.0045	-0.0256	-0.0143	0.0607	28
0.0105	-0.0181	-0.012	0.0525	28.3
0.024	-0.0218	-0.0113	0.0517	28.5
0.0352	-0.0285	-0.0068	0.0427	28.8
0.045	-0.0293	-0.003	0.039	28.8
0.0532	-0.0308	-0.0008	0.0375	29.3
0.0622	-0.0308	0.0037	0.0315	29.5
0.072	-0.0323	0.0097	0.0315	29.5
0.0712	-0.0346	0.0127	0.0247	29.7
0.072	-0.0383	0.0157	0.021	30.2
0.0877	-0.042	0.0195	0.0142	30.4
0.1155	-0.048	0.0217	0.0082	30.5
0.1402	-0.054	0.024	0.0015	30.7
0.15	-0.0563	0.024	-0.0023	31
0.1537	-0.0555	0.0195	-0.0015	31.2
0.1455	-0.054	0.0165	-0.003	31.3
0.126	-0.0503	0.0142	-0.006	31.9
0.0967	-0.0488	0.0127	-0.0091	31.8
0.0705	-0.0436	0.009	-0.0083	32.2
0.0555	-0.039	0.0045	-0.0105	32.2
0.0457	-0.0353	0.0045	-0.0143	32.6
0.0382	-0.027	0.0037	-0.0203	32.8
0.0352	-0.0195	0.0052	-0.027	33
0.0322	-0.0105	0.0052	-0.033	33.3
0.033	-0.0015	0.0022	-0.039	33.4
0.036	0.0015	0.003	-0.0428	33.6
0.0367	0.009	0.0015	-0.0428	33.8
0.033	0.0195	-0.0015	-0.0375	34.2
0.0255	0.027	-0.0008	-0.033	34.4
0.0127	0.0337	-0.0008	-0.0293	34.5
-0.0008	0.0382	-0.0015	-0.0218	34.6
-0.0173	0.0405	-0.003	-0.0143	35.1
-0.033	0.0442	-0.0015	-0.0128	35.1
-0.0458	0.0465	-0.0008	-0.015	35.5
-0.0638	0.048	-0.0015	-0.0293	35.8
-0.0803	0.0465	0.0007	-0.0375	35.8
-0.093	0.0442	0.0007	-0.0158	36.2
-0.1028	0.0457	0.0015	-0.0188	36.2
-0.1103	0.051	0.0007	-0.0293	36.8
-0.1163	0.054	0.0007	0.0337	36.9
-0.1245	0.051	0.0015	0.09	37.3
-0.1335	0.051	0.0022	0.0532	37.6
-0.1328	0.051	0.0015	0.0127	37.9
-0.129	0.045	0.0015	0.0202	38.1
-0.1193	0.0465	0.0037	0.0202	38.3
-0.1013	0.0487	0.0067	0.0217	38.5
-0.0893	0.0442	0.006	0.021	38.8
-0.096	0.042	0.0075	0.0232	38.9
-0.09	0.0382	0.0067	0.0292	39.1
-0.0713	0.0337	0.0067	0.024	39.6
-0.06	0.0307	0.0075	0.0142	39.5
-0.0428	0.027	0.0067	0.0112	40
-0.0413	0.0255	0.0045	0.018	40.2
-0.0428	0.0232	0.0037	0.0187	40.5
-0.0398	0.0232	0.0015	0.0217	40.8
-0.0368	0.024	0.0015	0.0277	40.8
-0.0308	0.024	0.0045	0.0157	41.2
-0.033	0.0202	0.0015	-0.0143	41.4
-0.0323	0.0165	0.0015	-0.0465	41.5
-0.024	0.0157	0.003	-0.03	41.8
-0.0091	0.0082	0	0.0007	41.9
0.009	0.0007	-0.0023	0.0007	42.2
0.0097	-0.0015	-0.0008	-0.0023	42.5
0.0075	-0.0008	0.0022	0.0007	42.6
0.0112	0.0022	-0.0008	0.0277	42.9
0.0255	-0.003	-0.0015	0.0075	43
0.0427	-0.003	0	-0.0563	43.2
0.057	0.0015	0.0007	-0.0533	43.6
0.0577	0.0007	0.0007	-0.0968	43.5
0.0555	0.0015	0.0007	-0.1381	43.7
0.054	-0.0046	-0.003	-0.054	43.9
0.0502	-0.0083	-0.0068	-0.0518	44.3
0.051	-0.0083	-0.0046	-0.0518	44.3
0.0465	-0.0068	-0.003	-0.0308	44.7
0.039	-0.0083	-0.0083	-0.0675	44.8
0.0315	-0.0105	-0.0075	-0.0495	45
0.024	-0.012	-0.0068	-0.0608	45.1
0.0187	-0.0158	-0.0068	-0.0593	45.5
0.0195	-0.0143	-0.0053	-0.0578	45.4
0.0165	-0.0165	-0.0046	-0.0698	45.9
0.0052	-0.0181	-0.006	-0.0608	45.9
-0.0038	-0.0165	-0.0075	-0.066	46.2
-0.0105	-0.0173	-0.0091	-0.0555	46.4
-0.0128	-0.0158	-0.0091	-0.0548	46.6
-0.0105	-0.015	-0.0091	-0.0511	46.8
-0.0083	-0.0143	-0.0105	-0.0473	47
-0.0083	-0.0143	-0.012	-0.0458	47.2
-0.0053	-0.0143	-0.0128	-0.0428	47.5
-0.0158	-0.0158	-0.0105	-0.0443	47.6
-0.0413	-0.0158	-0.0105	-0.0405	47.9
-0.0615	-0.0143	-0.012	-0.0405	48
-0.0608	-0.0158	-0.0128	-0.0315	48.3
-0.0495	-0.0128	-0.0143	-0.0315	48.5
-0.0443	-0.0128	-0.0158	-0.0308	48.6
-0.045	-0.0143	-0.0128	-0.0278	48.9
-0.0443	-0.012	-0.012	-0.0293	49.1
-0.0375	-0.0113	-0.0128	-0.0225	49.2
-0.0293	-0.0091	-0.0091	-0.0188	49.5
-0.0203	-0.0068	-0.0075	-0.0135	49.4
-0.0053	-0.0046	-0.0053	-0.0105	49.8
0.0157	-0.0038	-0.0068	-0.0068	49.9
0.036	-0.0015	-0.0091	-0.0068	50
0.0367	-0.0015	-0.0068	-0.0023	50.3
0.036	-0.003	-0.0023	0.0067	50.4
0.0405	-0.0015	0.0082	0.012	50.8
0.0525	-0.0015	0.0217	0.0195	50.8
0.0712	-0.0015	0.0322	0.0225	51
0.09	-0.0046	0.0465	0.0255	51.1
0.0945	-0.0068	0.0615	0.0292	51.4
0.084	-0.0053	0.072	0.0337	51.4
0.0772	-0.0023	0.0757	0.0367	51.7
0.069	-0.0008	0.078	0.0405	51.7
0.063	0.0015	0.0765	0.0457	52
0.0555	0.0037	0.069	0.0442	52.1
0.0457	0.0052	0.0555	0.0457	52.1
0.0315	0.0067	0.042	0.0495	52.5
0.015	0.003	0.0255	0.0502	52.4
0.0015	0.0007	0.009	0.0472	52.8
-0.0113	0.0007	-0.0083	0.0465	52.6
-0.0233	0	-0.0256	0.0435	53
-0.039	0.0015	-0.0436	0.039	53.1
-0.042	0.0015	-0.0638	0.036	53.4
-0.039	0.0007	-0.0803	0.033	53.3
-0.0443	-0.0008	-0.0938	0.0352	53.4
-0.0495	0.0007	-0.105	0.0352	53.5
-0.0428	-0.0015	-0.0885	0.0345	53.7
-0.024	-0.0046	-0.006	0.0345	53.6
-0.006	-0.0053	0.1335	0.0345	53.9
0.0202	-0.0053	0.2782	0.0345	54
0.0382	-0.0023	0.414	0.0345	54.1
0.051	-0.0023	0.5077	0.0345	54.4
0.0615	-0.0023	0.5235	0.0322	54.2
0.0562	0.0007	0.4807	0.0292	54.5
0.0495	-0.0008	0.393	0.0285	54.4
0.0015	-0.0008	0.2745	0.024	54.7
-0.0706	-0.0015	0.1537	0.0202	54.8
-0.0938	-0.003	0.042	0.018	54.8
-0.105	-0.003	-0.0398	0.018	55
-0.129	-0.0046	-0.0795	0.018	54.9
-0.1433	-0.0053	-0.0893	0.018	55.1
-0.1538	-0.0038	-0.0743	0.018	55.2
-0.1478	-0.0008	-0.0488	0.0187	55.2
-0.1283	0.0007	-0.0338	0.018	55.3
-0.1088	0.0015	-0.045	0.0165	55.5
-0.09	0.0015	-0.084	0.0142	55.5
-0.0773	0.003	-0.1373	0.012	55.7
-0.0728	0.003	-0.1875	0.0105	55.7
-0.0653	0.0045	-0.222	0.0075	55.8
-0.054	0.003	-0.2393	0.0045	55.9
-0.0428	0.0015	-0.24	-0.0008	55.8
-0.0315	0	-0.231	-0.0023	56.2
-0.0278	-0.0015	-0.228	-0.0046	55.9
-0.0293	-0.0008	-0.231	-0.0068	56.3
-0.0308	0.0007	-0.2295	-0.0075	56.2
-0.0263	0.0007	-0.2123	-0.0083	56.3
-0.0091	-0.0008	-0.1628	-0.0083	56.4
0.0067	0	-0.0795	-0.0098	56.5
0.0165	0	0.0337	-0.0098	56.5
0.021	-0.0008	0.1545	-0.0083	56.6
0.0217	-0.0008	0.213	-0.006	56.4
0.0352	-0.0015	0.087	-0.0068	56.8
0.048	-0.0053	-0.3053	-0.0083	56.6
0.06	-0.0091	-0.8205	-0.0113	56.7
0.0765	-0.0098	-0.9525	-0.0143	56.7
0.0862	-0.0105	-0.7148	-0.0143	56.7
0.0667	-0.012	-0.5858	-0.0143	56.8
0.0517	-0.0128	-0.4081	-0.0128	56.7
0.0502	-0.012	-0.2258	-0.0158	57
0.0495	-0.0091	-0.1388	-0.0195	56.8
0.0525	-0.0068	-0.0323	-0.0181	56.7
0.0405	-0.006	0.0067	-0.0195	57
0.0345	-0.006	0.069	-0.021	56.8
0.0307	-0.0053	0.1117	-0.0203	56.8
0.0292	-0.0015	0.1552	-0.0181	57
0.0277	0.003	0.2025	-0.0158	56.8
0.0232	0.003	0.2265	-0.0165	56.9
0.018	0.003	0.258	-0.0165	56.9
0.009	0.0015	0.267	-0.0173	56.8
0.0007	0.0007	0.2812	-0.0181	57.1
-0.012	-0.0015	0.279	-0.0165	57
-0.0256	-0.0038	0.2797	-0.0165	57.2
-0.0375	-0.0083	0.2722	-0.0188	57.1
-0.0346	-0.0105	0.2617	-0.0188	57.1
-0.0203	-0.0113	0.2527	-0.0195	57.1
-0.0075	-0.0113	0.2362	-0.0195	57
0.0007	-0.0091	0.2242	-0.0203	57
-0.0053	-0.0091	0.1987	-0.0233	56.9
-0.0038	-0.0068	0.1807	-0.0256	57
0.0105	-0.006	0.1612	-0.0278	57.1
0.0015	-0.0053	0.141	-0.03	56.8
-0.0143	-0.0008	0.1222	-0.0308	56.9
-0.0195	0.0022	0.1057	-0.0323	56.8
-0.0293	0.006	0.0855	-0.0338	56.7
-0.0511	0.0097	0.0615	-0.0315	57
-0.12	0.012	0.045	-0.0293	56.6
-0.213	0.0157	0.0232	-0.0248	56.7
-0.261	0.0172	0.0105	-0.021	56.7
-0.297	0.018	0.0007	-0.0188	56.6
-0.3615	0.0172	-0.0075	-0.0165	56.5
-0.3953	0.018	-0.015	-0.0128	56.2
-0.2866	0.018	-0.021	-0.012	56.5
-0.0075	0.0165	-0.0233	-0.0105	56.2
0.3112	0.018	-0.0308	-0.0113	56.2
0.5497	0.0172	-0.0293	-0.0135	56.2
0.6952	0.018	-0.033	-0.0165	56.1
0.7627	0.0172	-0.0346	-0.0173	55.9
0.7635	0.0172	-0.0315	-0.003	55.9
0.6945	0.0195	-0.0315	0.0202	55.7
0.5872	0.0172	-0.0308	0.027	55.7
0.5145	0.015	-0.0293	0.0322	55.7
0.4612	0.0142	-0.0278	0.0405	55.3
0.3952	0.0157	-0.0338	0.0367	55.4
0.3457	0.0135	-0.0353	0.0337	55.3
0.2947	0.0127	-0.0368	0.0322	55.3
0.252	0.0127	-0.0405	0.0277	55.1
0.1957	0.0082	-0.042	0.0225	55
0.1365	0.0015	-0.0458	0.018	54.9
0.117	-0.0046	-0.042	0.0157	54.8
0.0817	-0.0053	-0.039	0.0105	54.7
0.0555	-0.0075	-0.0413	0.0082	54.5
0.0592	-0.0083	-0.0383	0.0052	54.4
0.0412	-0.0083	-0.0346	0.0045	54.4
0.009	-0.0068	-0.0308	0.006	54
0.003	-0.0068	-0.0308	0.0052	54.1
-0.0158	-0.006	-0.0323	-0.0008	53.9
-0.0458	-0.006	-0.0308	-0.0098	53.6
-0.0728	-0.0083	-0.0293	-0.015	53.6
-0.1178	-0.0068	-0.0256	-0.0203	53.4
-0.1396	-0.0046	-0.0233	-0.027	53.4
-0.1823	-0.0015	-0.0218	-0.003	53.2
-0.2295	-0.0046	-0.0173	0.057	52.9
-0.2423	-0.0105	-0.0128	0.0675	53
-0.261	-0.003	-0.0113	0.012	52.7
-0.2858	-0.0008	-0.0105	-0.0015	52.5
-0.3105	-0.0015	-0.0068	-0.0075	52.5
-0.3406	0	-0.0053	-0.0181	52.2
-0.3675	-0.003	-0.0046	-0.012	52
-0.378	-0.0008	-0.0008	-0.0218	52
-0.3765	-0.003	-0.0008	-0.0181	51.7
-0.369	-0.0015	0.0022	-0.0233	51.7
-0.3608	0.0007	0.003	-0.0248	51.4
-0.3473	-0.0008	0.0045	-0.0195	51.3
-0.324	-0.0008	0.0067	-0.0165	51
-0.3143	-0.003	0.0045	-0.012	50.9
-0.3068	-0.0046	0.0007	-0.0195	50.8
-0.2948	-0.0015	0.0007	-0.0218	50.4
-0.2843	0.0007	0.0015	-0.0248	50.4
-0.273	-0.0008	0	-0.0195	50.1
-0.2498	0.0052	0.0015	0.0037	49.8
-0.2198	0.0067	0.0045	0.0382	49.8
-0.18	0.0015	0.0082	0.0577	49.6
-0.1448	0.0007	0.0082	0.0772	49.4
-0.1193	0.003	0.0067	0.1035	49.3
-0.0818	0.006	0.006	0.0712	48.9
-0.0548	0.0045	0.006	0.0165	49
-0.03	0.0015	0.006	0.0232	48.6
-0.003	-0.0083	0.0022	-0.063	48.2
0.0255	-0.0181	0.0045	-0.2528	48.1
0.0562	-0.0353	0.006	-0.09	48
0.078	-0.0615	0.0067	0.1132	47.9
0.093	-0.0706	0.0157	-0.0495	47.4
0.1005	-0.0533	0.0142	-0.0098	47.6
0.1102	-0.0091	0.009	0.0802	47.1
0.111	0.012	0.0082	0.0127	46.9
