File Name: dePie.log
Channel 4: 'Recto Femoral', 33514 values, engineering units: mV, no filters.
Channel 5: 'Biceps Femoral', 33514 values, engineering units: mV, no filters.
Channel 6: 'Vasto Medial', 33514 values, engineering units: mV, no filters.
Channel 7: 'EMG Semitendinoso', 33514 values, engineering units: mV, no filters.
Channel 8: 'Flexo-Extension', 33514 values, engineering units: deg, no filters.

0.0052	-0.0015	0	0.0007	0.6
0.0037	-0.0046	-0.0008	0.0007	0.9
0.0015	-0.0023	-0.0008	0	0.7
0.0007	0	-0.0015	-0.0015	0.8
0.0015	0.0007	-0.0015	-0.0046	0.8
0.0022	-0.0008	0.0007	-0.0046	0.8
0.003	0.0007	0.003	-0.0015	0.8
0.0052	-0.0008	0.0015	-0.0008	0.8
0.009	-0.0008	0.003	0	0.9
0.0067	0	0.0045	-0.0008	0.8
0.006	-0.0008	0.003	-0.0008	0.8
0.0045	-0.0008	0.0015	-0.0015	0.9
0.0045	-0.0015	0.0007	-0.0046	0.9
0.0007	0.0007	-0.0008	-0.0023	0.9
-0.0008	-0.0008	-0.0008	0.0007	0.7
-0.0015	-0.0008	-0.0008	0.0007	0.9
-0.003	-0.0008	-0.0015	-0.0008	0.6
-0.003	-0.0008	-0.0015	0	1
-0.0023	-0.0008	-0.0008	0.0007	0.7
0.0015	-0.0008	-0.0023	0	0.9
0.003	0.0007	0.0007	0	0.7
0.003	-0.0015	0.0007	-0.0015	0.9
0.003	0	0.0007	-0.0023	0.8
0.003	0.0007	0.003	-0.0015	0.8
0.0022	-0.0008	0.0022	-0.0023	0.9
-0.0008	-0.0008	0.003	-0.0008	0.8
-0.0008	-0.0023	0.0037	0.0015	0.9
-0.0015	-0.0015	0.0045	0.0022	0.9
-0.0008	-0.0023	0.003	0.0015	0.8
-0.0008	-0.0008	0.0015	-0.0008	0.9
-0.0015	-0.0008	0.0045	0.0007	0.8
0.0015	-0.0023	0.0037	0.0007	0.9
0.0037	-0.0008	0.003	0.0022	0.9
0.003	-0.0015	0.0037	0	0.9
0.0045	-0.0008	0.0037	-0.0023	0.8
0.0052	0.0007	0.0015	-0.0015	0.8
0.0067	0.0022	0.0015	-0.0015	0.8
0.0052	0.0037	0.0007	-0.0038	0.8
0.0045	0.0015	0	-0.0015	0.8
0.003	0.0007	0	0.0007	0.9
0.0052	-0.0008	-0.0015	0.0007	0.6
0.0075	0.0007	-0.0008	-0.0008	1
0.0067	-0.0008	-0.0015	-0.0008	0.9
0.0045	-0.0015	0	-0.0008	0.8
0.003	-0.0008	-0.0008	-0.0008	0.9
0.003	-0.003	-0.0008	0.0007	0.8
0.003	-0.0008	0.0007	0.0007	0.9
0.003	-0.0023	0.0015	-0.0008	0.9
0.0015	0	0.0015	0.0007	0.9
0.0022	0.0015	0.0007	0.0007	0.9
0.003	0.0007	0.003	0.003	1
0.0007	0.0007	0.0015	0.0015	0.9
0.0007	-0.0008	0.0015	0	0.7
-0.0008	-0.0015	0.0022	0.0007	1.1
0	-0.0008	0	0.0015	0.8
-0.0015	-0.0015	0.0015	0.0007	0.9
-0.003	-0.0038	0.0022	-0.0008	1.1
-0.0023	-0.0015	0	0	0.9
-0.0015	-0.0008	-0.0008	-0.0008	0.9
-0.0008	-0.0008	-0.0023	-0.0008	0.9
-0.0008	-0.0008	-0.0015	0.0007	1
-0.0008	-0.0008	-0.0015	0.0007	0.8
0.0007	0	-0.0023	-0.0015	1
0.0007	0.0015	-0.003	-0.0015	0.8
0.0007	0.0015	0	-0.0038	1
0	0	0.0007	-0.006	0.8
0.0007	-0.0008	0	-0.0046	1.3
0.0037	0	0	-0.0015	0.9
0.003	0.0007	0.0007	-0.0008	0.9
0.0015	0.0007	0.0007	0.0007	0.9
0.0007	-0.0015	0	0.0015	1
0	0	0.0015	0.0007	0.9
-0.0008	0.0007	0.0015	0.0007	0.9
-0.0008	-0.0015	0.0015	0	0.8
0.0015	-0.0015	0.003	0	0.9
0.0015	0.0007	0.0007	-0.003	1.1
0.0015	0.0007	-0.0008	-0.0008	0.7
0.0007	-0.0015	-0.0008	0.0007	0.9
0	-0.0023	-0.0008	-0.0008	0.7
0.0015	-0.0023	0.0007	-0.0008	0.9
0.0015	-0.0023	0.0015	-0.0023	0.7
0.0015	-0.0015	-0.0023	-0.0008	0.9
0.0015	-0.0023	-0.0015	0.0007	0.9
0.0015	-0.0023	-0.0015	-0.0008	1
0.003	-0.003	-0.0015	-0.0008	0.9
0.0015	-0.0023	-0.0015	-0.0015	0.9
0.003	-0.0015	-0.0008	0	1
0.0022	-0.0008	0	-0.0008	0.9
0.0015	-0.0015	0	-0.0008	0.9
0.0007	-0.0015	-0.0008	-0.0015	0.9
-0.0008	-0.0008	-0.0015	-0.0023	0.9
0	0	-0.0015	0.0007	0.9
0	0.0007	-0.0008	-0.0008	0.8
0.0007	-0.0008	-0.0023	-0.0015	0.9
0.0007	-0.0023	-0.0015	0	0.9
0.0015	-0.0015	0.0007	0.0007	1
0.0022	-0.0015	0.0022	0.0022	0.9
0.0015	-0.0008	0.0037	0.0015	1
0.003	-0.0008	0.0052	0	0.9
0.0037	-0.0015	0.0067	-0.0008	0.9
0.0022	-0.0008	0.0052	0.0007	0.8
0.003	0	0.003	0.0007	0.9
0.0015	-0.0008	0.0015	0.0015	0.9
0.0007	0.0007	0.0015	0.0022	0.9
0.0015	0.0007	0.003	0.0007	0.9
0.0007	0.0007	0.0007	0.0007	0.9
0.0007	0.0015	0.0007	-0.0008	1
0.0007	0.0007	0.0007	-0.0015	0.7
0.0007	0.0015	0.0007	-0.0008	1.1
0.0015	0.0007	0.003	-0.0015	0.7
0.0007	0	0.0037	-0.0008	1
0.0007	0	0.0022	0	0.9
0.0007	0.0007	0.0022	-0.0015	1
0	-0.0008	0.0022	-0.0023	0.9
0	-0.0008	0.0007	-0.0023	0.9
0.0007	0.0007	-0.0008	-0.003	1
0.0015	0.0007	0.0007	-0.003	0.9
0.0015	0.0007	-0.0008	-0.003	0.9
0.0022	0.0007	0.0007	-0.0015	0.9
0.0015	0.0015	0.0007	0	0.9
0.0022	0.0007	-0.0008	-0.0015	0.9
0.003	0.0007	0.0007	-0.0015	1
0.0022	-0.0015	0.0007	-0.0015	0.9
0.003	-0.0015	-0.0008	-0.0015	0.9
0.0037	-0.0008	0.0007	0.0015	1.1
0.003	-0.0008	0	0.0007	0.9
0.003	0.0007	-0.0008	0	1
0.0015	0	0	0.0015	0.9
0.0015	-0.0008	0.0007	0.0015	1
0.003	-0.0015	-0.0008	0.0015	0.8
0.0015	-0.0015	0.0007	0.0015	1.1
0.0037	-0.0008	0.0007	0	0.9
0.0052	-0.0008	0.0015	-0.0015	1.2
0.0052	0.0007	0.003	-0.0023	0.9
0.0037	0	0.0022	-0.003	1
0.003	-0.0008	0.0015	-0.003	1.1
0.0037	-0.0015	0.0015	-0.0008	1
0.0022	-0.003	0.0015	-0.0015	0.9
0.0007	-0.003	0.0022	-0.0023	0.9
0.0015	-0.0038	0.003	-0.0038	1.1
0.0022	-0.0015	0.0045	-0.0023	0.9
0.003	-0.0015	0.0052	-0.0015	1.1
0.0037	-0.0015	0.0037	-0.0023	0.9
0.0052	-0.0023	0.0015	0	1.1
0.0037	-0.0008	0.0015	0	0.8
0.0037	-0.0008	0.0007	-0.0008	1
0.0052	0	0.0015	0	0.9
0.0052	0	-0.0015	0	1.1
0.0037	0.0007	-0.0023	-0.0008	1
0.003	0.0007	-0.0015	-0.0008	1.1
0.003	-0.0008	-0.0015	0.0007	1
0.0037	0.0007	-0.0015	0.0007	1
0.0037	-0.0008	-0.0015	0.0007	1
0.006	0.0022	0.0007	0.0015	1.1
0.0075	0.0022	0.0022	0.0015	1
0.0067	0.0007	0.0007	0.0015	0.9
0.006	-0.0008	-0.0008	0.0007	1.1
0.006	-0.0008	-0.0015	0	1.1
0.0067	-0.0008	-0.0008	0.0007	1.1
0.0067	-0.0008	-0.0008	0.0007	0.9
0.0075	-0.0008	-0.0008	0.0007	1.1
0.0075	-0.0015	-0.0008	0.0007	1.2
0.0075	-0.0015	-0.0015	0	1
0.0045	-0.0008	-0.0023	0	1.2
0.003	-0.0008	-0.0015	-0.0008	1
0.0015	-0.0015	-0.0008	-0.0023	1.2
0.0007	0.0007	-0.0008	0.0007	1
0.0022	0.0015	0	0.0007	1
0.003	-0.0008	-0.0008	-0.0008	1.1
0.0015	0.0007	-0.0015	-0.0008	0.9
0.0015	0.0007	-0.003	-0.0008	1
0.0022	0.0007	-0.0008	-0.0008	1.1
0.0015	-0.0015	0.0015	-0.0023	1.1
0.0015	-0.0015	0.0007	-0.0023	1.1
0.0022	-0.0023	0	-0.0015	1.2
0.0015	-0.0008	0	-0.0015	1.1
0.0007	-0.0008	0	-0.0015	1.1
0.0007	-0.0008	0.0037	-0.003	0.9
0.0007	0.0007	0.0052	-0.0008	1.3
0.0007	0	0.0052	0.0007	1
0.0015	0.0022	0.0045	-0.0008	1.3
0.0007	0.0007	0.003	-0.0008	0.9
0.0007	0	0.0015	-0.0008	1.2
0.003	0.0007	0.0037	-0.0008	1
0.0045	-0.0008	0.006	-0.0015	1.1
0.003	-0.0015	0.0052	-0.0015	1.1
0.0045	-0.003	0.0045	-0.003	1
0.0045	-0.0023	0.003	-0.0023	1.2
0.0045	-0.0015	0	-0.0023	0.9
0.0037	-0.0008	-0.0008	-0.0008	1.2
0.003	-0.0008	-0.0008	0.0015	0.9
0.003	-0.0015	0	0.0022	1.3
0.003	-0.0015	0.0015	0.0015	0.9
0.0015	-0.0015	-0.0008	0.003	1.3
0.003	-0.0008	0.0007	0.0007	0.9
0.003	-0.0023	0.0015	-0.0015	1.2
0.003	0	0.0007	-0.0015	1
0.0015	-0.0008	0.0007	-0.0015	1.1
0.0015	-0.0015	-0.0008	-0.0008	1
0.0037	0	-0.0008	0.0007	1.2
0.0022	-0.0008	0	0.0007	1.3
0.0015	-0.0008	0.0007	0	1.1
0.0022	0	-0.0015	0.0015	1.1
0.003	-0.0008	-0.0015	0.0007	1
0.0045	-0.003	0.0007	-0.0008	1.2
0.0037	-0.0015	-0.0015	0.0007	1
0.0045	-0.0008	-0.0008	0	1.3
0.0037	-0.0023	-0.0015	0	1.1
0.0037	-0.0015	-0.0015	-0.0023	1.3
0.0045	-0.0008	-0.0008	-0.0015	1
0.0037	0.0007	-0.0023	-0.0015	1.1
0.0037	0.0007	-0.0008	-0.003	1
0.003	0.0007	-0.0008	-0.0015	1.3
0.0022	0	0	-0.003	1.1
0.0015	0.0007	0.0015	-0.003	1
0.0022	0.0007	0.0015	-0.0023	0.9
0.0037	0.0007	0.003	-0.0015	1.1
0.0037	0.0007	0.003	-0.0008	1.3
0.0037	0.0022	0.0052	-0.0008	1.2
0.0015	0.0015	0.0052	-0.0008	1.2
0	0.0007	0.0045	-0.0008	1.3
0.0015	0.0007	0.0045	0.0007	1.2
0.0022	0	0.0015	0.0015	1.3
0.0037	-0.0008	0.0007	0.0015	0.9
0.0045	0	0	0.0007	1.2
0.003	-0.0008	0.0007	-0.0015	1
0.0045	0.0015	0.0015	-0.0008	1.3
0.0037	0.0015	0	0.0007	1.1
0.003	0.0007	0.0015	0.0022	1.3
0.003	0	-0.0008	0.0022	1.2
0.0007	-0.0008	-0.003	0.0007	1.3
0.0007	0	-0.0046	-0.0008	1.3
-0.0008	-0.0015	-0.0046	-0.0023	1.1
-0.0023	-0.0015	-0.0046	-0.0008	1.2
-0.0008	0	-0.003	-0.0008	1.1
-0.0008	0.0015	-0.0015	-0.0008	1.3
-0.0008	0.0015	-0.003	-0.0008	1.1
-0.0008	0.0007	-0.0023	-0.0015	1.3
0.0007	-0.0008	-0.0015	-0.0015	1.1
0.0015	-0.0008	-0.0015	-0.0023	1.3
0.0022	-0.0015	0.0007	-0.003	1.2
0.006	-0.003	0.0015	-0.0015	1.2
0.0045	-0.0023	0.0022	-0.003	1.2
0.0007	-0.0015	0.0037	-0.003	1.2
-0.0015	-0.003	0.003	-0.003	1.2
-0.0015	-0.0038	0.003	-0.0015	1.1
0.0015	-0.0038	0.0022	-0.0008	1.3
0.0022	-0.003	0	-0.0008	1.2
0.0015	-0.0008	-0.0008	-0.0015	1.1
0.0015	-0.0008	0.0015	-0.0008	1.3
0.0015	0.0007	0.0037	0.0007	1.1
0.0007	0.0007	0.0015	0.0007	1.2
0.0015	-0.0008	0.0007	-0.0008	1.1
-0.0008	-0.0008	0.0022	-0.0015	1.4
-0.0008	-0.0008	0.0022	0.0007	1
0.0015	-0.0023	0.0007	0.0007	1.3
0.0045	-0.0038	-0.0008	0.0015	1.1
0.0052	-0.0008	-0.003	0	1.3
0.0022	0	-0.0038	0.0007	1.1
0.0007	-0.0008	-0.003	0.003	1.3
0.0015	-0.0008	-0.0008	0.0015	1
0.0007	0	0.0007	0.0015	1.3
0.0015	0	0.0015	0.0007	1.2
0.0007	0.0007	0.0037	0	1.3
0.003	0.003	0.003	0.0007	1.2
0.0052	0.0007	0	-0.0008	1.1
0.003	-0.0008	0.0007	-0.0008	1.3
0.0007	0.0007	0	-0.0008	1.1
0.0015	-0.0008	0.0015	-0.0008	1.3
0.0022	0	-0.0015	0.0007	1.1
0.0045	-0.0008	-0.0015	-0.0008	1.3
0.0067	-0.0015	0.0015	-0.0015	1
0.006	-0.0008	0.0015	-0.0008	1.3
0.006	-0.0008	0.003	-0.0015	1.1
0.0052	-0.003	0.003	-0.0008	1.3
0.0045	-0.0023	0.0015	0.0007	1.2
0.0045	-0.0008	0.003	-0.0008	1.2
0.003	-0.0015	0.0015	0.0007	1.3
0.0052	-0.0015	0.003	0	1.2
0.0067	-0.0008	0.003	0	1.1
0.0052	0	0.003	0.0007	1.1
0.003	0.0007	0.0007	-0.0008	1.3
0.003	0.0007	-0.0008	-0.0008	1.3
0.0045	0.0007	0.0015	-0.0008	1.2
0.0045	-0.0008	0.0015	-0.0023	1.3
0.0052	-0.0023	-0.0008	-0.0008	1.2
0.006	-0.0008	-0.0008	-0.003	1.2
0.0067	0.0007	0.0015	-0.0046	1.2
0.0052	0.0007	0.0007	-0.003	1.3
0.0052	0.0007	-0.0008	-0.0015	1.2
0.0052	0.0015	0.0007	-0.0023	1.4
0.0037	0.0022	0.0007	-0.003	1.1
0.003	0.0007	-0.0008	-0.003	1.4
0.0007	0.0015	0	-0.0046	1.2
-0.0015	0.0007	0.003	-0.0038	1.3
-0.0015	0.0007	0.0045	-0.003	1.2
-0.0008	-0.0008	0.003	-0.0008	1.2
-0.0008	-0.0008	0	-0.0008	1.2
-0.0015	0.0015	-0.0008	-0.0023	1.2
-0.0023	0.0007	-0.0015	-0.0015	1.3
-0.003	0.0007	-0.0046	-0.0008	1.1
-0.0008	-0.0008	0	0	1.3
0.0007	-0.0008	0.0007	0.0007	1.2
0.0022	0	-0.0008	-0.0008	1.3
0.0045	-0.0023	-0.0008	0.0007	1
0.0052	-0.0015	-0.0015	-0.0015	1.3
0.003	-0.0008	-0.0015	-0.0008	1.2
0.0022	-0.0008	-0.0023	0.0007	1.4
0.0015	-0.0015	0	0.0007	1.1
0.0015	-0.0008	0	0.0015	1.4
0.003	-0.0008	0.0015	0	1.2
0.0015	-0.0015	0.0037	0.0007	1.3
0.0007	-0.0015	0.0015	0	1.2
0.0007	-0.0015	0.0037	-0.0015	1.3
0.0022	-0.0023	0.003	-0.0015	1.2
0.003	-0.0023	0.0015	0.0007	1.1
0.0015	-0.003	0	0	1.3
0.0015	-0.003	-0.0015	0.0007	1.3
0.0015	-0.0015	-0.0023	0.0007	1.3
0.003	-0.0015	-0.0008	0.0007	0.9
0.0037	-0.0008	-0.0015	0.0007	1.3
0.0052	-0.0008	0	0.0007	1.1
0.006	-0.0015	0	0.0007	1.2
0.0075	-0.0015	-0.003	0	1.3
0.0052	-0.0008	-0.0015	-0.0008	1.2
0.003	-0.0015	-0.0008	-0.0008	1.3
0.0052	-0.0008	-0.0008	0	1.3
0.0045	0	0.0007	0	1.2
0.003	-0.0008	0.003	0	1.3
0.0037	0.0007	0.0045	-0.0008	1.3
0.0022	-0.0008	0.0037	-0.0015	1.2
0.0015	0	0.0037	-0.0015	1.2
0.0022	0.0007	0.0052	-0.0015	1.3
0.0022	-0.0008	0.0045	-0.0008	1.3
0.0045	-0.0008	0.0015	0	1.3
0.003	0.0007	0.0007	0	1.3
0.0015	0	0	0	1.3
0.0015	0	0.0007	-0.0008	1.3
0.0015	0	0.0007	-0.0008	1.3
0.0007	-0.0015	0.0015	-0.0008	1.4
0	-0.0015	0.0007	-0.0015	1.4
0.0007	-0.0015	0.0015	-0.0023	1.3
-0.0008	-0.0008	0.0037	-0.0008	1.3
-0.0023	0.0015	0.003	-0.0008	1.3
-0.0023	0	0.0007	-0.0015	1.4
-0.003	-0.0023	0.0022	0.0007	1.3
-0.0015	-0.0015	0.0015	0.0007	1.4
-0.0015	-0.0008	0.0007	0.0015	1.3
-0.003	-0.0015	-0.0008	0.0015	1.3
-0.003	-0.0015	-0.0038	0.0007	1.3
-0.0015	-0.0015	-0.0015	0	1.2
-0.0008	-0.0015	-0.0023	-0.0008	1.3
-0.0015	-0.003	-0.0023	-0.0008	1.2
-0.0023	-0.0023	-0.0015	-0.0008	1.3
-0.0023	-0.0023	-0.0008	0.0007	1.2
-0.003	-0.0008	0.0007	-0.0008	1.3
-0.003	0.0007	0.0007	-0.0008	1.3
-0.0015	0	0.0022	-0.0015	1.3
-0.0015	0.0007	0.0022	-0.0023	1.3
-0.003	0.0015	-0.0008	0	1.4
-0.0015	0.0015	-0.0008	0.0015	1.3
-0.0008	0.0007	-0.0015	0	1.2
0.0015	-0.0008	0	-0.0008	1.3
0.0007	-0.0015	0.003	-0.0023	1.3
0.0015	-0.0023	0.0015	-0.0015	1.3
0.0007	-0.0008	0.0007	-0.003	1.3
0.0015	-0.0015	0.003	-0.0023	1.3
0.0007	-0.0023	0.003	-0.0015	1.3
0.0015	-0.003	0.0015	-0.003	1.3
0.0022	-0.003	0.0015	-0.0008	1.4
0.0007	-0.003	0.003	-0.0008	1.3
0.0015	-0.0015	0.0022	-0.0015	1.5
0.0015	-0.0008	0.0037	-0.0008	1.2
0.003	-0.0015	0.0022	-0.0008	1.5
0.0022	-0.0008	0.003	0.0015	1.1
0.0015	0.0015	0.0015	0.0037	1.2
0.0015	0.0045	0.0007	0.003	1.3
0.0007	0.003	0.0022	0.003	1.5
0	0.0015	0.003	0.0015	1.3
-0.0008	0.003	0.0022	0.0015	1.1
0.0007	0.003	0.0015	0.0007	1.4
0.0007	0.0015	0.0007	-0.0008	1.2
0.0007	0.0015	-0.0008	0.0007	1.4
0.0007	0.0015	-0.0008	0.0007	1.2
-0.0008	0.0007	-0.0015	0.0007	1.4
-0.0008	0.0007	-0.0038	-0.0008	1.3
0.0007	0.0022	-0.003	-0.0008	1.4
0.003	0.0007	-0.003	-0.0008	1.2
0.003	0	-0.0015	-0.0046	1.5
0.0015	-0.0008	0.0007	-0.0046	1.3
0.0015	-0.003	0.0022	-0.003	1.3
0.0007	-0.0015	0.0015	-0.0015	1.1
0	-0.0015	-0.0008	0.0007	1.3
-0.0015	-0.0023	0.0015	0	1.3
-0.0008	-0.0023	0.003	-0.0008	1.3
0	-0.0038	0.0022	0	1.5
0	-0.0023	0.0007	0	1.3
0	-0.0015	0	0.0007	1.3
0.0007	-0.003	0.003	0.0022	1.2
0.003	-0.0015	0.0007	0.0007	1.4
0.003	-0.0023	0	0.003	1.4
0.0022	-0.0015	0.0007	0.0022	1.3
0	-0.0008	-0.0015	0.0015	1.4
-0.0015	0.0007	0.0007	0.0015	1.3
0.0007	0	0	0.0007	1.4
0.0015	-0.0008	0.0007	0	1.3
0.0022	-0.0015	0.0015	-0.0015	1.4
0.003	-0.003	0.0015	-0.0015	1.3
0.0015	-0.0023	0.0022	-0.0015	1.3
0.003	-0.0008	0.0007	-0.0008	1.4
0.0045	0.0015	0.0007	-0.0008	1.4
0.0045	-0.0008	-0.0008	-0.003	1.4
0.003	0	-0.003	-0.0023	1.3
0.0037	0.0007	-0.0023	-0.003	1.3
0.0037	0.0015	0	-0.0015	1.3
0.0045	0.0022	0.0015	-0.0008	1.5
0.0037	0	0.0007	-0.0015	1.2
0.0052	0.0007	-0.0015	-0.0015	1.5
0.0052	0.0015	-0.0015	-0.0015	1.3
0.0045	-0.0008	-0.0008	-0.0008	1.4
0.0045	0	0	-0.0008	1.2
0.003	0.0007	-0.0008	-0.0015	1.5
0.003	0	-0.0008	-0.0015	1.2
0.0037	-0.0008	0.0007	-0.0015	1.3
0.003	-0.003	-0.0008	-0.0015	1.4
0.0037	-0.0023	0	-0.0015	1.2
0.0037	-0.0015	0.0022	-0.0008	1.4
0.0022	-0.0015	0.0007	-0.0008	1.4
0.0015	-0.0015	0.0015	-0.0015	1.5
0.0015	-0.0015	0.0015	0	1.3
0.0015	0.0007	-0.0008	0.0007	1.5
0.0007	-0.0015	0.0015	0.0007	1.2
0	-0.0023	0.003	0	1.5
0.0015	-0.0015	0.0015	0.0007	1.3
0.0022	-0.0015	0.0007	0.0015	1.6
0.003	-0.0008	0.0007	0.0015	1.3
0.003	-0.0015	0.0007	0.0015	1.5
0.0022	-0.0008	0	0.0015	1.3
0.0045	0.0015	0.0015	0.0015	1.5
0.0045	0.003	0.003	0.0015	1.5
0.0037	0.003	0.0015	0.0007	1.5
0.0052	0.0007	0.003	-0.0008	1.5
0.003	-0.0008	0.0007	-0.0015	1.4
0.003	0.0015	-0.0023	-0.0008	1.5
0.0052	0.0015	-0.0023	-0.0015	1.4
0.003	0.0007	-0.0046	-0.0015	1.5
0.003	-0.0015	-0.003	-0.003	1.4
0.0022	-0.0023	0	-0.003	1.5
0.0037	-0.0015	-0.0008	-0.0023	1.4
0.003	-0.0015	0.0007	-0.0015	1.4
0.0015	0.0007	0.0007	-0.0046	1.5
0.0045	-0.0008	-0.0008	-0.0053	1.4
0.0052	-0.0008	0.0007	-0.0023	1.4
0.0045	-0.0008	0.003	-0.0015	1.3
0.0045	-0.0015	0.0037	-0.0015	1.5
0.0052	-0.0023	0.0037	0.0007	1.4
0.0052	-0.0008	0.003	-0.0008	1.4
0.0052	-0.0008	0.0045	-0.0008	1.4
0.0037	-0.0008	0.0015	0	1.3
0.0045	-0.0015	0.0007	0	1.4
0.0045	-0.0015	0	-0.0008	1.4
0.0045	-0.0023	-0.0008	0	1.4
0.0045	-0.003	-0.0008	0.0007	1.5
0.003	-0.0015	0	0.0007	1.4
0.003	-0.0015	0.0007	0.0015	1.4
0.0037	-0.0008	0.0015	0.003	1.5
0.0045	-0.0008	0.0045	0.003	1.3
0.0045	-0.0023	0.0045	0.0015	1.5
0.0052	-0.0008	0.003	0.0015	1.4
0.0052	-0.0008	0.0037	-0.0008	1.5
0.006	-0.0015	0.003	-0.0015	1.3
0.0052	-0.0015	0	-0.0015	1.3
0.0052	-0.0008	-0.0015	-0.003	1.4
0.0045	-0.0008	0	-0.0008	1.5
0.0045	0.0007	-0.0015	0	1.5
0.0022	0.0007	-0.0015	0.0007	1.3
0.0007	-0.0008	-0.0008	0.0022	1.6
0.0007	0.0007	0.0007	0.0015	1.4
0.003	0.0007	0	0.0007	1.5
0.0037	0.0015	0	0	1.4
0.0022	0.0007	0.0007	0	1.5
0.0022	0.0007	0.0007	-0.0008	1.4
0.0015	0.0007	0.0007	0	1.4
0.0022	-0.0008	-0.0015	-0.0008	1.4
0.0015	-0.0015	-0.0008	-0.0015	1.6
0.0015	-0.0015	0.0007	-0.0023	1.5
0.003	0.0007	0.0015	-0.0023	1.5
0.003	0.0015	0.0037	-0.0046	1.6
0.0037	0.0022	0.0037	-0.0038	1.4
0.003	0.0007	0.0045	-0.0023	1.5
0.0045	-0.0008	0.003	-0.0038	1.5
0.0052	-0.0008	0.0007	-0.0015	1.6
0.0067	-0.0015	-0.0015	-0.0023	1.5
0.0052	0	-0.0023	-0.0015	1.7
0.0037	0.0007	-0.0008	0.0007	1.5
0.0045	-0.0015	-0.0008	-0.0015	1.5
0.0045	-0.0015	-0.0023	-0.0015	1.5
0.003	-0.0023	-0.0023	-0.003	1.6
0.003	-0.0008	-0.0008	-0.0038	1.5
0.0007	0.0007	0	-0.0015	1.4
0.0007	0.0007	-0.0008	-0.0015	1.8
0.0015	0	0	-0.0015	1.4
0.003	-0.0008	0.0015	-0.0008	1.5
0.0045	0	0.0015	-0.0008	1.5
0.003	-0.0015	0.0015	-0.0008	1.5
0.0022	-0.0023	0.0015	-0.0008	1.5
0.003	-0.0008	0.0015	0	1.4
0.0015	-0.0008	0	-0.0008	1.6
0.0015	-0.0008	0.0007	0.0007	1.5
0.0015	0.0007	0.0007	0.0015	1.6
0.0015	0.0007	0.0015	0	1.5
0.003	0.0022	0.003	0.0007	1.6
0.003	0.0007	0.0007	0.0007	1.5
0.0037	0.0007	0.0007	0.0007	1.5
0.0045	-0.0008	0.0022	0	1.4
0.003	0	0	0	1.6
0.0045	0.0007	0.0007	-0.0008	1.5
0.0052	-0.0008	0.003	-0.0015	1.6
0.0052	0.0007	0.0015	-0.0008	1.4
0.0045	0.0007	0.0007	-0.0008	1.6
0.0037	0.0007	0.0007	-0.0008	1.6
0.0037	0	0.0007	0	1.5
0.0037	-0.0008	0.0007	0.0007	1.5
0.0052	0.0007	0.0007	0	1.4
0.0052	0	0.0007	-0.0008	1.6
0.0037	0	-0.0008	-0.0015	1.3
0.0015	-0.0008	-0.0008	-0.0015	1.6
0.0022	-0.0015	0.0007	-0.0008	1.3
0.0015	-0.0008	-0.0015	0	1.6
0	-0.0015	-0.0015	0.0007	1.5
0	-0.0008	-0.0015	-0.0008	1.7
-0.0008	-0.0008	-0.0008	-0.0008	1.4
0.0007	0.0015	-0.0015	-0.0008	1.6
0.0015	0.0007	-0.003	0	1.4
0.0007	0	-0.0023	0.0007	1.5
0.003	-0.0015	-0.003	-0.0008	1.5
0.0015	-0.0023	-0.0008	-0.0008	1.6
0.0015	-0.0023	-0.0015	0.0007	1.5
0.0022	-0.0015	-0.0008	0.0007	1.5
0.0007	-0.0046	0.0007	0.0007	1.6
0.003	-0.0046	0.0007	0.0015	1.5
0.0015	-0.003	0.0007	0.003	1.7
0	-0.0008	0.0015	0.0007	1.4
0.0007	-0.0008	0.0045	0.0015	1.6
0	-0.0015	0.0045	0.0015	1.5
0	-0.0015	0.0037	0.0015	1.5
-0.0015	-0.0008	0.0022	0.0022	1.6
-0.0015	0.0007	0.0022	0.0015	1.5
-0.0008	0	0.0015	0.0007	1.6
-0.0008	-0.0008	0.0007	-0.0008	1.5
-0.0008	-0.0008	0.003	-0.0008	1.7
0.0007	-0.0008	0.003	-0.0015	1.6
0.0007	-0.0008	0.003	0.0015	1.5
0.0007	-0.0015	0.0022	-0.0015	1.5
0.0015	-0.003	0.0015	-0.0015	1.5
0.003	-0.003	-0.0008	-0.0015	1.6
0.0022	0	0.0007	-0.0023	1.5
0.0015	0.0007	0.0022	-0.0015	1.7
0.0015	0.0007	0.0007	-0.0015	1.6
0.0007	0.0022	-0.0008	-0.0008	1.5
0.0007	0.0007	-0.0015	-0.0008	1.4
0.0015	0	0	-0.0015	1.6
0.0015	-0.0008	0.0007	-0.0008	1.5
0.003	-0.0008	0.0007	-0.003	1.6
0.003	-0.0008	0.0007	-0.0015	1.5
0.0045	-0.0008	0.0045	-0.0008	1.7
0.0037	0	0.0052	-0.0008	1.4
0.003	-0.0015	0.0037	0.0007	1.5
0.0045	-0.0015	0.0052	-0.0008	1.6
0.003	-0.0023	0.003	-0.0015	1.4
0.0037	0.0007	0.0015	-0.0015	1.5
0.0045	0.0007	0.0015	-0.0046	1.5
0.0022	-0.0008	0.0015	-0.003	1.6
0.0007	0.0007	0.0007	-0.0023	1.5
0	-0.0015	0.0007	-0.0008	1.8
-0.0008	0	0.0007	-0.0008	1.3
0	0.0007	0	-0.0023	1.6
0	-0.0008	-0.0015	-0.0023	1.4
0.0015	-0.0023	-0.0008	-0.0015	1.7
0.0022	-0.0023	0	-0.0015	1.5
0.0022	-0.0015	0	-0.0038	1.7
0.0022	-0.003	0.0007	-0.0015	1.4
-0.0008	-0.0015	0	-0.0008	1.7
0.0007	-0.0023	-0.0008	-0.0008	1.5
0.0007	-0.0023	0.0007	-0.0008	1.5
0.0015	-0.0008	0.0007	-0.003	1.6
0.0015	-0.0008	0.0007	-0.0023	1.5
0.0007	-0.0008	0.0007	-0.0008	1.6
-0.0008	-0.0008	0	-0.0008	1.5
-0.0008	0	0	-0.0008	1.8
0.0007	0.0015	0.003	-0.0008	1.5
-0.0008	0.0007	0.0045	-0.0008	1.6
-0.0015	-0.0008	0.0022	-0.0008	1.3
-0.0008	0.0007	0.003	0.0022	1.8
-0.0008	-0.0008	0.003	0.003	1.5
0	0	0.0007	0.003	1.5
-0.0008	0.0015	-0.0008	0.003	1.5
0	0.0015	-0.0008	0.003	1.5
0.0007	0	0.0022	0.0007	1.5
0.0007	-0.0008	0.0015	-0.0015	1.6
0.0007	0.0007	0.0007	0	1.6
0.0007	0	0.0045	0.0007	1.6
0.0007	-0.0015	0.003	0.0015	1.6
0.0022	-0.0023	0.0022	0.0022	1.7
0.003	-0.003	0.0007	0.0007	1.6
0.003	-0.0015	0.0007	0	1.6
0.0037	-0.0023	-0.0008	0.0007	1.4
0.0045	-0.0008	0.0007	0	1.5
0.0045	0.0007	0.0007	-0.0008	1.7
0.003	0.0007	-0.0023	0	1.6
0.0022	-0.0015	-0.0015	0.0007	1.5
0.0015	-0.003	-0.0015	0.0007	1.6
0.003	-0.0015	-0.0015	0.0022	1.5
0.0022	0	-0.0015	0.003	1.6
0.0007	0.0007	-0.0008	0.0015	1.3
0.003	0	-0.0008	-0.0008	1.5
0.003	0	-0.0008	-0.0008	1.6
0.0022	-0.0008	0.0007	-0.0008	1.5
0.0022	-0.0008	-0.0008	-0.0015	1.6
0.0015	-0.0015	0	-0.0015	1.5
0.0007	-0.0008	0.0007	-0.0008	1.6
0.0007	0.0007	-0.0008	-0.0008	1.5
0.0015	-0.0015	-0.0008	-0.0008	1.6
0.0022	-0.0015	0.0007	-0.0008	1.5
0.0015	-0.0015	0.0015	-0.0015	1.6
0.0022	-0.0023	0.0015	0	1.5
0.0015	-0.003	0.0007	0.0015	1.7
0.0015	-0.0038	-0.0008	0.0007	1.6
0.0045	-0.003	-0.0008	0.0007	1.6
0.003	-0.0015	-0.0008	-0.0008	1.6
0.0037	-0.003	-0.0008	-0.0023	1.7
0.003	-0.003	0.0007	-0.0015	1.5
0.003	-0.0015	-0.0008	-0.0038	1.5
0.0037	-0.0023	0	-0.003	1.5
0.0015	-0.0008	0.0007	-0.0038	1.5
0.0022	-0.0008	0.0007	-0.003	1.6
0.0045	0.0007	-0.0008	-0.0008	1.5
0.0052	-0.0008	-0.0023	-0.0015	1.6
0.003	-0.0008	-0.0015	-0.0008	1.5
0.003	-0.0008	0.0007	-0.0015	1.6
0.0045	-0.0008	0.0015	-0.0023	1.7
0.006	0	0.0015	-0.0015	1.5
0.0067	0.0007	0.0037	0	1.6
0.0052	-0.0008	0.003	0.003	1.5
0.0045	0.0015	0.0007	0.0015	1.7
0.0015	0.0022	0	0.0007	1.5
0.0045	0	-0.0015	0.0015	1.7
0.0052	0.0015	-0.0015	-0.0008	1.5
0.0045	0.0015	0	-0.0008	1.6
0.0045	0.0007	0.0015	0.0007	1.5
0.0052	0.0015	0.0022	0.0007	1.7
0.0052	0.0007	0.0022	-0.0015	1.6
0.0075	0.0015	0.003	-0.0008	1.5
0.0067	0.0015	0.0022	-0.0023	1.7
0.0052	0.0007	0.0022	-0.003	1.6
0.0045	0.0015	0.0015	-0.003	1.7
0.003	0.0007	0.0022	-0.0008	1.5
0.0015	0.0015	0.0015	0	1.7
0.0015	0.0015	0.0007	-0.0008	1.4
0.0015	0.0015	-0.0015	-0.0015	1.8
0.0015	0	-0.003	-0.0015	1.4
0.003	-0.0008	-0.0015	-0.0008	1.7
0.0045	0.0015	0	0.0007	1.5
0.0052	0.0007	0.0007	0.0015	1.7
0.0052	-0.0008	0.0007	0.0015	1.7
0.006	-0.0008	0.0007	0.0007	1.8
0.0052	-0.003	0.0015	0.0007	1.7
0.0052	-0.0015	0.0015	-0.0008	1.6
0.0037	-0.003	0.003	-0.0015	1.8
0.003	-0.0023	0.003	-0.0015	1.4
0.003	-0.0015	0.0007	-0.0015	1.8
0.0022	-0.0023	0.0015	-0.0023	1.5
0.0022	-0.0015	0.0045	-0.0015	1.7
0.0015	-0.003	0.0045	-0.0015	1.6
0.0007	-0.0023	0.0045	-0.0015	1.7
0	-0.0008	0.003	-0.0008	1.6
0	0	0.0015	-0.0008	1.5
0.0015	0.0015	0.0007	0.0015	1.7
0.0015	0.0007	0.0015	0.0015	1.7
0.0022	-0.0015	0.0007	-0.0008	1.7
0.003	-0.003	0.0007	-0.0008	1.6
0.0007	-0.0023	-0.0008	-0.0008	1.6
0.0022	-0.0008	-0.0008	-0.0008	1.5
0.0015	0	0.0007	-0.0008	1.8
0.0015	-0.0015	0.0007	-0.0015	1.6
0.0015	-0.0008	0	-0.003	1.8
0.0007	0.0007	-0.0008	-0.0038	1.6
0.0022	0.0007	-0.0008	-0.0038	1.7
0.0007	0.0007	-0.0015	-0.0038	1.8
-0.0008	-0.0008	0.0007	-0.003	1.5
0	0	0.0015	-0.0015	1.8
-0.0008	-0.0008	-0.0008	-0.0015	1.6
-0.0008	-0.0015	-0.0015	-0.0015	1.8
0	0	-0.0008	-0.0015	1.6
0.0015	0.0015	-0.0015	0.0007	1.8
0.0015	0.0015	-0.0015	0.0015	1.5
0.003	0.003	-0.0015	0.0007	1.6
0.0045	0.0015	-0.0008	-0.0008	1.7
0.0045	-0.0015	0	-0.0015	1.5
0.0037	-0.0023	-0.0008	-0.0015	1.7
0.003	-0.003	0	-0.0023	1.5
0.003	-0.0023	-0.0008	-0.0015	1.8
0.0007	-0.0023	-0.0015	-0.0015	1.4
0.0007	-0.0008	-0.0008	0.0007	1.8
0.0022	0	0.0007	0.0007	1.5
0.0037	-0.0008	0.0007	0.0007	1.8
0.0052	-0.0015	-0.0008	0.0007	1.5
0.0037	-0.0038	-0.0008	0.0022	1.8
0.0037	-0.003	-0.0015	0.0022	1.5
0.0045	-0.0046	-0.0015	0.0045	1.8
0.003	-0.003	-0.0015	0.0045	1.6
0.0045	-0.0008	-0.0023	0.0007	1.8
0.0015	0.0007	-0.0008	0.0015	1.6
0.0022	0.0007	0.0007	0.003	1.5
0.0037	-0.0015	0.0007	0.0015	1.7
0.0037	-0.0015	0	-0.0015	1.5
0.0045	-0.003	-0.0008	-0.003	1.8
0.0067	-0.003	0.0007	-0.0015	1.6
0.0075	-0.0015	0.0007	-0.003	1.8
0.006	-0.0008	0.0007	-0.0008	1.5
0.0052	0.0015	0.0022	0	1.8
0.0052	0.0015	0.003	-0.0008	1.5
0.0067	0.0015	0.0037	0.0007	1.8
0.0045	0.0015	0.0022	-0.0008	1.6
0.003	0	0.003	0	1.7
0.003	0.0007	0.003	-0.0008	1.8
0.003	-0.0008	0.0007	-0.0008	1.6
0.0015	0.0007	0.0015	-0.0023	1.7
0.0022	0	0.003	-0.0008	1.8
0.003	0	0.003	0.0007	1.6
0.0015	0.0015	0.003	0.0007	1.7
0.003	0.0007	0.0015	0.0015	1.6
0.003	0.0015	0.003	0.0007	1.6
0.0015	0.0015	0.0045	0.0007	1.8
0.0015	0.0007	0.003	-0.0008	1.6
0.0015	-0.0008	0.0022	-0.0023	1.7
0.0015	-0.0023	0.0015	-0.0015	1.8
0.0015	-0.0015	0.0015	-0.003	1.6
0.0007	-0.0015	0.0045	-0.0023	1.8
-0.0008	-0.0015	0.0037	-0.0008	1.5
-0.0008	-0.0015	0.0015	0	1.8
-0.0008	-0.0015	0.0007	-0.0015	1.7
0	-0.0008	-0.0015	0	1.7
0.0007	0.0007	-0.0008	-0.0008	1.7
-0.0008	0	-0.0008	-0.0015	1.8
0.0007	0.0015	-0.0015	-0.0015	1.7
0.0015	0.0037	-0.0015	-0.003	1.7
0.0015	0.0015	-0.0008	-0.0015	1.6
0.0007	0.0015	0	-0.0023	1.6
0	0.0007	-0.0008	-0.003	1.7
0.0007	-0.0008	-0.0008	-0.003	1.5
0.0022	-0.0008	-0.0008	-0.0023	1.8
0.0015	-0.0015	0.0007	-0.0015	1.6
0.0015	-0.0023	0	-0.0015	1.8
0.0007	-0.0023	0	-0.0008	1.6
0.0015	0.0007	0.0007	-0.0023	1.8
0.003	-0.0015	0	-0.0008	1.5
0.003	-0.0008	0.0022	-0.0015	1.8
0.0022	0.0007	0	-0.0023	1.8
0.003	-0.0015	0	-0.0015	1.7
0.003	-0.003	0.0007	-0.0023	1.8
0.0022	-0.0015	0.0007	0.0007	1.5
0.0022	-0.0008	0.0022	0	1.8
0.003	-0.0015	0.003	0.0007	1.7
0.0015	-0.0008	0.0007	0.0015	1.8
0.003	-0.0008	0	0.003	1.5
0.0015	-0.0008	-0.0008	0.003	1.8
0.0015	0.0007	-0.0015	0.0015	1.6
0.0015	0	0	0.0015	1.7
0.003	0	0.0007	0.0022	1.7
0.0037	-0.0008	-0.0015	0.0022	1.8
0.003	-0.0015	0	0.0007	1.6
0.0037	-0.0015	0	0.0007	1.7
0.0045	-0.0008	-0.0008	-0.0008	1.7
0.0045	-0.0008	0	-0.003	1.7
0.0045	0	0.0015	-0.003	1.7
0.0037	-0.0008	0.0015	-0.0008	1.7
0.003	-0.0008	0.003	0.0007	1.6
0.0015	0.0007	0.0022	-0.0008	1.9
0.0022	-0.0008	0	-0.0008	1.7
0.003	0	0	0.0007	1.7
0.0022	-0.0008	-0.0008	0	1.6
0.0015	-0.0015	0.0022	-0.0008	1.7
0.0015	-0.0015	0.0015	-0.0015	1.7
0.0015	-0.003	-0.0008	0.0007	1.8
0.003	-0.003	-0.0008	-0.0008	1.6
0.0022	-0.0023	0.0007	0	1.8
0.0022	-0.0008	0.0015	-0.0008	1.6
0.0015	-0.0015	0.0015	-0.0015	1.8
0.0015	-0.0023	0.0015	-0.0008	1.5
0.0015	-0.0015	-0.0023	-0.0015	1.8
0.003	-0.0008	-0.0038	-0.0008	1.5
0.0022	-0.0008	-0.0015	-0.0015	1.7
0.0015	0	-0.0008	-0.0015	1.7
0.0015	0.0007	0.0007	-0.0015	1.7
0.003	-0.0008	-0.0015	-0.0015	1.8
0.0045	0	-0.0015	-0.003	1.5
0.0045	0.0007	-0.0008	-0.003	1.8
0.0007	0.0015	0.0045	-0.0023	1.6
0	0.0007	0.0037	-0.003	1.8
-0.0008	-0.0008	0.0007	-0.003	1.5
-0.0008	0.0007	0.0007	-0.0008	1.8
-0.0015	0	-0.0015	-0.0008	1.7
-0.0008	-0.0015	0.0007	-0.0023	1.7
-0.0008	-0.0023	0.0022	-0.0015	1.6
0.0007	-0.0008	0.0007	-0.0008	1.7
0.0015	0.0007	0.0015	-0.0015	1.7
0.0022	0.0007	0.003	-0.0008	1.7
0.0045	0.0022	0.0015	-0.0008	1.5
0.0015	0.0007	0	0.0007	1.6
0.0022	-0.0015	0.0015	0.0007	1.8
0.0015	-0.0008	0.0007	-0.0008	1.6
-0.0008	-0.0015	0.0015	-0.0008	1.8
-0.0008	-0.0038	0.0007	-0.0008	1.6
0.0007	-0.0046	0	-0.0008	1.8
0.0015	-0.003	0.0015	-0.0008	1.7
0.0015	-0.0038	0.0015	-0.0015	1.7
0.0015	-0.003	0.0015	-0.0008	1.7
0.0022	-0.0015	0	-0.0008	1.8
0.0045	-0.0008	0	-0.0008	1.8
0.0015	0.0007	0.0007	0.0007	1.6
0.0015	-0.0008	0.0007	0	1.8
0	0	0.0007	0	1.5
-0.0008	0.0015	0.0007	0.0007	1.7
-0.0008	0.0007	-0.0008	0.0015	1.7
0.0007	0.0007	0	0.0015	1.7
0.003	0.0007	0	0.0022	1.7
0.0037	-0.0008	-0.0008	0.0015	1.7
0.0045	-0.0015	0.0007	0.0007	1.7
0.0045	-0.0023	0.0022	0.0015	1.7
0.003	0	0.0007	0.0022	1.8
0.0015	0	0.0007	0.003	1.6
0.0015	-0.0008	0.0015	0.0022	1.8
0	-0.0015	-0.0008	0	1.5
-0.0008	-0.0015	0.0007	0.0007	1.8
-0.0008	0.0007	0.0037	0.0007	1.6
-0.0015	0	0	0.0015	1.8
-0.0008	0.0015	-0.0008	-0.0008	1.7
0.0007	0.0022	0.0007	-0.0015	1.8
0.0007	0.0022	0.0007	-0.0015	1.7
0.0015	0.0022	0.0007	-0.0015	1.7
0.0007	0.0007	0.0007	0.0007	1.7
0	0.0007	0.0007	0.0015	1.7
-0.0015	-0.003	0	0.0015	1.8
-0.0015	-0.0008	-0.0008	-0.0015	1.6
-0.0015	-0.0008	0	-0.003	1.9
-0.0008	-0.0015	0.0007	-0.0053	1.6
-0.0008	0.0007	-0.0008	-0.006	1.9
-0.0008	-0.0008	0.0007	-0.0046	1.5
-0.0008	-0.0008	0.0022	-0.0046	1.8
0.0007	-0.0015	0.0007	-0.0023	1.5
-0.0008	0	-0.0023	-0.0015	1.8
-0.0015	0	-0.0023	0.0007	1.6
0	0.0007	-0.0008	0.0007	1.7
-0.0008	0.0015	0	-0.0008	1.6
-0.0008	0.0007	0.0007	0.0007	1.7
0.0015	0.0007	0.0015	0.0007	1.7
0.0022	0.0007	0.0015	0.0007	1.8
0.003	0.0007	0.0015	0	1.8
0.0022	0.0007	0.003	0	1.5
0.003	0	0.0037	0.0007	1.8
0	-0.0008	0.0037	-0.0008	1.6
0	-0.0008	0.003	-0.0023	1.8
0	0	0.003	-0.0008	1.8
-0.0008	0.0007	0.0037	0.0007	1.6
0.0007	0.0015	0.0045	-0.0008	1.7
0.0015	0.0015	0.0022	-0.0008	1.8
0.0007	0.0007	0	-0.0008	1.6
0.0007	0.0007	-0.0008	-0.0015	1.7
0.0015	-0.0008	-0.0008	0	1.7
0.0015	-0.003	-0.0015	0	1.7
0.003	-0.0015	-0.0023	-0.0008	1.8
0.003	-0.003	-0.0008	0.0015	1.7
0.003	-0.0023	-0.0015	0.0007	1.6
0.003	-0.0015	0	-0.0015	1.7
0.0037	-0.0015	0.0015	-0.0008	1.7
0.003	-0.0015	0.0015	0	1.8
0.003	-0.0008	0.0007	0.0015	1.7
0.003	0	0	0.0015	1.8
0.0015	-0.0015	0.0007	0	1.6
0.0022	-0.0015	-0.0008	-0.0008	1.8
0.003	-0.0015	-0.0008	0.0007	1.6
0.0052	-0.0015	0.0007	-0.0015	1.8
0.006	0	0.0015	-0.0015	1.5
0.0045	-0.0008	0.0007	0	1.7
0.0045	0	0.0015	0.0007	1.6
0.0045	0	0.0037	-0.0008	1.8
0.003	0	0.0037	-0.0008	1.6
0.003	0	0.0015	0	1.8
0.0015	-0.0008	-0.0008	-0.0008	1.8
-0.0008	0	-0.0015	0.0007	1.8
-0.0015	0.0007	-0.0015	0.0007	1.8
-0.0015	0.0007	-0.0008	-0.0015	1.7
-0.0015	-0.0015	-0.0015	0	1.8
-0.0015	-0.0008	-0.0015	0.0015	1.6
-0.0015	0.0007	0	0.0007	1.8
-0.0023	0	0	-0.0008	1.7
-0.0008	0.0007	0	-0.003	1.8
0.0015	0	-0.0008	-0.003	1.8
-0.0008	0.0007	0.0007	-0.0038	1.7
0.0007	0.0022	0	-0.0046	1.8
0.003	0.0007	0.0015	-0.003	1.7
0.0037	0	0.0007	-0.0023	1.9
0.0045	0.0007	-0.0015	-0.003	1.7
0.0037	0	-0.0008	-0.0038	1.8
0.0037	-0.0015	-0.0008	-0.003	1.7
0.0052	-0.0015	-0.0008	-0.0008	1.8
0.0045	-0.0015	-0.0008	-0.0008	1.8
0.0045	-0.0008	-0.0008	0.0015	1.8
0.0045	0	-0.0008	0.0007	1.8
0.0045	-0.0008	0.0007	-0.0015	1.8
0.0067	-0.0023	0.0015	0	1.8
0.006	-0.0015	0.0015	0.0015	1.7
0.0052	-0.0008	0.0007	0.0015	1.9
0.0045	-0.0015	0.0022	0.0007	1.6
0.003	-0.0008	0.0022	0.0007	1.8
0.0037	0	0.0007	0	1.6
0.0037	-0.0008	0.0007	-0.0008	1.9
0.0052	-0.0008	0.0015	0.0007	1.6
0.0045	-0.0008	0.0007	-0.0008	1.8
0.0045	-0.0023	0.003	0	1.8
0.006	-0.0015	0.0015	0.0015	1.8
0.0067	-0.0015	0.0015	-0.0008	1.7
0.006	-0.003	0.003	-0.0008	1.5
0.0067	-0.0038	0.0015	-0.0008	1.9
0.0067	-0.0038	0.0015	-0.0008	1.7
0.0082	-0.0015	0.0015	0	1.9
0.006	-0.003	0.0015	-0.0008	1.6
0.0052	-0.003	0.003	-0.0023	1.8
0.0052	-0.0023	0.0015	-0.0015	1.6
0.006	-0.003	0.0022	-0.0015	1.9
0.0067	-0.0015	0.003	-0.0015	1.8
0.0082	-0.0015	0.0007	-0.0008	1.7
0.0067	-0.0015	0.0015	-0.0015	1.7
0.0052	-0.0023	0.0015	0.0007	1.7
0.0022	-0.003	-0.0008	0	1.7
0.003	-0.0008	0.0015	-0.0008	1.8
0.0037	-0.0008	0	-0.0015	1.7
0.0015	-0.0008	0.0015	0	1.8
0.003	-0.0008	0.0015	0.0007	1.7
0.0037	-0.0008	0	0	1.7
0.0037	0.0007	0.0015	0.0015	1.8
0.0022	0.0007	0.003	-0.0008	1.7
0.0015	0.0007	0.003	-0.003	1.7
0.003	0	0.0022	-0.003	1.7
0.0015	0.0007	0.0007	-0.003	1.8
0.0022	-0.0008	-0.0008	0.0007	1.8
0.003	0	0	0.0007	1.8
0.0022	0.0007	0.0007	-0.0008	1.8
0.0015	0.0007	0.0022	0.0007	1.7
0.0015	0	0.0037	0.0007	1.8
0.0015	-0.0008	0.003	-0.0008	1.6
0.0007	0	0.0022	0	1.8
0.003	0	0	0.0007	1.8
0.003	0	-0.0008	0	1.7
0.003	-0.0015	-0.0008	-0.0008	1.8
0.003	-0.0008	-0.0008	-0.0008	1.7
0.0015	-0.0015	-0.0008	0	1.9
0.0015	-0.0015	-0.0008	0	1.6
0.0007	0	0.0007	0.0007	1.8
0.0015	0	0.0007	0.0015	1.6
0	-0.0008	0.003	0.0015	1.9
0.0007	-0.0008	0.003	0.0007	1.5
0.0007	0	0	-0.0008	1.8
0.003	0.0007	0	-0.0015	1.6
0.003	0.0007	-0.0008	-0.0008	1.8
0.0015	0.0007	0.0007	-0.0008	1.6
0.0022	0.003	0.0007	-0.0015	1.8
0.0037	0.0022	0.0007	-0.0015	1.7
0.0007	0.0015	0.0015	-0.0015	1.6
0	0.0015	0	0.0007	1.8
0.0007	0.0007	-0.0008	-0.0015	1.7
0.0007	0.0007	-0.0008	-0.003	1.8
0.003	-0.0008	-0.0008	-0.0023	1.5
0.003	0.0007	-0.003	-0.0023	1.9
0.0015	0.0007	-0.003	-0.0008	1.6
0.0007	0.0007	-0.0015	-0.0015	1.9
0.0007	-0.0008	-0.0015	-0.0008	1.6
0.003	-0.0023	0	-0.0008	2
0.0022	-0.003	-0.0008	-0.0008	1.6
0.003	-0.003	-0.0008	0.0007	1.8
0.003	-0.0015	0.0007	-0.0008	1.7
0.0045	-0.0023	0.0007	0.0007	1.8
0.0037	-0.0023	0.0007	-0.0008	1.6
0.003	-0.0015	0.0015	0	1.8
0.0052	-0.0008	0.0007	0.0015	1.8
0.0045	-0.0015	0	-0.0008	1.6
0.003	-0.0008	0	0.0007	1.6
0.0037	0.0007	0.0022	-0.0008	1.7
0.0052	-0.0008	0.0015	-0.0023	1.8
0.0052	-0.0008	0	-0.0008	1.8
0.0052	-0.0008	-0.0008	-0.0008	1.7
0.0052	-0.0015	-0.0015	0	1.6
0.003	-0.0008	-0.0015	0	1.7
0.003	-0.0015	-0.0008	0.0007	1.6
0.0037	-0.0008	0.0015	0.0015	1.7
0.003	0	0.003	0.0007	1.6
0.0045	-0.0008	0.003	0.0015	1.6
0.0045	-0.0008	0.0045	0.0015	1.8
0.0022	-0.0015	0.0015	0.0015	1.6
0.003	-0.0015	0.0007	0.0015	1.7
0.0007	-0.0008	0.0015	0	1.6
0.0022	0.0007	0.0007	-0.0008	1.6
0.0015	0	0.0007	-0.0008	1.8
0.0007	-0.0015	0.0007	-0.0015	1.7
0.0015	-0.0008	-0.0015	-0.0023	1.8
0.0007	-0.0023	-0.0015	-0.0023	1.6
0.003	-0.0023	0.0007	-0.0008	1.7
0.003	-0.0008	0	0	1.5
0.0022	0.0015	0.0007	-0.0008	1.8
0.0015	0.0007	0.0007	0.0007	1.7
0.003	0	-0.0008	0.0015	1.8
0.0037	-0.0008	0.0007	0.0015	1.6
0.003	-0.0023	0.0007	0.0007	1.7
0.003	-0.0023	0.0015	-0.0008	1.6
0.003	-0.003	0.0045	0.0007	1.8
0.003	-0.0015	0.0015	-0.0008	1.6
0.0015	0	0	-0.003	1.8
0.0022	-0.0008	0.0015	-0.003	1.8
0.003	-0.0008	0.0007	-0.003	1.7
0.0022	-0.0015	0.0022	-0.0038	1.8
0.0015	-0.003	0.0015	-0.0015	1.6
0.0037	-0.0015	0.0015	0	1.8
0.0037	-0.0008	0.0015	-0.0015	1.8
0.003	0.0007	0.0015	-0.0015	1.6
0.0022	0.0007	0.0015	-0.0008	1.7
0.0045	0.0007	0.0015	-0.0008	1.8
0.0037	-0.0008	0	-0.0015	1.6
0.0015	-0.0008	-0.0015	-0.0015	1.6
0.0015	-0.0008	-0.0015	-0.0015	1.8
0.0022	-0.0015	-0.0015	-0.0023	1.7
0.0015	-0.0008	-0.0008	-0.0053	1.8
0.0015	-0.0015	-0.0015	-0.0068	1.7
0.0007	0.0015	-0.0008	-0.0053	1.7
0.0007	0.003	0.003	-0.0046	1.7
0.0007	-0.0008	0.0022	-0.003	1.6
0.0007	0.0007	0.0037	0.0007	1.8
0.0015	-0.0015	0.0052	0.0007	1.6
0.003	-0.0015	0.0037	0.0007	1.7
0.0015	-0.0015	0.0045	-0.0008	1.6
0.0015	-0.003	0.003	0	1.8
0.0007	-0.0015	-0.0008	0.0007	1.8
0.0007	-0.0015	0	0.0007	1.9
0.0007	0.0015	0.0015	0.0007	1.7
0	0.0007	0.0015	0.0007	1.9
0.0015	-0.0008	-0.0008	0.0007	1.6
0.0015	0.0007	0.0007	0	1.8
0.0015	0.0007	0.0007	0.0007	1.6
0.0022	0.0015	0.0015	0.0022	1.6
0.0037	0.003	0.003	0.0007	1.7
0.0045	0.0015	0.0007	0.0007	1.8
0.0015	0.0015	-0.0008	-0.0008	1.7
0.0045	0	-0.0008	-0.0015	1.5
0.0045	0	-0.0008	-0.0023	1.9
0.003	0.0015	0.0022	-0.0015	1.5
0.003	0.003	0.0015	-0.0015	1.8
0.0015	0.0052	-0.0008	-0.0015	1.6
0.003	0.003	0.0007	-0.0008	1.8
0.003	0.003	0.0007	-0.0008	1.6
0.003	0.0015	-0.0008	-0.0008	1.8
0.0022	0.0015	0.0007	0.0007	1.8
0.0015	0	0	0	1.8
0.003	0	-0.0008	0.0015	1.6
0.0007	0.0007	-0.003	0.0015	1.8
0.0015	-0.0015	-0.0023	0.0007	1.7
0.003	-0.0015	-0.0008	-0.0008	1.6
0.0022	-0.0046	0.0015	0	1.8
0.0022	-0.0046	0.0015	0.0007	1.6
0.0015	-0.0038	0.0015	0.0007	1.8
0	-0.0046	0.0007	0.0022	1.6
-0.0008	-0.0008	-0.0008	0.0015	1.7
-0.0015	-0.0008	-0.0008	0.0015	1.6
-0.0008	-0.0015	-0.0008	0.0015	1.6
0.0007	-0.0008	0.0015	-0.0008	1.7
0.0007	-0.0015	0.0007	-0.0008	1.7
0.0007	-0.0015	0.0007	-0.0008	1.6
0.0007	-0.0023	0.0022	-0.0015	1.6
0.0015	-0.0015	0.0015	-0.0046	1.8
0.0015	-0.0008	0	-0.0015	1.7
0.0007	-0.0023	0.0007	-0.0008	1.8
0.0015	-0.003	0.0007	-0.003	1.8
0.0022	-0.0023	0.0015	-0.0015	1.8
0.0015	-0.0023	0.0007	-0.0008	1.8
0.0015	-0.0015	0.0015	-0.0015	1.6
0.003	-0.0008	-0.0008	-0.003	1.7
0.003	0	-0.0015	-0.0015	1.8
0.0007	0.0007	-0.0008	-0.0015	1.8
0	0.0015	-0.0023	-0.0008	1.7
0.0015	-0.0008	-0.0008	-0.0008	1.8
0.0007	-0.0008	-0.0008	-0.0008	1.6
0	-0.0015	0.0007	0.0015	1.8
0.0007	0	0.0015	0.0007	1.6
0.003	0	0	0.0015	1.7
0.003	-0.0008	-0.0023	0.0015	1.5
0.0022	-0.0008	-0.003	0	1.8
0.0022	-0.0015	-0.0023	-0.0023	1.5
0.0037	-0.0023	-0.0053	-0.0023	1.8
0.006	-0.003	-0.003	-0.0015	1.7
0.0067	-0.003	0	-0.0023	1.5
0.006	-0.0038	0	-0.0008	1.8
0.006	-0.0038	-0.0008	-0.0008	1.5
0.0052	-0.0015	0.0007	-0.0008	1.8
0.0045	-0.0008	0.003	-0.0008	1.5
0.0037	-0.0008	0.003	-0.0023	1.7
0.0015	-0.0015	0.003	-0.0015	1.4
0.0015	-0.0023	0.003	0.0015	1.7
0.0007	-0.0015	0.003	0.0015	1.4
0.0007	-0.0008	0.0022	0.0007	1.7
0.0007	0.0007	-0.0008	0	1.3
0.0007	0	0	-0.0008	1.7
0.0007	-0.0008	0.0015	-0.0008	1.5
0.0007	-0.0008	-0.0008	-0.0008	1.7
0.0015	-0.0008	-0.0015	0.0007	1.8
0.0007	0	0	0.0007	1.6
-0.0008	0.0007	-0.0015	0.0007	1.6
0	0	0.0015	-0.0015	1.6
0.0015	-0.0015	0.003	0.0007	1.7
0.0022	-0.0015	0.003	0.0007	1.4
0.0015	0.0007	0.0052	0	1.8
0.0015	0.0015	0.0037	0.0007	1.5
0.0015	-0.0015	0.0015	-0.0015	1.6
0.0015	-0.0023	0.0022	-0.0008	1.5
0.0015	-0.0023	0.0022	-0.0046	1.7
0.0007	-0.0015	0.0015	-0.003	1.6
0	-0.0008	0.0007	-0.0015	1.8
-0.0015	-0.0015	0.0007	-0.003	1.6
-0.0015	-0.003	0.0015	-0.0023	1.6
-0.0015	-0.0023	0	-0.0008	1.6
0	0.0007	0.0007	0.0015	1.6
0.0007	0.0007	0	0.0022	1.5
-0.0008	0.003	0.0015	0.0037	1.6
0.0007	0.003	0.0015	0.003	1.6
0.0015	0.0015	-0.0015	0.0052	1.7
0.0007	0.003	-0.0008	0.0127	1.7
-0.0015	0.0015	-0.0008	-0.0053	1.6
-0.0046	0.0015	-0.0015	-0.0353	1.5
-0.0046	0	0	-0.0181	1.7
-0.0046	-0.0008	0.0007	0.0037	1.6
-0.003	0	0.0015	-0.0015	1.5
-0.0008	0.0015	-0.0008	0.0052	1.6
0.0007	0.003	-0.0008	0.0045	1.6
0.0015	0.003	0.0037	0.009	1.7
0.0015	0.0007	0.0022	-0.012	1.8
0.0015	0	0.0022	-0.0353	1.4
0.003	0.0015	0.0015	-0.0068	1.6
0.0045	0.0007	0.0007	-0.0008	1.6
0.003	0	0.0007	-0.0015	1.8
0.0015	0	0.0015	0.0075	1.7
0	-0.0008	0	0.0022	1.5
0	-0.0008	-0.0008	0.0067	1.7
0	-0.0008	0.0007	0.0045	1.6
0.003	0.0007	0.0007	0.0045	1.8
0.0045	0.0007	0	0.0052	1.5
0.0022	0.0007	-0.0008	0.0045	1.8
0.0015	0.0015	-0.0008	0.006	1.6
0.003	-0.0008	-0.0008	0.0045	1.7
0.003	-0.0008	-0.0015	0.0052	1.8
0.0022	-0.0008	-0.0008	0.0052	1.8
0.0022	-0.0008	0.0022	0.006	1.6
0.0015	0.0007	0.0007	0.006	1.7
0.0007	0.0015	0.0015	0.0082	1.8
0	0.0007	0.0022	0.012	1.6
0.0007	-0.0008	-0.0008	0.0127	1.6
-0.0008	0.0007	0.0007	0.0037	1.7
-0.0008	0.0007	0.0037	-0.021	1.7
0	0	0.003	-0.024	1.6
0	-0.0008	0.0037	-0.0053	1.8
0.0022	-0.0008	0.0037	-0.0008	1.5
0.0015	-0.0008	0.0037	0.0007	1.8
0.003	-0.0008	0	0.0067	1.6
0.0007	-0.0008	-0.0008	0.0067	1.7
0.0015	0.0007	0.0015	0.009	1.6
0.0015	0.0015	0	0.009	1.7
0	-0.0008	0	0.0045	1.6
0.0015	-0.0015	0.0007	-0.0135	1.6
0.0015	-0.0015	-0.0008	-0.0188	1.7
0	-0.0015	0.0007	0.0022	1.7
0.0015	-0.003	-0.0008	0.0067	1.8
0.0045	-0.003	-0.0015	0.0082	1.7
0.0052	-0.0023	-0.0023	0.0067	1.7
0.0052	-0.0015	-0.0015	-0.0053	1.7
0.0037	-0.0008	-0.0015	-0.0015	1.6
0.0037	0	-0.0023	0.0015	1.7
0.0045	0	-0.003	0.0022	1.7
0.0045	-0.0008	-0.0015	0.0067	1.8
0.006	0	0.0007	0.0105	1.6
0.0075	-0.0008	0.0007	0.015	1.7
0.0075	-0.0023	-0.0008	-0.0015	1.5
0.0097	-0.0015	0.0007	-0.024	1.8
0.009	-0.0008	0	-0.0128	1.6
0.009	-0.0015	-0.003	-0.0015	1.8
0.0082	-0.0023	-0.003	-0.0008	1.5
0.0067	-0.0038	0	-0.0053	1.7
0.0075	-0.0046	0.003	-0.027	1.8
0.006	-0.0015	0.0007	-0.0143	1.8
0.006	-0.0008	0.0045	0.0015	1.8
0.0082	-0.0015	0.0037	-0.0015	1.6
0.0075	-0.0015	0.0007	0.0067	1.8
0.0082	-0.0023	0.003	0.0037	1.6
0.009	-0.003	0.0015	0.0067	1.8
0.0105	-0.0015	0.003	0.0067	1.6
0.0112	-0.003	0.0022	0.0022	1.8
0.0105	-0.0038	0.0007	0.0045	1.6
0.0105	-0.0053	0.0037	0.0105	2
0.0105	-0.0053	0.0015	0.0067	1.6
0.0112	-0.0046	0.0015	-0.0315	1.8
0.012	-0.0015	0.0037	-0.027	1.5
0.0112	-0.0008	0.0045	0.0157	1.8
0.012	-0.0008	0.003	0.012	1.7
0.0105	0.0007	0.0007	0.0015	1.9
0.0075	0.0007	0.0007	-0.0165	1.6
0.0075	0.0007	0.0007	-0.0443	1.7
0.0067	0.0007	0	-0.0278	1.9
0.0052	0.0022	0.0007	0.0022	1.6
0.0067	0.003	0.0015	0.0082	1.8
0.0052	0.0015	0.0015	0.0165	1.7
0.0045	0.0007	0.0007	0.024	1.8
0.0045	0.0007	0.0015	0.0232	1.7
0.003	0.0015	0.0022	0.0412	1.8
0.003	-0.003	0.0007	0.0225	1.8
0.0022	-0.0038	0.003	-0.057	1.8
0.0015	0.0015	0.0007	-0.0511	1.8
0	0.0015	-0.0008	0.0007	1.8
-0.0008	0.0007	-0.0008	-0.0015	1.8
0	-0.0015	0	0.0142	1.8
0	-0.0015	-0.0015	0.012	1.8
0	-0.0008	-0.0008	0.0142	1.8
-0.0008	0	0.0007	0.0232	1.8
-0.003	0.0007	-0.0008	0.0045	1.6
-0.0015	-0.0008	-0.0008	-0.0203	1.8
-0.003	0.0015	0.0015	-0.0173	1.8
-0.0038	0	0.0045	0.0195	1.8
-0.0008	0.0007	0.0037	0.0052	1.8
-0.003	0.0015	-0.0008	-0.0091	1.8
-0.003	-0.0008	-0.0008	0	1.7
-0.0015	0.0007	0	-0.0143	1.8
-0.0015	0.0007	0.0007	-0.0278	1.8
0.0007	-0.0015	0.003	-0.012	1.8
0.0022	-0.0008	0.0015	-0.0173	1.9
-0.0015	0.0007	0.0022	-0.0346	1.8
-0.0023	-0.0015	0.0015	0.0142	1.9
-0.0015	-0.003	0	0.0172	1.8
-0.0008	0.0007	0.0015	0.0322	1.8
0.003	0.0015	0.0015	0.0577	1.9
0.003	-0.0015	0	-0.0113	1.8
0.003	-0.0015	-0.0008	-0.0428	1.8
0.0037	-0.0015	-0.0023	-0.0135	1.8
0.0015	0	-0.003	-0.0053	1.9
-0.0008	0.0015	-0.003	-0.0053	1.8
-0.0023	0.0015	-0.0038	0.003	1.9
-0.003	0.0007	-0.0015	-0.0008	1.8
-0.0015	-0.0023	-0.0008	0.0052	2
-0.0046	-0.003	-0.0015	0.0105	1.7
-0.0053	-0.0068	-0.0023	0.018	1.9
-0.0075	-0.0053	-0.0015	0.018	1.8
-0.0083	-0.0008	-0.0015	0.006	2
-0.0068	0.0007	-0.0008	0.0052	1.9
-0.0046	0.0007	-0.0015	-0.0008	1.8
-0.0015	0	-0.0015	0.0022	2
-0.0015	0.0022	-0.0008	0	1.8
-0.0008	0.0015	0.0015	-0.0083	2
-0.0008	0	0.0022	-0.006	1.8
0.0007	0	-0.0015	-0.0008	2.1
0.0007	0	-0.0015	0	1.8
-0.0008	0.0007	0.0015	0	2.1
0.0007	0	0.0007	0.0007	1.8
-0.0008	0	0.0015	-0.0015	2
-0.0008	0.0007	0.0007	0	1.8
-0.0008	-0.0008	0.0022	-0.0023	2.1
-0.0015	0	0.003	0	2
-0.0015	0.0007	0.003	0.0015	2.1
-0.0015	0.0007	0.003	-0.0015	2
-0.0015	0.0007	0.0022	-0.0008	2.1
-0.0015	0.0015	0	-0.0015	2.1
-0.0015	0	-0.0015	0.0007	2.1
-0.0015	0	0.0007	0.0007	2
-0.0015	0.0007	0.0015	-0.0008	1.8
-0.0008	0.0007	0.0022	-0.0008	2.1
-0.0023	0.0007	0.0015	-0.0015	1.9
-0.0023	0.0015	0.0007	-0.003	2
0	-0.0008	0.0037	-0.0046	1.9
0.0015	-0.0008	0.003	-0.0046	2
0.0022	0.0007	0.0022	-0.0046	1.8
0.0022	-0.0015	0.0037	-0.0015	2.1
0.0007	-0.0015	0.003	0.0015	2.1
-0.0008	-0.0015	0.0037	0.003	1.9
0	-0.0015	0.003	0.0022	2.1
0.0015	0	0.0015	-0.003	2
0.0022	-0.0015	0.0015	-0.0046	2
0.0007	-0.0015	0.0015	-0.0023	2.1
0.0007	-0.003	0.0007	0.0015	2.1
0.003	-0.003	0.0007	0.0052	2.1
0.0112	-0.0023	0.0015	0.0052	2.2
0.0105	-0.0008	0.0007	0.0082	2.1
-0.0023	-0.0023	-0.0008	0.0045	2.2
-0.003	-0.0015	-0.0008	-0.0015	2.2
-0.003	-0.0008	-0.0015	-0.0008	2.1
-0.0053	-0.0015	0	-0.003	2.1
-0.0046	-0.0008	0.0007	-0.0008	2.1
-0.0046	-0.003	-0.0015	-0.0008	2.2
-0.0008	-0.0008	-0.0015	-0.0015	2
0.0015	-0.0015	-0.0015	-0.0015	2.2
0.0007	-0.0015	-0.0008	-0.003	2.1
0	-0.0008	0.0015	-0.0008	2.2
0.003	0	0.0007	-0.003	2.3
0.003	0.0015	0.0007	-0.003	2.2
0.0037	-0.0008	0.0007	-0.0023	2.1
0.006	0.0007	0.0007	-0.0053	2.1
0.0052	0.0015	0.0007	-0.003	2.3
0.0037	0.0015	0.0015	-0.0015	2.1
0.003	0.0022	0	-0.0008	2.2
0.003	-0.0008	-0.0015	0.003	2.2
0.003	0	-0.0008	0.0052	2.3
0.0037	0.0007	-0.0008	0.0045	2.1
0.003	-0.0008	-0.0015	0.0045	2.3
0.0015	0.0007	-0.0008	0.003	2.2
0.0045	0	-0.0015	-0.0023	2.3
0.0045	-0.0008	-0.0023	-0.0165	2.3
0.0052	-0.003	-0.0008	-0.0256	2.2
0.006	-0.003	0.0007	-0.0128	2.3
0.0082	-0.0015	0.0007	-0.0075	2.4
0.0082	-0.0015	-0.0008	-0.0053	2.3
0.0082	-0.0023	-0.0015	0.0007	2.2
0.0052	-0.0015	-0.0023	-0.0015	2.3
0.006	-0.0015	-0.0008	-0.0015	2.2
0.0067	-0.003	-0.0008	0.0007	2.4
0.0075	-0.0023	-0.0015	-0.0008	2.4
0.0067	-0.0008	-0.003	-0.0008	2.4
0.0052	-0.0008	-0.003	0.0007	2.4
0.0075	-0.0015	-0.0008	0.003	2.4
0.0082	-0.0015	0.0015	0.003	2.3
0.0105	-0.0008	0.0015	0.003	2.4
0.012	-0.0008	0.0022	0.0037	2.4
0.0105	0	0.0007	0.006	2.2
0.009	-0.0008	0.0007	0.0037	2.5
0.0075	-0.0015	0.0022	0.0015	2.2
0.0045	-0.0008	0.003	0.0015	2.4
0.0045	0.0007	0.0015	0.0045	2.5
0.0045	0	0.0007	0.0052	2.5
0.0052	-0.0008	-0.0008	0.0067	2.5
0.0082	-0.0015	0	0.009	2.3
0.0082	0.0007	0	0.0105	2.6
0.0082	0	-0.0008	0.0067	2.4
0.0067	0.0007	0.0022	-0.0128	2.6
0.0045	0.0007	0.003	-0.0256	2.3
0.0052	0.0007	0.0022	-0.0128	2.6
0.0045	0	0.0022	-0.0023	2.4
0.0022	0.0007	0.0015	-0.0008	2.7
0	0.0007	0.0022	0.0015	2.4
0.0007	0.0007	0.0007	0.0007	2.4
0.0015	0.0022	0.0015	0.0015	2.5
0.0037	0	0.0022	0.0007	2.6
0.0045	0	0.0045	0	2.6
0.0045	0.0007	0.0052	-0.0015	2.6
0.0052	0.0015	0.003	-0.0015	2.5
0.0022	0.0037	0.003	0.0007	2.5
0.0015	0.0022	0.0015	0	2.6
0.003	0.0015	0.0007	-0.0015	2.4
0.0052	-0.0008	0.0015	-0.0008	2.6
0.006	-0.0008	0.0015	0.0007	2.6
0.0052	-0.0015	0.0015	0.003	2.6
0.0045	-0.0023	0	0.0037	2.5
0.006	-0.0015	0.0007	0.003	2.6
0.0082	0	0.003	0.0015	2.6
0.0075	0.0007	0.0045	-0.0008	2.6
0.0082	-0.0008	0.003	-0.0008	2.6
0.006	0.0007	0.0015	0	2.4
0.006	0.0015	0.0022	-0.0008	2.6
0.0052	-0.0008	0.003	0.0015	2.6
0.0067	0	0.003	0.003	2.6
0.0082	0.0015	0.0007	0.0015	2.6
0.006	0.0015	0	0.0082	2.5
0.0082	0	-0.0008	0.015	2.5
0.0082	-0.003	0	-0.0083	2.6
0.0067	-0.003	0.0015	-0.0181	2.6
0.0052	-0.003	0.0007	0.0165	2.6
0.0052	-0.0046	-0.0023	0.0052	2.8
0.0067	-0.0015	-0.0038	-0.0181	2.6
0.006	-0.0008	-0.0015	-0.0083	2.8
0.0075	-0.0015	-0.0008	-0.0128	2.4
0.0075	-0.003	-0.003	-0.0023	2.7
0.006	-0.0053	-0.0008	-0.0038	2.6
0.0052	-0.0046	0	-0.0293	2.9
0.0037	0.0015	0.0015	0.0037	2.7
0.0045	0.0007	0	0.039	2.7
0.003	-0.0023	-0.003	0.0045	2.7
0.0007	-0.0015	0.0007	-0.0518	2.7
0.0007	0.0007	0.0015	-0.0218	2.9
0.0007	-0.0008	0.0007	0.0277	2.6
0.0007	-0.0015	-0.0015	0.0165	2.8
0.0007	0	-0.0015	-0.0008	2.8
-0.0008	0	-0.0008	-0.0323	2.9
0.0007	0.0015	0.0007	-0.0083	2.7
0.0015	-0.0008	0.0007	0.0405	3
0.0007	-0.0015	-0.0008	0.027	2.6
0.0007	0.0015	0	0.003	3.1
0.0007	0.0015	0.0007	0.0277	2.5
0.0022	0.003	0.0015	0.0427	3
0.0022	0.0007	0.0015	-0.0053	2.6
0.0015	0.003	-0.0008	-0.0675	2.9
-0.0008	0.0037	-0.0015	-0.099	2.9
-0.0008	0.0045	-0.0015	-0.0668	2.9
-0.0015	0.003	-0.0015	-0.021	2.9
-0.0023	0.0007	-0.0008	-0.012	2.8
-0.0023	-0.0008	0.0015	-0.0195	3
-0.003	-0.003	0.003	0.006	2.7
-0.0015	-0.0015	0.003	0.0465	3.1
-0.0046	-0.0046	0.0007	0.0457	2.7
-0.0038	-0.006	0.0007	0.0517	3
-0.0046	-0.0038	0.0007	0.0352	2.7
-0.0068	-0.0038	0.0007	0.009	3
-0.0068	-0.0023	0.0007	-0.0091	2.8
-0.0068	-0.0023	0.0015	-0.0503	3
-0.006	0.0007	0.0007	-0.0278	2.9
-0.0046	0.0007	0.0037	0.018	3.1
-0.0046	0.0022	0.0015	0.021	2.9
-0.0053	0.003	-0.0015	0.033	3
-0.0046	0.0007	0.0007	0.009	2.9
-0.0046	0.0007	0	-0.0083	3
-0.0053	-0.0015	0.0007	0.0127	3
-0.0053	-0.0008	0.003	-0.0008	3
-0.0038	-0.0015	0.0045	0	3.1
-0.0038	-0.0015	0.0022	-0.0046	2.9
-0.003	-0.003	0.0015	0.0052	3.1
-0.003	-0.003	0.0015	0.0195	3
-0.003	-0.0015	-0.0015	-0.0143	3.1
-0.0053	-0.003	-0.0023	-0.0218	3.2
-0.0068	-0.0015	-0.0023	-0.0256	3
-0.0046	-0.0023	-0.0038	-0.0248	3.2
-0.0038	-0.0015	-0.0015	0.003	3.1
-0.0015	0.0007	0.0007	0.0217	3.2
0.0007	0.0007	0	0.036	3.1
0.0007	-0.003	0.0007	0.0795	3
-0.0008	-0.0046	0.0007	0.0615	3.2
-0.003	-0.0023	0.0007	-0.0323	3
-0.003	-0.0008	0.0007	-0.0248	3.2
-0.0046	0.0007	-0.0015	-0.0091	3.1
-0.0053	0.0007	-0.003	-0.0165	3.1
-0.0046	-0.0008	-0.0015	0.003	3.2
-0.0046	-0.0008	-0.0008	-0.003	3.1
-0.0046	-0.003	0	0.0082	3.1
-0.0038	-0.0038	-0.0023	0.0007	3.2
-0.0053	-0.0008	-0.0008	-0.0038	3.1
-0.0053	0.0015	-0.0008	-0.0008	3.2
-0.0068	0.0015	0.0007	-0.0015	3.1
-0.0046	0.0015	-0.0008	0.0142	3.2
-0.003	0.0007	-0.0008	0.0202	3.1
-0.003	0	0.0015	-0.0098	3.3
-0.0038	0	0.0022	-0.0495	3.3
-0.0053	-0.0008	0.0045	-0.0158	3.3
-0.0046	0	0.003	0.0022	3.2
-0.0015	0.0015	0	0.012	3.2
-0.0008	0.0015	-0.0023	0.027	3.5
-0.0008	0.003	-0.0015	-0.024	3.3
0	0	0.0015	-0.0256	3.2
0.0022	-0.0053	-0.0015	-0.0015	3.3
0.0007	-0.0015	-0.003	-0.0353	3.4
-0.0008	0.003	-0.0015	-0.0856	3.1
-0.0008	0.0045	0	-0.0848	3.4
-0.0008	0	0.0007	0.0142	3.3
-0.0008	-0.0053	0.0007	0.138	3.5
0	-0.003	0.003	0.1222	3.3
0.0022	0	0.0067	-0.0143	3.4
0.0015	0.0007	0.0082	-0.048	3.5
0.0007	-0.0008	0.0075	-0.0315	3.4
0.0007	-0.0023	0.0052	-0.0833	3.4
-0.0008	-0.0015	0.0052	-0.0653	3.5
-0.0008	0	0.0045	-0.0361	3.5
-0.0015	0.0007	0.0007	-0.0008	3.4
0.0007	0.0007	-0.0008	0.0517	3.6
0.0007	-0.0015	-0.0008	0.0135	3.5
0.0015	-0.003	-0.0015	0.0217	3.6
0.0037	-0.0038	-0.0008	0.1207	3.6
0.0052	-0.0083	0.0015	0.0397	3.5
0.006	-0.0046	0.0015	-0.1065	3.6
0.0045	0.0022	0.0015	-0.003	3.6
0.0067	0.0015	0.0015	0.0307	3.7
0.0067	0.0045	0.0007	-0.003	3.6
0.0067	0.003	-0.0015	0.0285	3.6
0.006	0.0022	-0.0053	-0.0075	3.6
0.0045	0.0015	-0.0053	0.018	3.6
0.0052	-0.0008	-0.003	0.0082	3.6
0.0022	0	-0.0038	-0.0285	3.6
0.0015	0	-0.0046	-0.0218	3.8
0.0022	0.003	-0.0053	0.003	3.8
0.003	0.003	-0.0046	0.006	3.6
0.0022	0.0015	-0.003	-0.006	3.8
0.0045	-0.0008	-0.0015	0.0052	3.7
0.0045	0.0007	-0.0015	-0.0068	3.7
0.003	0.0007	-0.0008	0.006	3.7
0.003	0	0.0007	0.0037	3.7
0.0015	0.0007	0.0015	0.0037	3.8
0.003	0	0	0.018	3.7
0.0037	-0.003	0.0007	0.0247	3.9
0.006	-0.0038	-0.0008	0.033	3.6
0.006	-0.0015	0.0015	-0.003	4
0.0045	-0.0008	0.0015	-0.0503	3.9
0.0045	-0.003	0.0015	-0.0548	3.9
0.0045	-0.0008	0.0022	-0.0263	3.9
0.0037	0	0.0015	-0.0165	3.9
0.0052	0.0007	0.0022	0.0127	4.1
0.0067	0	0	-0.012	3.9
0.0067	-0.003	-0.003	-0.0713	4.1
0.006	-0.0023	-0.0023	-0.0053	3.9
0.0045	-0.0046	0.0007	0.09	4.1
0.003	-0.0098	0.0015	0.084	3.9
0.0015	-0.0038	0.0007	0.0067	4.1
0.003	-0.0008	0	-0.0135	3.9
0.003	-0.0008	-0.0015	-0.0465	4.1
0.0015	0.0052	0.0022	-0.1028	4
0.0007	0.0045	0.0037	-0.0458	4.1
0	0.0022	0.0007	0.0007	4
-0.0008	0.0015	-0.0008	0.009	4
0.0007	-0.0015	-0.0015	0.0307	4.1
-0.0008	0.0007	0	0.0547	4.2
-0.0008	-0.0015	0.0007	0.1177	4.3
-0.0008	-0.0068	0	0.084	4
-0.0008	-0.003	0.0015	0.0082	4.3
0.0007	0.0015	0.0007	0.0337	4
-0.0008	0.0022	0.0015	0.0195	4.4
0	0.003	0.003	0.024	4.1
-0.0015	-0.0015	0.0022	0.0382	4.3
-0.0008	-0.0038	0.0015	-0.0555	4.1
0	-0.0046	0.0007	-0.1815	4.3
0.003	-0.003	0.0007	-0.1073	4.3
0.006	-0.003	0.003	-0.0015	4.3
0.0045	-0.0038	0.003	-0.0458	4.5
0.0045	-0.003	0.0022	-0.0083	4.3
0.0045	-0.0008	0.0007	-0.0428	4.4
0.0022	0.003	0	-0.0443	4.5
0.003	0.0045	0.0015	0.0127	4.5
0.0052	0.0045	0.0015	-0.0015	4.4
0.0082	0.0015	0.0007	0.0015	4.4
0.0082	0.0022	0	-0.0038	4.4
0.0067	0.006	0.003	0.0555	4.4
0.0075	0.0007	0.003	0.075	4.6
0.009	-0.003	0.0022	0.0405	4.5
0.0082	-0.0015	0.0007	0.0502	4.5
0.009	0.0007	0.0007	0.0765	4.5
0.0075	0.0015	0.003	0.0712	4.6
0.0052	-0.0008	0.006	-0.0645	4.3
0.0037	0.0052	0.0067	-0.1208	4.7
0.0045	0.0015	0.006	0.018	4.4
0.009	-0.0068	0.0037	0.0765	4.8
0.0082	-0.0053	0.0015	0.0825	4.7
0.0097	-0.0068	-0.0038	0.084	4.5
0.0142	-0.0038	-0.0053	0.051	4.7
0.0217	0.0007	-0.0046	0.0037	4.6
0.0322	0.0082	-0.0008	-0.1058	4.7
0.0465	0.012	0.003	-0.1253	4.5
0.0607	0.003	0.0015	-0.0773	4.9
0.069	-0.0008	-0.0015	-0.0758	4.7
0.072	-0.003	-0.0023	-0.0105	4.9
0.069	-0.0008	-0.0015	0.0082	4.7
0.0585	0.003	-0.0008	-0.0608	4.8
0.0427	0.0015	-0.0008	-0.0818	4.6
0.0262	0.0007	0.0007	-0.0533	5
0.009	0.0015	0.003	0.0007	4.8
-0.0046	0.0022	-0.0008	0.0097	5
-0.0105	0.0007	-0.0015	0.0097	4.8
-0.0158	-0.0038	-0.0008	0.012	4.9
-0.0158	-0.0053	-0.0038	0.0195	4.9
-0.015	-0.006	-0.0046	0.0292	4.9
-0.012	-0.0053	-0.0046	0.0172	5
-0.0083	-0.0046	-0.003	0.0247	4.9
-0.0075	-0.0053	-0.0023	0.009	5.2
-0.0091	-0.0046	-0.0008	-0.0083	5
-0.0105	-0.0023	0.0015	-0.015	5.2
-0.0091	-0.003	0.0007	-0.0308	5
-0.0091	-0.0053	-0.0046	-0.006	5.2
-0.006	-0.0083	-0.003	0.078	5.2
-0.0053	-0.0098	-0.003	0.159	5.2
-0.0038	-0.0068	-0.0015	0.1695	5.2
-0.0023	-0.0083	0.0007	0.1582	5.2
-0.0023	-0.003	0.003	0.087	5.2
0	0.006	0.003	-0.0518	5.2
-0.0015	0.009	0.003	-0.177	5.1
-0.0046	0.009	0.0037	-0.1635	5.3
-0.0068	0.0015	0.0007	-0.0465	5.3
-0.0068	-0.003	0.0022	-0.0728	5.3
-0.0068	-0.0015	0.0022	-0.114	5.4
-0.003	0	0	-0.0795	5.3
0	-0.0046	0	0.0877	5.4
-0.003	-0.0143	0	0.1965	5.3
-0.0015	-0.006	0	0.0675	5.4
-0.003	0.003	-0.0008	0.0105	5.3
-0.0068	0.0067	0.003	-0.0233	5.4
-0.012	0.009	0.0022	-0.03	5.5
-0.0158	0.006	-0.0008	-0.0458	5.3
-0.0143	0	-0.0015	-0.0263	5.6
-0.0128	-0.0053	-0.0015	0.0367	5.5
-0.0083	-0.0038	0.0007	0.0217	5.7
-0.0068	-0.0046	-0.0008	0.0652	5.7
-0.006	-0.0038	-0.0023	0.0495	5.7
-0.006	0	-0.0015	0.0472	5.7
-0.006	0	-0.0015	0.0067	5.5
-0.0038	0.003	-0.003	-0.1553	5.7
-0.0046	0.0015	-0.0015	-0.207	5.7
-0.003	0.0037	0.003	-0.123	5.8
-0.003	0.0045	0.0045	0.006	5.6
-0.0053	-0.003	0.003	0.057	5.9
-0.0091	-0.0008	0.0045	0.0157	5.7
-0.0105	0.003	0.0045	0.0352	5.8
-0.0105	0.0052	0.0007	0.0285	5.8
-0.0091	0.003	0.003	0.0097	5.8
-0.0091	-0.0023	0.0052	0.0345	5.8
-0.012	0.0022	0.003	0	5.9
-0.0135	0.006	0.0015	0.003	5.8
-0.015	0.0067	-0.0015	0.024	5.9
-0.0158	0.0007	-0.0046	0.0645	5.9
-0.0165	-0.006	-0.0046	0.051	6
-0.0158	-0.003	-0.0023	-0.0098	6.1
-0.0143	-0.0046	-0.0008	0.0232	5.9
-0.0143	-0.003	-0.0015	0.021	6.1
-0.015	-0.0015	0	-0.0405	6.1
-0.015	-0.0015	0.0015	-0.096	6.1
-0.0113	-0.003	0.003	-0.0091	6
-0.0075	-0.0098	0.003	0.0735	6.2
-0.0046	-0.0046	0.0015	-0.0135	6.1
-0.006	-0.0008	0.0007	-0.0098	6.2
-0.0053	-0.0015	-0.0008	0.0052	6.1
-0.0053	0.0052	-0.0015	0.0165	6.3
-0.006	0.0075	-0.0008	0.0952	6.3
-0.0053	0.0052	-0.0008	0.081	6.3
-0.0023	0.003	-0.0008	0.0097	6.2
-0.0008	0	0.003	-0.0495	6.4
0.0015	-0.006	0.0045	0.039	6.5
0.0015	-0.0113	0.0022	0.0712	6.4
0.0037	-0.006	0.003	-0.0458	6.5
0.006	0.0067	0.003	-0.1628	6.4
0.0052	0.0142	0	-0.273	6.4
0.003	0.006	-0.0023	-0.1448	6.6
0.0037	-0.0008	-0.0015	0.0007	6.4
0.003	-0.0008	0	0.0457	6.7
0.0037	-0.0053	0.003	0.0885	6.4
0.0015	-0.006	0.0052	0.0697	6.7
0.0015	-0.0068	0.0052	0.0555	6.4
0.0045	-0.003	0.003	-0.0315	6.7
0.0067	-0.0015	0	-0.027	6.5
0.0067	0	-0.0015	-0.0443	6.7
0.0075	0.003	-0.0015	-0.0765	6.7
0.0067	-0.0015	0.0007	0.087	6.7
0.0067	-0.0046	0.0007	0.0817	6.8
0.0067	-0.0008	0.0015	-0.0203	6.8
0.0052	0	0.0007	-0.0143	7
0.0052	0.0007	0.0007	-0.0256	6.8
0.0082	0.0022	0	-0.0068	7
0.009	0.0045	-0.0015	-0.0075	6.8
0.009	0.009	-0.0015	-0.0158	7.2
0.009	0.003	0.0007	0.0802	6.8
0.012	-0.0068	0.0015	0.168	7.2
0.0127	-0.0083	-0.0008	0.0922	7.1
0.0142	-0.0046	-0.0008	0.0232	7.2
0.0157	-0.006	-0.003	0.0382	7
0.0127	-0.0046	-0.0053	0.0022	7.2
0.012	0.0015	-0.0015	-0.033	7.1
0.0097	0.003	0	-0.0998	7.2
0.009	0.0052	0.0045	-0.1403	7.2
0.0082	0.003	0.0082	-0.1485	7.2
0.0082	-0.0038	0.0052	-0.0173	7.3
0.0112	-0.0143	0.006	0.1192	7.4
0.012	-0.0143	0.0045	0.0157	7.3
0.0105	-0.003	0.0015	-0.0218	7.4
0.0082	0.0037	-0.0008	-0.0046	7.6
0.0105	0.012	0.0007	0.0682	7.6
0.0105	0.0082	0.0007	0.135	7.6
0.0075	-0.003	-0.003	0.0525	7.6
0.0045	-0.003	-0.0046	0.0577	7.7
0.003	-0.0046	-0.0038	0.0637	7.6
0.0022	-0.003	-0.003	0.0277	7.6
0.0015	0.0007	0.0022	-0.0765	7.7
0.0037	0.0045	0.0045	-0.1935	7.6
0.0067	0.0045	0.0052	-0.078	7.8
0.0067	0.0037	0.0067	-0.0181	7.6
0.0037	0.0007	0.0052	-0.0046	7.8
0.0022	-0.0053	-0.0008	0.072	7.9
0.003	-0.0053	-0.0015	0.0607	7.8
0.0022	-0.003	-0.0015	0.081	7.9
0.0045	-0.0038	-0.0038	0.0502	7.9
0.003	-0.0015	-0.0023	-0.0735	8
0.0015	0.0037	-0.0008	-0.186	7.9
0.0022	0.003	-0.0008	-0.15	8
0.0015	-0.0015	0.0022	-0.0338	8
0.003	-0.003	0.0045	0.0045	8.2
0.0082	-0.0015	0.0052	0.0375	8.1
0.0082	-0.0038	0.0052	0.0337	8.4
0.0075	0	0.0067	0.009	8.1
0.0052	0.0082	0.0045	-0.0735	8.1
0.0015	0.006	0.0015	-0.0893	8.1
0.0015	-0.0008	0.0045	-0.0098	8.4
0.0022	-0.0015	0.0045	-0.0203	8.4
0.0015	-0.0015	0.0015	-0.0195	8.2
0.0007	0.0022	-0.0008	-0.0181	8.5
-0.0008	0.0045	-0.0008	-0.033	8.3
-0.003	0.0037	-0.0023	-0.0555	8.5
-0.0046	0.0052	-0.0038	-0.027	8.4
-0.0023	-0.0015	-0.0038	0.1215	8.8
0.0007	-0.0098	-0.0015	0.1612	8.6
0.0015	-0.0143	-0.0008	0.1327	8.9
0.0015	-0.015	0.0007	0.2625	8.7
0.0007	-0.0188	0.003	0.3015	8.8
0.0007	-0.015	0.0007	0.2062	8.6
-0.0008	-0.0046	-0.003	0.1395	8.8
0.0007	-0.0008	-0.0053	-0.1853	8.7
-0.0015	0.009	-0.003	-0.3473	8.8
-0.003	0.0142	-0.0008	-0.0915	8.7
-0.0008	0.009	-0.0008	-0.0015	8.9
-0.0015	0.0022	0.0007	0.039	9
-0.003	0.003	-0.0046	-0.0578	8.7
-0.0046	0.0015	-0.0068	-0.249	9.2
-0.0046	0.0037	-0.0038	-0.1155	9
-0.0046	0.0075	-0.003	-0.1245	9.2
-0.006	0.0045	-0.003	-0.1508	9
-0.0046	0.0007	-0.0015	-0.0278	9.3
-0.0046	-0.0015	0	-0.0398	9
-0.003	0.0022	0.003	0.0457	9.3
-0.0015	-0.0008	0.0022	0.0952	9.3
-0.0008	-0.0105	0.0022	0.108	9.5
0.0007	-0.0053	0	0.1012	9.4
0.0007	-0.003	-0.0023	0.0382	9.4
0.0007	-0.0091	0.0007	0.0292	9.4
0.0007	-0.0083	0.003	0.0172	9.4
0.0007	-0.0098	0.0015	0.0555	9.4
0.0015	-0.0075	-0.0015	0.0555	9.5
0.0052	-0.0038	0	0.0285	9.5
0.0067	-0.0038	0	-0.0083	9.5
0.0082	0.0067	0.0007	-0.0788	9.6
0.009	0.0097	-0.0015	-0.0405	9.8
0.009	0.0075	-0.0038	0.0127	9.6
0.0105	0.0082	-0.003	-0.0443	9.7
0.0067	0.0082	-0.0008	-0.0668	9.7
0.0037	0.0067	0.0022	-0.0218	9.9
0.0037	0.003	0.0045	0.0067	9.8
0.0195	-0.0008	0.0037	0.0322	9.9
0.0315	-0.0053	0.0007	0.0502	9.9
0.0142	-0.003	0	0.0802	10.1
0	0.0052	-0.0008	0.0697	10.1
0.0045	0.006	-0.003	-0.0218	9.9
-0.0023	0.0097	-0.0008	-0.096	10.1
-0.0015	0.0075	0.0045	-0.0803	10.2
0.0007	0.0067	0.006	-0.0113	10.1
0.0022	-0.0038	0.003	0.069	10.2
0.0045	-0.0158	0.0022	0.0742	10.3
0.003	-0.0046	0.0015	0.0105	10.2
0.0067	-0.0023	-0.003	0.012	10.4
0.0067	-0.0053	-0.0053	0.0487	10.2
0.0075	-0.012	-0.0046	0.0285	10.4
0.0082	-0.0091	-0.003	-0.0938	10.3
0.0082	0.0052	0.0007	-0.1035	10.6
0.0067	-0.0008	0.0015	0.0112	10.6
0.0015	0.0015	0.0007	0.0165	10.6
0	0.0007	0.0007	0.021	10.5
0.0007	-0.0015	0.0015	0.0082	10.6
0.0022	0.0007	0	-0.0091	10.7
0.003	0.0007	0.0007	-0.0046	10.7
0.0022	0.0045	0.003	-0.015	10.7
0.0007	0.0007	0.003	-0.0075	10.7
0.0007	0.0007	0.0015	-0.0053	10.8
-0.0008	-0.0015	0.0007	0.0202	10.8
0.0015	-0.0068	-0.0008	0.024	11
0.003	-0.0068	-0.0015	0.0127	11
0.0022	-0.0046	-0.0008	0.009	11.1
0.003	-0.0008	0.0015	-0.0008	10.9
0.0045	-0.0015	0.0015	0.0045	11.1
0.0037	-0.0008	0.0037	0.0045	11
0.0022	0.0007	0.0045	0.009	11.2
0.0007	0.0007	0.0015	0.0165	11.2
-0.0023	0.0007	-0.0008	0.0217	11.2
-0.0053	0.0007	-0.0023	0.0202	11.4
-0.0068	0.0022	-0.0046	0.027	11.3
-0.0068	0.0015	-0.003	0.039	11.5
-0.0038	0.0015	0	-0.021	11.3
-0.0046	0.0015	0.0007	-0.1478	11.5
-0.0046	-0.0015	0.0007	-0.0623	11.4
-0.003	-0.0083	0.0015	0.1177	11.5
-0.0015	-0.0053	0.0045	0.0007	11.6
0	0.0052	0.003	-0.0856	11.6
-0.0008	0.0015	0.0015	-0.0405	11.6
-0.0008	0.0007	-0.0008	-0.0308	11.6
0.0015	-0.003	0	0.0157	11.6
0.006	-0.0053	0.0007	0.0337	11.6
0.0067	-0.0038	-0.003	0.0255	11.8
0.0052	-0.003	-0.0015	-0.0083	11.7
0.0022	-0.0008	0	-0.0443	11.9
0.0015	0.0007	0.0022	-0.0511	11.8
-0.0008	0.0067	0.0015	0.0007	11.9
-0.0015	0.0075	0.0007	0.033	11.8
0.0015	0.0082	-0.0008	0.0217	11.8
0.003	0.0045	-0.0023	0.0292	12.1
0.0037	0.0007	-0.003	0.0262	11.8
0.0015	-0.0008	-0.0015	0.0052	12.1
0.0022	-0.0038	-0.0008	-0.0548	11.9
0.0022	-0.0015	0	-0.0053	12.3
-0.0008	-0.003	0.003	0.1102	12.1
-0.0053	-0.0075	0.0045	0.0487	12.1
-0.0083	-0.0091	0.0052	-0.0728	12.1
-0.0053	-0.0053	0.003	-0.027	12.3
-0.0038	-0.003	0.0022	0.045	12.1
-0.0015	0	-0.0008	0.015	12.4
-0.003	0.006	-0.0008	-0.033	12.3
-0.0038	0.0105	0.0015	-0.1335	12.4
-0.0046	0.0052	0	-0.0728	12.4
-0.0046	-0.0008	0.0007	0.0255	12.4
-0.003	0.0007	-0.0008	-0.012	12.7
-0.0015	-0.0008	0.0015	0.0487	12.4
0.0007	-0.0008	0.0022	0.0675	12.7
0.0015	-0.003	-0.0008	0.0555	12.6
0.0045	-0.0091	-0.0008	0.0525	12.8
0.0037	-0.0128	-0.0015	0.0517	12.6
0.0045	-0.015	0	0.036	12.8
0.003	-0.0083	0.0007	-0.1275	12.6
0.0015	0.0045	0.0007	-0.2408	12.7
0.0037	0.015	0.0015	-0.0878	12.8
0.003	0.0232	0.0045	0.1057	13
0.0007	0.0165	0.0052	0.0705	12.9
-0.0008	0.0007	0.0052	0.0337	12.9
-0.0008	-0.003	0.0052	0.0802	12.9
-0.003	-0.0083	0.0015	0.0825	13
-0.0053	-0.0105	-0.0008	0.0937	13
-0.0038	-0.006	-0.003	0.0952	13.1
-0.0046	0	-0.0046	0.0532	13.1
-0.006	0.0082	-0.0046	-0.0578	13.1
-0.0046	0.012	-0.0015	-0.1418	13.1
-0.003	0.009	-0.0038	-0.1335	13.3
-0.003	-0.0008	0.0007	-0.1275	13.3
-0.0046	0.0007	0.003	-0.1021	13.3
-0.0015	0.0127	0.0015	-0.0473	13.3
0.0015	0.0157	-0.0008	-0.0015	13.4
0.0045	0.009	-0.0015	-0.0068	13.3
0.0045	-0.0023	0.0015	-0.0188	13.5
0.003	-0.003	0.0022	-0.0315	13.3
0.0022	-0.0023	0.0022	-0.0383	13.5
0.0015	-0.0181	0.003	0.0067	13.5
0.006	-0.0248	0.0015	-0.0046	13.6
0.0045	-0.0143	0.0052	0.0052	13.5
0.006	-0.0181	0.003	0.162	13.7
0.0127	-0.027	0.0022	0.216	13.7
0.0217	-0.0128	0.0045	0.093	13.6
0.0127	0.003	0.0007	0.0352	13.8
0	0.0112	-0.0015	0.006	13.7
0.0037	0.0165	0	-0.0128	13.9
0.0015	0.009	0	-0.0053	13.6
0.003	0.0022	-0.0015	-0.0256	14
0.0045	-0.0038	-0.0046	0.024	13.8
0.0045	-0.0233	-0.0046	0.093	14
0.0045	-0.0308	-0.003	0.0855	13.8
0.0015	-0.012	-0.003	0.027	14.1
0.0045	-0.0015	-0.0015	0.0172	13.9
0.003	0.003	0	-0.057	14.1
0.0052	0.009	0.003	-0.1328	14
0.0037	0.0067	0.0045	-0.0608	14.3
0.0022	0.0067	0.003	-0.0458	14.1
0.0015	0.0075	0.0007	-0.0405	14
0.0015	0.0097	0.0007	-0.0203	14.4
0.0015	0.0075	0.0007	-0.0315	13.9
-0.0008	0.003	0.0007	-0.0293	14.4
-0.0008	0.0015	0.0045	-0.0398	14.3
0.0007	-0.0015	0.003	-0.0098	14.4
0.0045	-0.0105	0.0007	0.0495	14.3
0.0045	-0.0188	-0.0008	0.096	14.4
0.0052	-0.0105	-0.0008	0.0547	14.4
0.009	-0.0038	0.0007	0.009	14.5
0.0105	-0.0008	0.0007	-0.0083	14.4
0.0105	0.0045	0.0015	-0.0495	14.5
0.0037	0.003	0.0015	-0.0293	14.5
-0.0046	0.0007	-0.0046	-0.0615	14.5
-0.0105	0	-0.0015	-0.0585	14.5
-0.0143	0.0052	-0.0015	0.0382	14.8
-0.0128	0.0045	-0.003	0.0442	14.7
-0.0091	0.003	0.0007	0.0292	14.7
-0.0068	0.0045	0	-0.0105	14.8
-0.006	0.0045	-0.0023	-0.0173	14.7
-0.0046	0.0052	-0.0038	0.0322	14.9
-0.0046	0.003	-0.0023	0.0285	14.8
-0.003	0.0015	-0.0008	0.0442	14.8
-0.0015	0.0007	-0.0008	0.0292	14.9
-0.0053	0.0007	0.0007	-0.0233	14.8
-0.0083	0.0015	0.003	-0.0803	14.8
-0.0053	0.0052	0.0067	-0.105	14.9
-0.0046	0.0015	0.0045	-0.03	15.2
-0.003	-0.0038	0.0037	-0.012	14.9
0.0007	-0.0053	0.0045	-0.0165	15
0.003	-0.0068	0.0022	0.012	15.1
0.0067	-0.0075	0.0037	0.0127	15
0.009	-0.0023	0.0052	0.0375	15.2
0.0097	0.003	0.0067	0.0495	15.2
0.009	0.0007	0.0045	0.0705	15.3
0.009	0.009	0.0007	0.081	15
0.012	0.0157	0.0007	0.054	15.3
0.0135	0.009	0.0015	0.0172	15
0.0135	0.0045	0.0037	-0.1013	15.3
0.0105	0.0037	0.006	-0.1935	15.2
0.0067	0.003	0.006	-0.1245	15.3
0.0037	-0.003	0.003	-0.0083	15.4
0.006	-0.006	0.0022	-0.0195	15.6
0.0127	-0.0008	0.003	-0.0323	15.3
0.0142	-0.0008	0.0007	0.015	15.5
0.015	-0.003	0.0015	0.0037	15.6
0.0142	-0.0075	0.0007	0.057	15.4
0.0142	-0.0128	-0.0008	0.1035	15.5
0.018	-0.0105	-0.0015	0.0495	15.6
0.018	-0.003	-0.0015	-0.0203	15.7
0.012	-0.0015	0	-0.0975	15.6
0.0067	0.0007	0	-0.0856	15.6
0.0052	0.003	-0.0008	0.0067	15.6
0.0045	0.0007	0.0007	0.0667	15.7
0.0022	-0.0038	0	0.0765	15.7
0.0015	-0.012	-0.003	0.0165	15.8
0.0022	-0.0195	-0.0023	-0.0075	15.7
0.003	-0.0181	-0.0038	0.048	15.8
0.003	-0.0053	-0.0046	0.0142	15.8
0.0015	0.0052	-0.0008	-0.0308	15.9
0.0022	0.0127	0.0015	-0.0323	15.9
0	0.0142	0.0015	-0.0068	15.9
-0.0038	0.0142	-0.0008	0.0352	16.1
-0.006	0.012	-0.003	0.003	15.9
-0.0068	0.0022	-0.003	0.018	16.2
-0.0083	0	-0.003	0.0142	15.9
-0.0075	0.0067	-0.0046	-0.0256	16
-0.0091	0.0052	-0.0023	-0.0068	16.1
-0.0091	-0.0105	0	0.0217	16.2
-0.0068	-0.0135	0.0015	0.0165	16.2
-0.0015	-0.0053	0.0045	0.009	16.2
0	-0.0128	0.0045	0.084	16.2
-0.0008	-0.0128	0.0052	0.1087	16.3
0.0007	0.0067	0.0052	0.051	16.3
0.0007	0.018	0.0015	-0.0285	16.1
0.003	0.0097	0.0007	-0.1065	16.4
0.0022	0.0037	0.003	-0.108	16.3
0.0015	-0.0068	0.0015	-0.1103	16.3
0.0015	-0.0293	0.0037	-0.0263	16.4
-0.0008	-0.0278	0.003	0.0495	16.4
-0.0038	-0.0075	-0.0008	0.0202	16.6
-0.0046	-0.003	0	0.075	16.5
-0.0023	0.003	0	0.0307	16.6
-0.003	0.0097	-0.0008	0.0045	16.5
-0.003	0.0082	0	0.0165	16.6
-0.0053	0.0067	-0.0015	-0.0256	16.6
-0.0083	0.0022	-0.0008	-0.0143	16.6
-0.0091	0.0007	-0.003	-0.0233	16.6
-0.0083	-0.0015	-0.003	0.0337	16.9
-0.0046	-0.0015	-0.0008	0.042	16.6
-0.0023	-0.0015	0	0.0382	16.9
-0.0008	-0.0038	-0.0008	0.0502	16.7
-0.0015	-0.003	-0.0008	0.021	16.7
0	-0.0015	-0.0008	-0.0375	16.8
0.0052	0.0037	-0.0015	-0.1583	16.8
0.0082	0.0082	0	-0.1463	16.9
0.0052	0.006	-0.0015	-0.057	16.8
0.0052	0.0052	0	-0.0068	17.1
0.0067	0.003	0.0037	0.0307	17
0.009	-0.0015	0.003	0.054	17.1
0.0105	-0.0075	0	0.1012	16.9
0.0082	-0.0098	-0.0046	0.126	17.2
0.009	-0.0038	-0.006	0.1207	17
0.0105	0.0067	-0.0068	0.1042	17.2
0.0105	0.018	-0.0023	-0.0188	17.2
0.0105	0.0157	0.003	-0.2483	17.3
0.009	0.006	0.0052	-0.2985	17
0.0097	0.0045	0.0067	-0.1163	17.3
0.0082	0.0007	0.0045	-0.0008	17.3
0.0082	-0.0015	0.0052	0.0075	17.5
0.0075	-0.0008	0.0045	0.0007	17.4
0.0015	-0.003	0.003	0.0202	17.4
0.003	-0.003	0.0067	0.0502	17.5
0.0045	-0.003	0.0052	0.0255	17.5
0.0067	-0.0008	0.0052	0.018	17.6
0.0082	0.003	0.006	0.0217	17.6
0.0067	0.0067	0.0045	0.0247	17.5
0.0067	0.009	0.0015	0.027	17.5
0.0082	0.0052	0	-0.0053	17.5
0.003	-0.003	-0.0008	-0.0248	17.6
0.0037	-0.0091	0.003	-0.0105	17.7
0.003	-0.0173	0.0067	0.0367	17.8
0.003	-0.0278	0.0105	0.0675	17.7
0.006	-0.027	0.009	0.0622	17.9
0.0037	-0.0113	0.0052	0.0217	17.9
0.0045	0.0037	0.0097	-0.0015	17.9
0.0037	0.0015	0.009	0.0075	17.9
0.0022	0.0037	0.0067	0.0292	17.9
0.0015	0.0082	0.009	0.039	18
0.0007	0.0067	0.0075	0.009	17.9
-0.0015	0.0082	0.003	-0.0105	18
-0.0046	0.0105	-0.0008	-0.0293	17.9
-0.0015	0.0105	-0.0038	-0.0346	18.1
0.0007	0.009	-0.0075	-0.0181	18
0.0045	0.0022	-0.0075	0.0232	18.3
0.0037	-0.0083	-0.0068	0.0367	18
0.0037	-0.0091	-0.006	-0.0405	18.1
0.0022	-0.006	-0.0068	-0.0375	18.1
0.0007	-0.0165	-0.0068	0.0952	18.4
0.0037	-0.0158	-0.0053	0.0712	18
0.003	0.0075	-0.0091	-0.0675	18.2
0	0.0157	-0.0105	-0.0413	18.2
-0.0015	0.009	-0.0105	-0.006	18.4
-0.0046	0.0052	-0.0128	-0.0046	18.4
-0.0015	-0.0158	-0.0105	0.0052	18.3
0.0022	-0.0165	-0.0083	-0.003	18.6
0.0045	-0.0023	-0.0083	0.0292	18.1
0.0015	-0.003	-0.0075	0.0165	18.6
0.0022	-0.0008	-0.006	0.0165	18.4
0.003	-0.0023	-0.0038	-0.033	18.7
0.0007	-0.0083	-0.003	-0.0533	18.4
-0.0008	-0.0046	-0.0023	0.0105	18.7
0.0007	0.003	-0.0015	0.0045	18.5
0.0015	0.0075	-0.0008	0.018	18.8
0.0015	0.0052	-0.0023	-0.0555	18.8
0.0015	0.0015	-0.0015	-0.093	18.8
0.0015	-0.0008	0.0007	-0.0105	18.7
0.0037	0.0015	0	-0.0278	18.7
0.0052	0.0052	0	0.0015	18.9
0.0052	0.003	0.0037	0.0562	18.9
0.003	0	0.0007	0.033	19.1
0.003	0.003	-0.003	0.015	18.6
0.0022	-0.0023	-0.0046	0.0135	19
-0.0008	-0.0046	-0.0105	0.027	18.8
-0.0008	-0.0015	-0.0195	0.0352	19
-0.0015	-0.0008	-0.0338	0.0007	19
0.0007	0.0045	-0.0436	-0.0871	18.9
0.0037	0.0022	-0.0465	-0.0525	19.1
0.0045	-0.003	-0.048	0.033	19
0.0037	-0.0038	-0.042	0.0262	19.2
0.0007	-0.0053	-0.0315	0.0637	19.2
0.0007	-0.0023	-0.0181	0.0802	19.2
0.0007	0.0037	-0.0046	-0.0203	19.3
0.0007	0.0067	0.0142	-0.1193	19.2
0.0007	0.0075	0.0315	-0.0128	19.3
0.0015	0.0052	0.0435	0.0592	19.5
0	0.0045	0.0562	-0.0256	19.2
-0.0008	0.0037	0.06	-0.096	19.3
0	-0.003	0.0577	-0.1043	19.3
-0.0015	-0.0075	0.054	0.0007	19.4
-0.003	-0.0083	0.0465	-0.0195	19.5
-0.003	-0.006	0.0412	-0.0083	19.5
0	-0.0015	0.039	0.027	19.5
0.0007	0	0.0367	-0.0053	19.5
-0.0008	-0.0015	0.0315	0.0247	19.8
-0.0046	-0.003	0.033	0.0045	19.6
-0.0038	-0.003	0.033	0.0225	19.8
-0.0046	-0.003	0.03	0.0157	19.7
-0.0053	-0.0015	0.0285	0.0172	19.8
-0.0046	-0.0008	0.0255	0.042	19.7
-0.0015	0	0.0202	0.042	19.8
0.003	0.0015	0.0105	0.0502	19.9
0.0037	-0.0015	0.0037	0.0165	19.8
0.003	-0.003	0	-0.0158	20
0	0.0007	-0.003	-0.0473	19.8
-0.003	0.0007	-0.0068	-0.0346	20
-0.0023	-0.0038	-0.012	0.0105	19.9
-0.003	-0.0046	-0.0135	0.0195	20.1
-0.0053	0.003	-0.015	0.0142	20
-0.006	0.0037	-0.0165	0.0285	20.2
-0.0075	-0.003	-0.0165	0.0082	20.2
-0.0083	-0.0091	-0.0203	-0.054	20.2
-0.0068	-0.0083	-0.0263	-0.027	20.2
-0.0053	-0.0015	-0.0278	0.0217	20.2
-0.0046	0.0022	-0.0263	-0.0533	20.2
-0.0038	0.0097	-0.027	-0.1193	20.3
-0.0015	0.0135	-0.0263	-0.054	20.2
-0.0023	0.0022	-0.024	0.0247	20.3
-0.0038	-0.0143	-0.024	0.084	20.4
-0.0038	-0.0225	-0.0233	0.09	20.4
-0.0038	-0.0083	-0.0233	0.0442	20.5
-0.0046	0	-0.024	0.0232	20.5
-0.003	0.003	-0.0233	-0.0256	20.6
-0.003	0.0082	-0.0218	-0.0188	20.7
0	0.0082	-0.0173	-0.003	20.6
0.0015	0.0067	-0.0165	-0.0203	20.7
0.0022	-0.0038	-0.0143	0.0382	20.6
0.0037	-0.0188	-0.0105	0.1012	20.8
0.003	-0.0218	-0.0098	0.0787	20.7
0.003	-0.0091	-0.0068	0.0247	21
0.003	-0.0046	-0.0046	0.0202	20.9
0.0037	0.0007	-0.003	0.006	21
0.006	0.006	0.0045	-0.093	20.9
0.0052	0.0075	0.0067	-0.1733	20.8
0.0037	0.0082	0.0052	-0.0443	21
0.003	0.0052	0.0067	-0.0158	20.9
0.0007	0.009	0.0067	-0.048	21.2
-0.0008	0.0135	0.0037	0.0052	20.9
0.0015	0.0157	0.003	-0.0473	21.3
0.0052	0.009	0.0052	-0.039	21
0.009	0.0015	0.0052	-0.0375	21.3
0.012	-0.0023	0.0067	0.0765	21.1
0.0127	-0.0181	0.0075	0.1627	21.4
0.0135	-0.0203	0.0067	0.0405	21.2
0.0142	-0.0046	0.0037	-0.0128	21.4
0.0142	-0.0038	0.0015	-0.0691	21.4
0.0112	-0.0068	0.0007	-0.06	21.4
0.0105	0.003	-0.0015	0.03	21.5
0.0105	0.0067	-0.0015	0.0487	21.4
0.012	0.0007	0.0022	0.0007	21.5
0.012	-0.0046	0.0015	0.0217	21.4
0.0105	-0.0015	0.0007	0.0577	21.6
0.0105	0.0037	0.0007	0.0757	21.5
0.0127	0.009	-0.0015	0.0412	21.7
0.0112	0.009	-0.0046	-0.129	21.6
0.009	0.006	-0.003	-0.0825	21.6
0.0112	0.0052	-0.003	-0.012	21.6
0.0142	0.0007	-0.0053	-0.0398	21.7
0.018	0	-0.006	0.0135	21.9
0.0165	-0.0015	-0.0068	-0.0143	21.6
0.0105	-0.003	-0.006	0.0007	21.8
0.0105	-0.003	-0.0053	0.0082	21.7
0.0105	-0.0068	-0.0046	0.0075	21.9
0.009	-0.0068	-0.0008	0.03	22
0.012	-0.003	0.0022	0.0247	22
0.0135	0.0007	0.0045	0.0442	22
0.0097	0.006	0.0075	-0.0315	22
0.0082	0.003	0.0135	-0.1043	22
0.0097	-0.003	0.0172	-0.06	22
0.012	0.0052	0.015	-0.048	22.1
0.0142	0.0105	0.0165	-0.0293	22
0.0142	0.0067	0.0195	0.0352	22.3
0.015	0.0045	0.021	-0.0315	22.1
0.0112	-0.0015	0.018	-0.0233	22.4
0.0082	-0.0195	0.012	0.1612	22.2
0.012	-0.0338	0.0082	0.24	22.5
0.0127	-0.0218	0.0007	0.1522	22.3
0.0142	0.0067	-0.0068	0.0195	22.5
0.012	0.0165	-0.0135	-0.1088	22.4
0.006	0.0187	-0.0233	-0.1598	22.4
0.003	0.0135	-0.0346	-0.0593	22.5
0.0015	-0.0015	-0.042	-0.0158	22.5
-0.0008	-0.006	-0.048	-0.0105	22.5
-0.0008	-0.0023	-0.0533	0.0052	22.5
-0.003	0.0045	-0.0555	-0.0046	22.7
-0.0046	-0.003	-0.0503	0.0315	22.6
-0.0038	-0.006	-0.0443	0.0337	22.9
-0.0053	-0.003	-0.0346	0.0375	22.6
-0.0053	-0.003	-0.0203	0.039	22.9
-0.006	0.0045	-0.0083	-0.0075	22.7
-0.0053	0.0105	0.0007	-0.093	23
-0.0098	0.0045	0.0105	-0.084	22.9
-0.0113	-0.0015	0.0195	0.018	23.1
-0.0091	-0.0008	0.0247	0.0165	23
-0.0158	-0.0038	0.0277	0.0097	23.2
-0.0181	-0.003	0.0307	-0.0046	23.1
-0.015	0.0075	0.0367	-0.0578	23.1
-0.0128	0.0127	0.0382	-0.075	23
-0.0143	0.0015	0.042	-0.0075	23.1
-0.0128	-0.0068	0.042	0.0517	23.4
-0.0158	0.0007	0.039	-0.0398	23.1
-0.0173	-0.003	0.0382	-0.0818	23.4
-0.0173	-0.0098	0.0352	-0.0315	23.2
-0.0203	-0.0181	0.0382	0.0502	23.6
-0.0173	-0.0233	0.0352	0.1072	23.6
-0.0143	-0.024	0.0292	0.1065	23.6
-0.0165	-0.0181	0.024	0.1237	23.6
-0.0173	0.0045	0.0217	0.0367	23.6
-0.0165	0.0202	0.0217	-0.153	23.5
-0.021	0.0217	0.0195	-0.1478	23.7
-0.0256	0.009	0.018	-0.0338	23.6
-0.0263	-0.0128	0.0142	0.0067	23.7
-0.0285	-0.0113	0.0127	0.0352	23.7
-0.0278	0.0067	0.0097	0.0052	23.8
-0.024	0.003	0.0052	0.0135	23.9
-0.0188	-0.0046	0.0052	0.0345	23.7
-0.0143	-0.0053	0.0045	0.0255	23.8
-0.0083	-0.006	0.0007	0.0945	24
-0.0008	0.0022	-0.0008	0.0855	24
0.0037	0.0097	-0.0015	-0.0818	23.9
0.0082	0.0082	-0.0038	-0.1163	24
0.0067	0.0067	-0.0038	-0.012	24.1
0.0052	0	-0.003	0.015	24.1
0.0045	-0.0158	-0.0023	0.1177	24.3
0.0045	-0.0233	-0.0008	0.0907	24
0.0067	-0.0165	-0.0023	-0.0675	24.2
0.003	-0.0075	-0.0068	0.0232	24.2
0.0007	0.0015	-0.0083	0.0442	24.3
-0.0008	0.0195	-0.0083	-0.0803	24.4
-0.003	0.027	-0.0091	-0.2198	24.4
-0.0015	0.0217	-0.012	-0.1538	24.4
0	0.0067	-0.0128	0.0262	24.3
-0.0008	-0.0105	-0.0128	0.0487	24.6
0.0007	-0.0218	-0.0143	0.2295	24.4
0.0045	-0.0338	-0.0158	0.1507	24.7
0.0015	-0.0105	-0.0128	-0.024	24.4
0.003	0.0187	-0.0083	-0.015	24.7
0.0045	0.0217	-0.0068	-0.0248	24.7
0.0082	0.024	-0.0098	0.105	24.8
0.0127	0.027	-0.0143	0.075	24.7
0.009	0.033	-0.0143	-0.0413	24.8
0.0105	0.0187	-0.012	-0.2213	24.8
0.0157	-0.003	-0.0105	-0.2693	24.9
0.0195	-0.0128	-0.0053	-0.1373	25
0.024	-0.024	0	-0.1463	24.9
0.027	-0.0338	-0.0053	0.039	25.1
0.0285	-0.0293	0.0007	0.1357	25.1
0.0277	-0.0083	0.0097	0.114	25.2
0.0292	0.0105	0.0082	0.0922	25.2
0.024	-0.003	0.003	0.0435	25.3
0.0172	-0.015	-0.0038	0.129	25.3
0.0127	0.0067	-0.0053	0.0442	25.4
0.012	0.0225	-0.0046	0.0067	25.4
0.0142	0.0165	-0.0046	0.0667	25.5
0.0127	-0.0053	-0.0083	0.0435	25.3
0.0142	-0.0188	-0.0091	0.0352	25.5
0.012	-0.024	-0.0046	0.0915	25.6
0.009	-0.0256	-0.0008	-0.0525	25.5
0.009	-0.0023	0.0067	-0.3158	25.5
0	0.0165	0.0105	-0.1815	25.7
-0.0083	0.015	0.0082	-0.048	25.7
0.0075	0.0082	0.006	0.0052	25.6
0.0187	-0.0195	0.0015	0.0682	25.8
0.015	-0.0308	0.0015	0.033	25.8
0.027	-0.0083	0	0.0667	25.8
0.0255	0.0075	-0.0008	-0.0091	25.9
0.0232	0.0277	0.0015	-0.0998	25.9
0.027	0.0382	0.0045	-0.057	26.1
0.0202	0.027	0.0045	0.0555	26.1
0.0255	0.018	0.0015	0.0502	26.1
0.0195	0.0277	0.003	0.0157	25.9
0.0165	0.0397	0.0015	0.045	26.3
0.021	0.0315	-0.0008	-0.0091	26.2
0.0127	0.0075	-0.0038	-0.0248	26.4
0.0157	-0.03	-0.0038	0.0307	26.3
0.0135	-0.0668	-0.0038	0.078	26.5
0.009	-0.093	-0.0008	-0.003	26.4
0.0045	-0.0825	0.0105	-0.006	26.6
-0.0008	-0.0458	0.0157	0.0465	26.7
0.0015	-0.0158	0.0112	0.0465	26.3
0.003	0.0007	0.0052	0.027	26.7
0.0015	0.0165	0.009	-0.3098	26.4
0.003	0.0232	0.0157	-0.3113	26.8
0.0015	0.0142	0.0105	-0.0383	26.7
0.0022	0.0187	0.0097	0.0037	27.1
0.0007	0.0277	0.0172	0.2107	26.7
-0.003	0.0277	0.018	0.2047	27
-0.0008	0.0232	0.012	0.162	26.9
-0.0053	0.006	-0.0008	0.2025	27.1
-0.003	-0.0143	-0.0068	0.129	26.8
-0.0046	0.0067	-0.0091	0.0952	27
-0.0046	0.0315	-0.0128	-0.0158	27
0.0007	0.0225	-0.0113	-0.1598	27
-0.0046	0.0105	-0.0083	-0.1995	27
-0.006	-0.0023	-0.0091	-0.0383	27
-0.003	-0.0165	-0.0083	-0.0008	27.3
-0.0008	-0.027	-0.0053	-0.0113	27.2
0.0007	-0.0113	-0.0075	0.0202	27.4
0.0022	-0.0075	-0.0068	-0.006	27.3
0.0045	-0.0128	-0.0046	0.084	27.4
0.0015	-0.0158	-0.003	0.2047	27.4
-0.0023	-0.0195	-0.0023	0.27	27.5
-0.0091	-0.0053	-0.0023	0.2107	27.5
-0.0091	0.006	-0.0015	0.1695	27.5
-0.0083	-0.0015	0.0067	-0.0511	27.4
-0.0098	-0.0188	0.0142	-0.4538	27.4
-0.0083	0.0007	0.0142	-0.3825	27.4
-0.015	0.0105	0.012	-0.0113	27.8
-0.0338	0.0007	0.009	0.0067	27.6
-0.0353	0.0127	0.0045	-0.1043	27.8
-0.0008	0.0082	0.0022	-0.0405	27.9
0.0112	0.0037	0.0007	0.042	27.8
-0.0053	0.0052	-0.0008	-0.0638	27.8
-0.0091	0.0112	0.0015	-0.1748	27.8
-0.0038	0.021	0.0082	-0.0346	28
-0.0053	0.0375	0.0082	-0.1253	27.9
-0.0203	0.0345	0.0022	-0.3353	27.9
-0.0263	0.0007	-0.0008	-0.1726	28.1
-0.0218	-0.0195	-0.003	0.0495	28.1
-0.0068	-0.0375	-0.003	0.1492	28.2
0.0052	-0.048	-0.003	0.1837	28.1
-0.003	-0.024	-0.0075	0.0982	28.3
0.003	0.009	-0.0068	0.0727	28.2
0.0052	0.0217	-0.003	0.081	28.2
-0.0128	0.0352	-0.0015	0.0352	28.3
-0.0128	0.0405	-0.0053	0.024	28.2
-0.0091	0.0285	-0.0105	0.0592	28.3
-0.0143	0.015	-0.012	0.051	28.2
-0.0158	-0.006	-0.0128	-0.1373	28.4
-0.012	-0.0323	-0.0068	-0.1178	28.3
-0.0038	-0.0375	-0.0008	0.0555	28.5
-0.0008	-0.03	0	0.0765	28.5
-0.003	-0.0563	-0.0053	0.1717	28.7
-0.0008	-0.0495	-0.0113	0.1612	28.3
0.0015	-0.012	-0.0128	0.0825	28.7
0.0015	0.024	-0.0135	0.0082	28.4
0.0052	0.0487	-0.0068	-0.1381	28.8
0.009	0.0315	0.0022	-0.231	28.4
0.0105	-0.0008	0.0015	-0.1628	28.9
0.012	-0.0346	0.0007	0.0825	28.8
0.0127	-0.0256	0.0015	0.1342	28.8
0.0135	0.0142	0.0052	0.1477	28.8
0.012	0.0292	0.003	0.0607	28.8
0.0142	0.027	0.0015	-0.0968	28.9
0.0157	0.0352	0.0045	-0.117	28.7
0.0165	0.0367	-0.0008	-0.2078	29
0.0172	0.0202	-0.003	-0.0908	29
0.0165	0.0112	-0.003	-0.0645	29.1
0.0202	0.018	-0.006	0.1027	29
0.024	-0.0098	-0.006	0.342	29.1
0.024	-0.0413	-0.0015	0.1575	29
0.0232	-0.0105	0.0045	0.0727	29.1
0.0195	-0.0015	0.0067	0.0045	29.1
0.0165	-0.0233	0.0045	-0.0938	29.1
0.009	-0.0428	0	-0.1838	29.1
0.003	-0.048	-0.0008	-0.12	29.3
-0.0008	-0.0323	0.0007	0.0165	29.2
0	-0.0203	0.0075	0.048	29.3
-0.0008	-0.0083	0.0052	0.126	29.5
-0.0068	0.0007	0.003	0.039	29.4
-0.0075	0.0097	0.0067	-0.0181	29.4
-0.0038	0.009	-0.0015	-0.0053	29.5
-0.0053	0.0097	-0.0046	0.0045	29.5
-0.0128	0.003	-0.0083	0.0517	29.3
-0.0353	-0.0046	-0.0135	0.0255	29.3
-0.0638	-0.0053	-0.0158	0.0007	29.5
-0.0675	-0.0083	-0.0203	-0.0068	29.5
-0.0518	0.0022	-0.0181	-0.1073	29.6
-0.021	0.0105	-0.0128	-0.1328	29.4
0.0165	0.009	-0.0053	0.09	29.8
0.0247	0.036	0.0022	0.0225	29.7
0.0225	0.0742	0.009	-0.21	29.6
0.024	0.0592	0.009	-0.039	29.8
0.0292	0.0195	0.0037	0.156	29.8
0.033	-0.0195	0.006	0.0322	29.9
0.0277	-0.0405	0.009	0.0352	29.8
0.0255	-0.0248	0.006	0.1282	29.9
0.0202	0.0022	0.0105	0.0082	29.7
0.0195	0.0127	0.0195	-0.1013	29.9
0.0195	0	0.0247	-0.2115	29.9
0.0142	-0.0256	0.0225	0.0045	30.1
0.009	-0.0368	0.018	0.153	30
0.0067	-0.0181	0.0202	0.048	30.1
0.0045	-0.033	0.0202	0.147	29.9
-0.0015	-0.048	0.0232	0.0862	30.2
-0.0008	-0.0128	0.024	-0.1411	30.1
0	0.0082	0.0202	-0.2123	30
0.0007	0.0105	0.018	-0.0533	30.2
0.003	0.024	0.0127	-0.066	30.2
0.0037	0.0232	0.012	-0.039	30.2
0.0045	0.0082	0.0075	-0.0203	30.1
0.0045	0.0015	0.0022	-0.132	30.4
0.0067	-0.0165	-0.0008	-0.0195	30.2
0.0112	-0.0181	-0.003	0.0517	30.5
0.0135	-0.0091	-0.0075	0.2122	30.3
0.0142	0.0052	-0.0083	0.2122	30.4
0.012	0.0345	-0.0091	0.018	30.2
0.0075	0.0495	-0.0128	-0.0105	30.5
0.0037	0.0502	-0.0128	0.0045	30.4
-0.0015	0.0172	-0.0091	-0.0038	30.2
-0.0068	-0.0158	-0.0083	-0.1208	30.5
-0.0083	-0.0248	-0.0075	-0.1125	30.5
-0.012	-0.048	-0.0083	0.0202	30.5
-0.0165	-0.0495	-0.0083	0.1042	30.5
-0.0218	-0.0353	-0.012	0.1162	30.5
-0.0233	-0.0218	-0.0143	0.066	30.6
-0.0203	-0.0098	-0.0105	0.1852	30.6
-0.0195	-0.0181	-0.0113	0.2347	30.6
-0.0195	-0.0105	-0.012	-0.0015	30.6
-0.0158	0.0157	-0.012	-0.2048	30.6
-0.015	0.0247	-0.0105	-0.258	30.6
-0.0158	0.0172	-0.012	-0.2363	30.8
-0.0135	0.0127	-0.0053	-0.024	30.7
-0.0105	0.0112	0.0015	0.0532	30.9
-0.0083	0.021	-0.0015	-0.0165	30.7
-0.0046	0.0427	0	0.0412	31
-0.0015	0.0532	-0.003	-0.048	30.9
-0.0008	0.0525	-0.0068	-0.114	31
0.003	0.021	-0.0105	-0.057	30.7
0.0052	-0.0256	-0.015	0.105	31
0.009	-0.0458	-0.0143	0.273	31
0.0105	-0.0578	-0.0181	0.3645	31
0.0112	-0.0638	-0.0181	0.4005	31
0.0105	-0.0285	-0.012	0.075	30.8
0.0075	0.0067	-0.0015	-0.3743	31
0.0082	0.006	0.006	-0.5535	30.8
0.009	0.0045	0.0135	-0.3788	31.1
0.0075	-0.0128	0.018	-0.0473	31
0.0037	-0.015	0.0105	-0.0278	31.2
0.0007	0.0067	0	-0.0323	31.1
0	0.0202	-0.0046	0.0532	31.4
-0.0008	0.027	-0.0046	0.0547	31.1
0.003	0.0292	-0.0083	0.1515	31.2
0.0022	0.0255	-0.012	0.1522	31.2
0.0022	0.018	-0.012	0.135	31.3
0.0037	0.018	-0.0113	-0.0135	31.2
0.0045	0.0082	-0.0075	-0.2078	31.2
0.009	-0.006	-0.0075	-0.03	31.3
0.012	-0.0091	-0.0075	0.027	31.2
0.0105	-0.012	-0.0053	-0.0953	31.5
0.012	-0.021	-0.0023	-0.0181	31.4
0.0157	-0.0285	-0.0015	-0.03	31.6
0.0142	-0.0458	0.0052	-0.0593	31.5
0.015	-0.0368	0.0142	0.0067	31.8
0.018	-0.006	0.0195	0.0015	31.5
0.0195	-0.0015	0.021	0.0742	31.6
0.018	0.0127	0.0127	0.1005	31.7
0.0165	0.0127	0.0082	0.0922	31.7
0.0157	0.0075	0.0127	-0.0203	31.7
0.0142	0.0157	0.015	-0.0668	31.6
0.0165	0.0067	0.0172	0.0667	31.8
0.0142	-0.0038	0.0135	0.0547	32
0.0112	-0.0203	0.0082	0.1545	32
0.0105	-0.0203	0.0037	0.084	31.9
0.0045	-0.0068	-0.0008	-0.1523	31.9
0.0015	0.0045	-0.003	-0.2783	31.9
0.003	0.009	-0.003	-0.1823	31.9
0.0015	0.0105	-0.003	0.1297	32.2
0.0007	0.0247	0	0.1777	32.1
0.0015	0.0307	0.0007	0.1425	32.2
0.003	0.0457	-0.0008	-0.0158	32.1
0.0045	0.0465	0.0022	-0.0856	32.3
0.006	0.0157	0.0015	0.0577	32.3
0.0067	-0.0128	0.003	0.0292	32.5
0.0067	-0.0308	0.0045	0.099	32.2
0.0067	-0.0361	0.0022	0.108	32.5
0.0082	-0.0256	0.003	-0.015	32.4
0.009	-0.0256	0.0045	-0.2198	32.5
0.0097	-0.033	0.0082	-0.324	32.4
0.009	-0.0143	0.0052	-0.1403	32.5
0.0097	-0.0135	0.0067	0.0615	32.8
0.009	0.0007	0.0082	0.312	32.7
0.0045	0.0337	0.0045	0.1837	32.9
0.0015	0.0292	0.009	-0.0488	32.7
0	0.0052	0.0105	-0.0038	32.8
0	-0.0293	0.0045	-0.0653	32.8
0.0007	-0.042	0.0037	0.138	33.2
0.0007	-0.0436	0.0067	0.207	32.9
-0.0008	-0.0105	0.0067	0.012	33.2
-0.0053	0.0195	0.006	-0.039	32.9
-0.0075	0.0157	0.0045	-0.063	33.3
-0.0128	0.0285	-0.0008	-0.0046	33
-0.0143	0.045	0.0007	-0.1343	33.3
-0.0135	0.0712	0.0045	-0.1823	33.3
-0.015	0.0465	0	-0.0383	33.3
-0.0143	-0.0128	-0.0053	-0.0361	33.4
-0.012	-0.0428	-0.003	-0.1103	33.3
-0.0083	-0.0555	0.0045	-0.147	33.7
-0.0053	-0.0278	0.0127	-0.0443	33.5
-0.0053	0.0172	0.0142	0.0067	33.8
-0.0083	0.0592	0.0067	0.0112	33.6
-0.0105	0.0517	0.0022	0.0292	33.9
-0.0098	0.0067	-0.0015	0.0292	33.8
-0.0083	-0.021	0.0007	0.099	34
-0.0068	-0.0346	0.003	0.1582	33.9
-0.0053	-0.0256	0.0045	0.186	34.2
-0.0038	-0.0233	0.0045	0.1395	34.1
-0.0046	-0.0533	0.003	0.1222	33.9
-0.0068	-0.0675	0.009	-0.0653	34.1
-0.0068	-0.0548	0.0142	-0.4013	34.1
-0.0075	-0.0173	0.0135	-0.1928	34.3
-0.0083	0.0202	0.0127	0.0862	34.2
-0.0083	-0.0053	0.0037	-0.0203	34.6
-0.0053	0.0015	0	-0.0563	34.5
-0.0046	0.0705	-0.0015	-0.1028	34.6
-0.0046	0.1095	-0.006	-0.123	34.5
-0.003	0.0802	-0.006	0.0615	34.8
-0.003	0.0427	-0.0105	0.1935	34.7
-0.0023	0.033	-0.0098	0.105	34.7
-0.003	-0.0053	-0.0075	0.0397	34.9
-0.0008	-0.0413	-0.0113	0.0757	35
0	-0.048	-0.0173	0.0802	35.1
0.0015	-0.0518	-0.0165	0.2572	35.3
0.0045	-0.0495	-0.0105	0.3622	35.3
0.0015	-0.0458	-0.0046	0.1425	35.2
0.0015	-0.021	-0.0008	-0.0638	35.1
0.0007	0.0195	0.003	-0.261	35.3
0.0037	0.009	0.006	-0.3488	35.4
0.0105	0.0022	-0.0008	-0.1343	35.6
0.0165	0.0022	0.003	0.0465	35.6
0.018	-0.0218	0.006	0.084	35.7
0.015	-0.015	-0.0008	0.066	35.9
0.015	0.0082	0.0015	-0.0315	35.9
0.009	0.024	-0.0008	-0.1943	35.8
0.006	0.0195	-0.0068	-0.186	35.9
0.0045	0.0045	-0.0023	0.0082	35.9
0.0037	0.009	0.0045	0.006	36.1
0.006	0.0172	0.0067	-0.0203	36
0.0067	0.0165	0.0052	-0.042	36.2
0.0067	-0.0091	0.0007	-0.0203	36.4
0.003	-0.054	-0.0023	0.1102	36.5
0.0045	-0.0638	-0.003	0.2865	36.5
0.0112	-0.0428	-0.006	0.3622	36.5
0.0247	0	-0.0046	-0.111	36.4
0.0322	0.0465	0.0022	-0.225	36.6
0.0187	0.0457	0.0045	-0.024	36.8
0.012	0.0457	0	-0.2055	36.8
0.012	0.0405	0.0045	-0.1523	36.9
0.0037	0.0217	0.0082	-0.0743	36.9
0.0015	0.009	0.0045	-0.0518	37.1
-0.0008	-0.0038	0.0022	-0.042	37
-0.0008	0.012	-0.0015	-0.057	37.2
-0.0015	0.0142	-0.0068	-0.0353	37.1
-0.0015	0.0157	-0.0015	-0.132	37.3
-0.0015	0.0067	0.003	0.0315	37.3
-0.0015	-0.0083	0.003	0.1327	37.6
-0.0008	0.0202	0.0045	0.069	37.5
-0.0008	0.0052	0.0045	0.1725	37.6
0.0007	-0.0368	0.0015	0.132	37.8
0.0015	-0.0503	0.0007	0.0915	37.8
0.0015	-0.0653	-0.0008	0.0495	37.8
0	-0.0518	-0.003	-0.0533	37.8
-0.003	-0.0091	-0.0008	-0.0638	38
-0.0038	0.0195	-0.0046	0.045	37.9
-0.0053	0.0232	-0.0091	0.1485	38.1
-0.0083	0.0255	-0.0075	0.0885	38.2
-0.0128	0.0202	-0.0113	0.003	38.1
-0.0165	-0.0105	-0.0143	-0.1088	38.2
-0.0181	-0.0375	-0.0128	-0.0278	38.3
-0.0203	-0.0368	-0.0083	-0.0008	38.5
-0.0181	-0.0563	-0.0008	-0.1245	38.6
-0.0098	-0.048	0.0022	-0.0503	38.6
-0.0091	-0.0091	-0.0008	-0.0743	38.6
-0.0128	0.0075	-0.003	-0.1155	38.7
-0.0165	0.0592	-0.0053	-0.0908	38.7
-0.015	0.0765	-0.0068	0.0307	38.8
-0.0098	0.0735	-0.0046	0.165	39.1
-0.0046	0.0622	-0.0015	0.1125	39.1
0.0022	0.015	-0.0075	0.3652	39.1
0.0075	-0.0285	-0.0128	0.5587	39.2
0.015	-0.0436	-0.0128	0.153	39.2
0.0187	-0.0105	-0.0143	-0.2625	39.1
0.0187	0.0082	-0.0105	-0.3458	39.4
0.0112	0.0045	-0.0015	-0.3818	39.3
0.0075	-0.0113	0.0052	-0.414	39.7
0.0135	-0.0533	0.003	-0.1238	39.6
0.018	-0.0765	-0.0046	0.0502	39.8
0.0105	-0.0908	-0.0135	0.207	39.8
-0.0008	-0.099	-0.015	0.4327	39.9
0	-0.0585	-0.0128	0.2295	40
0.0045	-0.0308	-0.012	-0.1711	39.9
0.0045	0.0007	0	-0.489	40
0.0022	0.0622	0.0075	-0.3203	40
0.009	0.0465	0.0067	-0.0068	40.4
0.0195	0.0345	0.0112	0.078	40.2
0.027	0.0825	0.0112	0.168	40.5
0.0307	0.1012	0.0007	0.0825	40.3
0.0315	0.1065	-0.003	-0.0346	40.6
0.033	0.0585	0.0052	-0.0105	40.5
0.0307	0.0202	0.0112	0.0127	40.9
0.0315	0.0645	0.009	0.0255	40.6
0.0277	0.1132	0.0007	-0.0083	40.9
0.0247	0.1245	-0.0053	-0.078	40.8
0.0232	0.111	-0.0068	-0.1223	40.8
0.0195	0.0675	-0.0083	-0.114	41
0.0172	-0.0615	-0.0046	0.0045	41.3
0.015	-0.1628	0.0052	0.186	41.3
0.0127	-0.189	0.0075	0.21	41.3
0.0097	-0.2273	-0.0008	0.0292	41.5
0.006	-0.222	0.003	-0.0495	41.4
0.0045	-0.1163	0.0075	0.0967	41.7
0.0022	-0.033	0.0075	0.1545	41.5
-0.0008	-0.0023	0.0127	0.1005	41.8
-0.0015	0.0157	0.012	0.0765	41.6
-0.003	0.009	0.0052	0.0862	42
-0.0068	-0.0038	0.0082	0.1815	41.9
-0.0068	-0.0008	0.0105	0.1102	41.9
-0.0091	0.0532	-0.0008	-0.1538	41.9
-0.0135	0.087	0	-0.3165	42.2
-0.0158	0.1177	0.0112	-0.2498	42.1
-0.0165	0.1282	0.0082	-0.1793	42.3
-0.0181	0.0817	0.006	-0.1838	42.2
-0.0188	0.0667	0.0007	-0.177	42.4
-0.021	0.0255	-0.0105	-0.0578	42.5
-0.0218	-0.003	-0.0135	0.1102	42.5
-0.021	0.003	-0.0173	0.1627	42.6
-0.0195	0.0172	-0.015	0.3465	42.7
-0.0181	0.0487	-0.012	0.153	42.8
-0.0158	0.072	-0.0143	-0.2085	42.7
-0.0143	0.054	-0.0195	0.0262	43
-0.0128	-0.0353	-0.0218	0.1065	43
-0.012	-0.0765	-0.0128	0.0442	43.1
-0.0128	-0.0518	-0.0068	0.0675	43.3
-0.0113	-0.027	-0.003	-0.0608	43.2
-0.012	-0.0143	0.0022	0.0172	43.5
-0.0091	-0.0195	0.0127	0.0345	43.4
-0.0075	-0.0623	0.0187	0.0217	43.6
-0.0068	-0.1125	0.0187	0.147	43.7
-0.003	-0.1028	0.0172	0.1215	43.9
-0.0038	-0.0503	0.009	0.0802	43.8
0	0.021	0.0105	-0.0383	43.8
0.0045	0.0277	0.0082	0.0202	44.1
0.0007	-0.0015	0.0067	0.012	43.9
-0.0068	-0.0195	0.0142	-0.2723	44
-0.0083	-0.099	0.0217	-0.1388	44.1
-0.0046	-0.1163	0.0285	-0.1741	44.4
-0.0038	-0.0443	0.0187	-0.2685	44.3
-0.0053	0.012	0.0045	-0.0885	44.5
-0.0023	0.018	0.0045	0.0637	44.5
0.0007	-0.0091	0.0052	0.1462	44.7
-0.003	0.0277	0.0045	-0.0353	44.6
-0.0015	0.0585	0.0097	-0.0233	45
0.0015	0.0255	0.009	-0.0203	44.7
0	0.039	0.0052	0.042	45
-0.003	0.0457	0.0052	0.1222	45.2
-0.0053	0.0367	-0.0015	0.1162	45
-0.0068	0.0412	-0.0053	0.12	45.3
-0.012	0.0307	-0.0091	-0.0818	45.1
-0.0143	0.0382	-0.0128	-0.0518	45.4
-0.0128	0.0532	-0.012	-0.1448	45.3
-0.0083	0.0465	-0.006	-0.1426	45.7
-0.0068	-0.0075	0.0052	0.0307	45.6
-0.0023	-0.0278	0.0075	0.0457	45.9
0.0045	-0.0256	0.0082	0.1222	45.6
0.009	-0.0368	0.012	0.0262	46.2
0.0142	-0.0368	0.0067	0.009	45.9
0.0142	-0.0203	0.0052	0.0165	46.2
0.0142	0.0435	0.003	-0.0398	46.1
0.0187	0.105	0.003	-0.0075	46.5
0.021	0.1312	0.009	-0.0428	46.3
0.0217	0.1335	0.0135	-0.1613	46.4
0.0195	0.1042	0.021	-0.0038	46.6
0.0202	0.051	0.0157	0.0787	46.4
0.0172	-0.0278	0.0007	-0.0856	46.8
0.018	-0.156	-0.006	0	46.6
0.0157	-0.1995	-0.0046	-0.0405	47.1
0.0112	-0.168	0.0052	0.1057	47
0.0105	-0.1403	0.0112	0.2182	47.2
0.0127	-0.0953	0.0142	-0.0008	47.1
0.0105	-0.084	0.006	-0.039	47.3
0.0105	-0.0975	-0.0015	-0.0173	47.2
0.0135	-0.0788	-0.0068	0.0907	47.3
0.0105	0.0037	-0.0135	0.132	47.4
0.009	0.0637	-0.0128	0.1522	47.5
0.0112	0.1425	-0.012	0.0217	47.4
0.0157	0.171	-0.0038	-0.1463	47.8
0.0172	0.1282	0.0015	-0.0938	47.9
0.0172	0.096	-0.0046	-0.075	47.9
0.0165	0.0465	-0.0091	-0.0188	48
0.018	-0.0158	-0.0158	0.0645	47.9
0.0165	-0.093	-0.0218	0.1027	48.2
0.0127	-0.0608	-0.021	0.069	48.2
0.012	0.0277	-0.0143	-0.015	48.2
0.0157	0.0855	-0.0046	-0.183	48.4
0.015	0.093	0.0082	-0.1643	48.4
0.0112	0.0622	0.0142	-0.0383	48.6
0.0082	0.054	0.0112	-0.0908	48.5
0.0067	0.0307	0.0082	-0.012	48.9
0.0067	-0.0008	0.0052	0.075	48.9
0.006	-0.0615	0.0007	0.1132	49.2
0.0045	-0.1515	0.003	0.1297	49.1
0.0045	-0.1973	0.015	0.1627	49.3
0.0082	-0.1365	0.024	0.0607	49.1
0.0105	-0.0015	0.0217	-0.177	49.1
0.012	0.0465	0.0067	-0.0743	49.5
0.0127	0.036	-0.0053	-0.0518	49.4
0.0127	0.045	-0.0128	-0.1185	49.6
0.0097	0	-0.0135	-0.057	49.6
0.0082	0.0052	-0.0105	-0.0645	49.7
0.0075	0.057	-0.0053	-0.0458	49.8
0.0067	0.054	-0.0053	0.0112	50.1
0.003	0.0532	-0.015	0.1462	50
-0.0008	0.0532	-0.0128	0.057	50.1
-0.0015	0.0465	-0.0068	-0.0795	50
-0.003	0.0105	-0.0046	0.0045	50.2
-0.0053	-0.015	-0.012	0.003	50.2
-0.0083	-0.0285	-0.0203	-0.0135	50.4
-0.0091	-0.0278	-0.0165	-0.0105	50.5
-0.0083	-0.0518	-0.0181	0.0547	50.7
-0.0083	-0.1035	-0.0165	0.06	50.7
-0.0083	-0.039	-0.0128	-0.0165	50.6
-0.006	0.0442	-0.0098	0.0075	50.7
-0.0015	0.075	-0.0083	0.0007	50.8
-0.0015	0.0802	-0.0091	0.0562	51.1
-0.0008	0.0585	0	0.0472	50.9
0.0015	0.012	-0.0015	-0.2445	51
-0.0008	-0.0938	-0.0053	-0.2325	51.1
-0.0008	-0.1988	-0.0053	0.0975	51.4
0.0015	-0.18	-0.003	0.1522	51.4
0.0045	-0.1478	-0.0015	0.1792	51.7
0.0015	-0.1508	-0.0008	0.1462	51.6
0	-0.1065	0.012	0.0225	51.7
0.0007	-0.0675	0.0285	-0.0353	51.7
0.0007	0.0472	0.033	-0.1463	51.7
-0.0023	0.123	0.0157	-0.0773	51.8
-0.0046	0.1515	0.006	0.009	51.9
-0.0068	0.2062	0.0045	-0.0195	52.1
-0.0113	0.1425	-0.0068	0.0292	52.1
-0.0105	0.0195	-0.0091	-0.0091	52.2
-0.0105	0.0082	-0.0053	-0.0278	52.3
-0.0105	0.063	-0.0046	0.0997	52.2
-0.0091	0.0892	0.0067	-0.093	52.5
-0.0091	0.1222	0.0202	-0.0758	52.5
-0.0105	0.0487	0.0157	0.1822	52.6
-0.0158	-0.0788	0.0075	0.123	52.7
-0.0143	-0.114	0.0045	0.0465	52.9
-0.0128	-0.024	-0.0053	-0.1095	52.6
-0.0173	0.057	-0.0038	-0.0706	53.1
-0.0173	0.0442	0.0007	-0.108	52.8
-0.0143	-0.0046	0.0015	-0.1163	52.9
-0.0083	-0.1065	0.0082	0.1155	53.1
-0.0068	-0.1021	0.0082	-0.0218	53
-0.0105	-0.0315	0.0067	-0.0863	53.4
-0.012	0.0292	0.0067	-0.0585	53.2
-0.0105	0.0637	0.003	-0.0428	53.6
-0.0128	0.0255	-0.006	0.0285	53.3
-0.0173	0.009	-0.0105	0.0742	53.5
-0.0203	0.0045	-0.0098	0.234	53.5
-0.0195	0.0255	-0.0068	0.1057	54
-0.0158	0.045	-0.0046	-0.1808	53.6
-0.0158	0.0165	-0.0068	-0.1133	54
-0.0181	-0.045	-0.003	0.0285	54
-0.0128	-0.0983	0	0.0562	54.3
-0.0128	-0.0315	0.0007	0.2197	54.1
-0.0128	0.0502	-0.0008	0.2295	54.4
-0.0091	0.033	-0.0015	-0.012	54.3
-0.0083	0.0195	-0.0023	-0.1988	54.2
-0.0053	0.0255	-0.0068	-0.2438	54.3
-0.0046	0.0082	-0.0091	-0.1553	54.3
-0.0046	-0.0436	-0.0091	-0.0555	54.5
-0.0053	-0.054	-0.0083	0.0195	54.5
0.0007	0.0337	-0.003	-0.0413	54.7
0.0082	0.0997	-0.0038	-0.2138	54.5
0.0105	0.0727	-0.0105	-0.219	54.8
0.0165	0.024	-0.0105	0.18	54.8
0.0195	-0.0308	-0.0068	0.4267	55
0.0247	-0.0593	0.0007	0.2002	55
0.0262	-0.1028	0.0082	0.1342	55.3
0.0202	-0.189	0.006	0.084	55
0.0127	-0.2408	0	-0.0263	55.3
0.0067	-0.183	-0.0008	-0.0338	55.3
0.006	-0.0038	0	-0.1838	55.3
0.0067	0.0495	0.0082	-0.1043	55.4
0.0105	0.0172	0.0217	0.2182	55.4
0.0157	0.0555	0.0195	-0.0383	55.6
0.0172	0.0765	0.0195	-0.1838	55.4
0.0142	0.039	0.0135	0.1515	55.7
0.012	0.0307	-0.0038	0.0742	55.8
0.0127	0.0952	-0.012	0.0172	55.8
0.012	0.1245	-0.0181	-0.1845	55.7
0.012	0.0817	-0.0158	-0.1478	55.9
0.0045	0.0727	-0.0068	0.1402	56.1
0	0.0757	0.0007	-0.0503	55.9
0.003	0.018	0.009	-0.0525	56.2
0.0067	0.027	0.0067	0.0045	56.3
0.0075	-0.006	0.0052	0.0555	56.4
0.0082	-0.1328	0.0007	0.03	56.4
0.0105	-0.1898	-0.003	-0.0938	56.5
0.0127	-0.1328	0.0007	-0.0953	56.5
0.0157	0.012	0.006	-0.0518	56.6
0.0195	0.0765	0.0082	0.0097	56.7
0.0217	0.0787	0.0045	-0.0368	56.8
0.0202	0.0825	0.0105	-0.0233	56.8
0.0195	0.0555	0.0105	0.0052	56.8
0.0187	0.054	0.0052	0.0637	57.1
0.0165	0.051	0.0022	0.1837	57.1
0.0157	0.0802	-0.0046	0.2085	57.3
0.012	0.1297	-0.0008	0.0532	57.1
0.0135	0.129	0.0037	-0.1815	57.2
0.0127	0.0892	0.0127	-0.2821	57.1
0.0112	0.0165	0.0195	-0.1155	57.6
0.012	-0.081	0.0195	0.099	57.3
0.0097	-0.1875	0.015	-0.0143	57.7
0.0075	-0.192	0.009	0.0307	57.7
0.0052	-0.1073	0.0037	0.0142	57.7
0.0045	-0.1441	0.003	-0.0091	57.9
0.0045	-0.1696	0.003	0.165	57.6
0	-0.084	0.0022	-0.0023	58
0	-0.0195	0.0052	0.033	57.7
-0.0015	0.0532	0.0015	0.0615	58.1
0.003	0.0592	0.0015	0.0315	58
0.003	0.0547	0.0045	-0.0825	58.3
-0.0068	0.0435	-0.0015	-0.216	58.1
-0.0091	0.0292	-0.0023	-0.0083	58.5
-0.0091	0.0427	-0.0023	-0.1373	58.1
-0.0075	-0.0181	-0.0008	0.0165	58.5
-0.0068	-0.0323	0.0045	0.1485	58.4
-0.006	0.0082	-0.0008	0.0892	58.7
-0.0038	0.012	-0.0068	0.2032	58.5
-0.0015	0.009	-0.0083	0.0195	58.5
-0.0008	-0.0203	-0.0053	-0.0615	58.8
0	-0.0608	0.0007	-0.1478	58.8
0.0015	-0.0773	0.0015	-0.0495	59.1
0.0015	-0.0691	-0.003	0.0037	58.8
0.0082	-0.0278	0.0007	-0.1163	59.2
0.0097	-0.0128	-0.0008	-0.1515	58.8
0.0052	0.0247	-0.0083	-0.1823	59.2
0.0007	0.0855	-0.0158	0.012	59.1
-0.0046	0.0975	-0.0195	0.126	59.5
-0.0083	0.1072	-0.0143	0.2047	59.4
-0.0091	0.1102	-0.0038	0.2355	59.7
-0.0091	0.0967	0.003	0.1417	59.5
-0.0068	0.0345	-0.0068	0.0765	59.5
-0.0046	-0.0091	-0.0105	-0.0495	59.6
-0.0053	-0.0203	-0.0046	-0.2235	59.7
-0.0083	-0.0465	-0.0015	-0.1973	59.8
-0.0098	-0.0563	0.0037	-0.0203	59.8
-0.0091	-0.0578	-0.0083	-0.0495	59.8
-0.0105	-0.006	-0.0181	0.0952	60
-0.0083	0.1095	-0.0158	0.159	60
-0.0091	0.057	-0.0128	0.0232	60
-0.0075	-0.0788	-0.0015	0.0967	60.3
-0.0008	-0.0165	0.0052	0.1177	60.3
0.0045	-0.0488	0.012	0.027	60.3
0.009	-0.0968	0.0142	-0.0383	60.5
0.012	-0.0638	0.0082	0.0037	60.5
0.0127	-0.0503	0.0037	-0.0975	60.5
0.015	0.0202	0.0015	-0.0795	60.5
0.0157	0.036	0	-0.0143	60.6
0.0165	0.0825	-0.0008	-0.0405	60.6
0.0157	0.0832	0.0022	0.135	60.9
0.0187	0.1132	0.0045	0.1447	60.8
0.0195	0.1252	0	0.1552	60.8
0.018	0.0277	-0.0068	0.0592	60.9
0.0165	-0.078	-0.012	-0.0346	60.9
0.0105	-0.2026	-0.0083	0.1065	61.2
0.0082	-0.1703	-0.0008	-0.1245	60.9
0.0045	0.0105	0.003	-0.2513	61.2
0.0007	0.0945	0.003	-0.1343	61.1
0.0015	0.0577	0.0067	-0.27	61.3
-0.003	0.0292	0.0097	-0.111	61.3
-0.0046	0.0052	0.0075	0.0502	61.5
-0.0046	-0.0091	0.0015	-0.06	61.6
-0.0046	-0.0915	-0.0046	-0.0668	61.6
-0.0038	-0.1793	-0.003	-0.0998	61.6
-0.0068	-0.1748	-0.0091	0.0427	61.6
-0.0091	-0.0706	-0.006	0.1177	61.7
-0.006	0.0037	0.0052	0.1222	61.9
-0.0053	-0.0091	0.0067	0.1927	61.9
-0.0075	0.0067	0.0037	-0.0691	61.7
-0.0046	0.0337	0.003	-0.1823	62
-0.006	0.063	0.0022	0.0975	62.2
-0.0068	0.039	-0.003	0.1552	62.1
-0.0068	0.0555	0.0015	0.1462	62.1
-0.0068	0.0562	0.003	0.1275	62.2
-0.0046	0.075	0	-0.0083	62.4
-0.0046	0.1297	0	0.0765	62.3
-0.0038	0.1252	-0.003	-0.0495	62.3
-0.0023	0.1425	-0.0113	-0.1688	62.3
0.0015	0.1177	-0.0203	-0.0503	62.5
0.0015	0.063	-0.0158	-0.1441	62.3
0.0022	-0.0315	0.0022	-0.0405	62.8
0.0067	-0.1426	0.0157	0.0562	62.5
0.0067	-0.1553	0.0112	-0.0308	62.5
0.003	-0.081	0.0105	0.0112	62.8
0.003	-0.0458	0.009	-0.0165	62.8
0.0045	-0.057	0.0015	0.0315	63
0.0052	-0.0308	0.0045	0.0232	62.9
0.0037	-0.0128	0.0045	-0.0623	63
0.0075	-0.0353	-0.0038	0.021	62.9
0.012	-0.0428	-0.012	0.0585	63.1
0.009	-0.0083	-0.0158	-0.0285	63
0.0082	0.024	-0.0068	-0.033	63.4
0.012	0.036	0.006	-0.105	63
0.006	0.0637	0.0045	-0.1328	63.5
0.0015	0.027	0.0045	0.1402	63.4
-0.0008	-0.0691	0.0165	0.084	63.5
-0.0038	-0.0181	0.024	-0.0368	63.4
-0.0008	0.0195	0.0217	0.0637	63.7
-0.0023	0.033	0.0082	-0.0383	63.6
-0.003	0.0967	-0.0023	-0.0548	63.7
0	0.1665	-0.0098	0.0217	63.6
0.0022	0.1687	-0.0143	0.1035	63.7
0.0037	-0.0053	-0.0181	0.1027	63.8
-0.003	-0.0098	-0.0195	-0.006	63.7
-0.006	0.0405	-0.0113	-0.0368	64.1
-0.003	-0.0398	0.0007	-0.0256	63.9
-0.003	-0.1515	0.0015	-0.0428	64.1
-0.003	-0.2385	-0.003	0.0075	64
-0.0046	-0.2108	0.0007	0.1657	64.3
-0.003	-0.0788	0.0082	0.0555	64.1
-0.0046	0.0667	0.003	-0.1155	64.3
-0.0053	-0.0105	0.003	0.1005	64.3
0.0015	-0.0128	0	0.2362	64.3
0.0015	0.0817	-0.0008	-0.0885	64.1
-0.0015	0.1275	0.0097	-0.2925	64.3
-0.0023	0.1395	0.018	-0.0758	64.5
-0.0038	0.102	0.024	-0.0503	64.5
-0.0038	0.2085	0.0232	-0.12	64.7
-0.0015	0.2077	0.0142	0.054	64.5
-0.0023	0.0877	0.009	0.123	64.8
-0.003	-0.1223	0	0.159	64.5
-0.0023	-0.2768	-0.0105	0.0832	64.9
0.0007	-0.1763	-0.0128	-0.0915	64.8
0.003	-0.1095	-0.0173	-0.129	64.8
0.0015	-0.1095	-0.012	-0.1883	64.8
0.0015	-0.1613	0.003	-0.1778	65
0.0052	-0.1935	0.0142	-0.0818	65.1
0.0052	-0.1575	0.015	0.075	65
0.0037	-0.156	-0.0091	0.2325	65.2
-0.0038	-0.1013	-0.0158	0.1762	65.1
-0.0038	-0.0075	0.0045	0.1192	65.2
0.006	0.1552	0.0217	0.06	65.4
0.0105	0.21	0.0367	-0.078	65.4
0.0067	0.039	0.0292	-0.0128	65.3
0	0.0225	0.0135	-0.1673	65.5
0.0022	0.1755	-0.003	-0.3555	65.4
0.0067	0.141	-0.0158	-0.054	65.6
0.0082	0.0585	-0.0143	0.1807	65.7
0.009	0.0937	0.003	0.0937	65.6
0.0127	0.1065	0.0217	-0.0458	65.7
0.0157	0.1342	0.0067	0.0435	65.9
0.0127	0.1042	-0.0038	0.0825	66
0.0112	0.0435	-0.0038	0.039	65.8
0.0097	0.0037	-0.012	0.093	66.1
0.0105	-0.054	-0.0068	0.0285	65.9
0.012	-0.0721	-0.0008	-0.0046	66.1
0.0112	-0.0405	0.003	-0.0683	66
0.009	-0.0443	0.003	-0.1463	66.1
0.009	-0.012	0.0007	-0.0691	66.2
0.009	0.024	-0.012	0.0405	66.1
0.003	-0.0323	-0.024	0.0952	66.3
0.003	-0.027	-0.0158	0.033	66.2
0.003	-0.1028	-0.0008	-0.0346	66.5
0.0015	-0.1808	0.0067	0.006	66.5
0	-0.0908	-0.0008	0.0142	66.4
-0.006	-0.0533	-0.0091	0.009	66.4
-0.006	-0.0691	-0.0098	0.054	66.5
-0.0068	0.0427	-0.0135	0.0472	66.5
-0.0068	0.1552	-0.0128	0.0322	66.8
-0.0038	0.1732	-0.0068	-0.0165	66.6
-0.0008	0.1567	0.0015	-0.1028	66.9
0.0022	0.1042	0.006	-0.1883	66.6
0.003	0.0007	0.0015	0.0082	67
0.0045	-0.0735	0.0007	0.2542	67.2
0.0067	-0.0593	0.0037	0.3502	67
0.009	-0.0938	0.003	0.3442	67.1
0.0067	-0.12	0.006	-0.2558	66.8
0	-0.0825	0.0105	-0.4973	67.1
-0.0023	-0.0165	0.0127	-0.2438	66.9
-0.0008	0.033	0.0127	-0.135	67.4
0	0.0367	0.0067	0.1275	67.2
-0.0008	0.0217	-0.0008	0.1192	67.5
-0.003	-0.0495	-0.0068	0.0615	67.2
-0.0091	-0.1065	-0.0098	0.066	67.6
-0.0091	-0.0443	-0.0128	-0.03	67.4
-0.006	0.0045	-0.0181	-0.2085	67.4
-0.0008	-0.081	-0.0098	-0.2423	67.4
-0.0038	-0.0795	0.003	0.0832	67.9
-0.006	0.0292	0.0082	0.0667	67.5
-0.0008	0.1312	0.0075	0.0352	67.7
-0.0008	0.1822	0.009	0.099	67.8
0.0022	0.159	0.0045	0.0262	67.8
0.006	0.0892	-0.0015	0.0727	68
0.0067	0.0315	0.003	0.0187	67.7
0.0082	-0.0308	-0.0046	0.0495	68
0.0075	-0.1215	-0.0113	0.0817	67.8
0.0075	-0.1808	-0.0098	0.0975	67.9
0.0052	-0.1763	-0.0098	0.1402	68.1
0.003	0	-0.0075	-0.039	68.1
-0.003	0.108	-0.0068	-0.0503	68
-0.0046	0.1005	-0.0008	-0.117	67.9
-0.0015	0.1237	0.0045	-0.4051	68.1
0.0007	0.0592	0.0082	-0.0608	68.3
0.0052	0.012	0.009	0.1312	68.3
0.0037	-0.063	-0.0046	-0.0413	68.4
0.0052	-0.1253	-0.0023	0.2482	68.6
0.0067	-0.0675	0.0022	0.18	68.5
0.0052	-0.0158	0	0.0457	68.4
0.0045	0.048	-0.0023	0.0652	68.5
0.0015	0.1042	-0.0105	-0.1523	68.4
0.0007	0.1162	-0.0091	-0.1613	68.6
0.0015	0.0202	0.0007	0.0247	68.8
0.0007	-0.105	0.0202	0.0232	68.8
-0.0008	-0.0473	0.0307	0.0405	68.8
0.0015	0.0007	0.018	0.0412	69
0.003	-0.0788	0.012	0.0532	68.8
0.0075	-0.0908	-0.0008	0.12	69
0.0082	0.009	-0.0083	-0.1193	68.8
0.0045	0.0337	-0.0113	-0.1733	69
0.0015	-0.0173	-0.0128	-0.1035	68.9
-0.0008	-0.0068	-0.0023	-0.042	69.1
0.0015	0.0472	0.0007	0.0607	69.1
0.0067	0.0892	0.0052	0.12	69.2
0.0097	0.0615	0.0045	0.1215	69.4
0.009	0.0307	-0.0008	-0.0053	69.3
0.009	0.0465	-0.0015	-0.054	69.4
0.0105	0.0585	-0.0015	-0.1756	69.2
0.0142	-0.0465	0.003	-0.2363	69.4
0.0127	-0.1358	0.0052	-0.0495	69.3
0.012	-0.0698	0.0097	0.0682	69.6
0.009	0.0105	0.0007	0.042	69.5
0.0037	0.0495	-0.0053	0.09	69.7
0.0007	0.0195	0.0052	0.0585	69.7
-0.0015	0.078	0.003	0.0202	69.8
-0.0015	0.0787	-0.003	0.0975	69.8
-0.0046	-0.057	-0.0023	0.0532	69.9
-0.0075	-0.1365	-0.003	0.0315	70
-0.0105	-0.1028	-0.0053	-0.0465	69.9
-0.0091	-0.006	-0.0083	-0.0953	70
-0.0075	-0.0173	-0.0083	-0.0248	69.9
-0.0075	-0.0203	-0.0038	-0.0518	70
-0.0038	0.0142	-0.003	0.0262	70
-0.0015	0.0517	-0.0053	0.1297	70.2
0	0.0637	-0.0008	0.0772	70
0	0.0352	-0.0008	0.1342	70.2
-0.0015	0.0007	-0.0046	0.216	70.2
-0.003	-0.0436	-0.0015	0.0705	70.3
0.0007	-0.0278	0.0022	-0.1208	70.3
0.0045	-0.0165	0.012	-0.2821	70.2
0.0052	-0.012	0.0135	-0.306	70.3
0.003	0.0397	0.0112	-0.0833	70.3
0.0007	0.117	0.0105	-0.0278	70.6
-0.0008	0.132	0.0067	0.0817	70.6
0	0.0697	-0.0008	0.2347	70.6
-0.0023	-0.0533	-0.0008	-0.0683	70.6
-0.0015	-0.1298	0.0037	-0.1441	70.7
0.0007	0.0232	0.0052	-0.0375	70.6
0.0007	0.1125	0.0037	-0.0585	70.8
-0.0008	0.0142	-0.003	0.123	70.8
0.0015	-0.1155	-0.0068	0.0585	70.8
0.003	-0.2948	-0.0068	-0.0533	70.8
0.003	-0.2513	-0.0046	-0.165	70.8
0.003	-0.1118	-0.0015	-0.1006	71.1
0.0037	-0.045	0.0097	0.2347	71
0.003	0.0345	0.0082	0.0015	71.2
0.0022	0.0877	-0.003	-0.0968	71
0.003	0.1162	0.0022	0.0247	71.3
0.006	0.0742	0.0022	0.0667	71.1
0.0045	0.0382	0.003	0.048	71.2
0.0052	-0.0008	0.0075	-0.1103	71.2
0.0037	0.0157	0.0082	0.1125	71.5
0.003	0.0667	0.0127	0.21	71.5
0.0045	0.06	0.0127	0.2475	71.2
0.003	0.0465	0.0172	0.198	71.6
0.0045	0.0517	0.0142	0.0105	71.4
0.0045	0.0187	0.0037	-0.1583	71.5
0.0045	-0.0308	-0.0008	-0.2108	71.4
0.003	-0.0593	-0.0083	0.0892	71.7
0.0037	-0.0195	-0.0038	0.0225	71.5
0.0045	0.033	-0.0015	-0.1628	71.7
0.0052	-0.0361	-0.0053	-0.0923	71.7
0.0067	0.015	-0.0038	-0.0023	71.8
0.006	0.1095	-0.003	-0.0128	71.8
0.0037	0.1087	-0.0008	-0.105	71.8
0.0022	0.1372	-0.003	-0.3278	71.8
0.003	-0.0015	-0.0015	-0.1935	71.9
0.0045	-0.1185	0.0067	0.2775	72
0.003	-0.093	0.0067	0.1087	72
0.0022	-0.1095	0	-0.0968	72
0.003	-0.0293	-0.0105	-0.0765	72
0.0015	0.0097	-0.0128	0.0172	72.2
0.0007	-0.0053	-0.0083	0.111	72.2
0.003	0.0442	0.0022	0.048	72.3
0.0075	0.0045	0.0067	0.048	72.1
0.0075	-0.0533	-0.0008	-0.0495	72.3
0.0082	0.0217	-0.0008	0.0525	72.4
0.0067	0.072	0.003	0.0832	72.3
0.0045	0.0405	-0.003	0.0525	72.5
0.003	-0.012	-0.0105	0.138	72.3
0.003	-0.0128	-0.0091	0.039	72.4
0.0045	0.0307	-0.012	-0.1238	72.4
0.0052	-0.1006	-0.0068	-0.3008	72.4
0.006	-0.1613	0.0045	-0.0195	72.7
0.006	-0.0818	0.003	0.2235	72.6
0.0045	-0.0608	0.0015	0.1057	72.8
0.0007	-0.0653	0.003	0.0697	72.7
0.0015	-0.0533	0.0097	-0.0143	72.8
0.0015	0.0907	0.0135	-0.099	72.8
-0.0015	0.1905	0.0082	-0.18	72.8
-0.0068	0.1747	0.0015	-0.0165	72.8
-0.0083	0.1237	0.0067	0.1042	73.1
-0.0075	-0.0098	0.0082	0.105	72.8
-0.0075	-0.0465	-0.003	0.0952	73.1
-0.0046	-0.0413	-0.0083	-0.0638	72.8
0.0052	-0.09	-0.015	-0.1185	73.1
0.0075	-0.0608	-0.0181	-0.042	73
0.0075	0.0202	-0.0165	0.039	73
0.0105	0.0412	-0.0128	-0.2011	73
0.0075	0.0105	-0.0023	-0.168	73.3
0.0037	0.0187	0.0045	0.1612	73.4
-0.0075	0	-0.0068	0.1417	73.2
-0.0195	0.0045	-0.012	0.1327	73.5
-0.0233	-0.033	-0.0105	0.1702	73.3
-0.027	-0.156	-0.0173	0.1387	73.4
-0.0293	-0.1365	-0.0135	-0.0578	73.3
-0.0293	-0.0675	-0.0091	-0.3345	73.4
-0.0225	-0.012	-0.0053	-0.321	73.4
-0.0083	0.0502	0.0067	0.0135	73.8
0.003	0.0967	0.0165	0.1785	73.4
0.0075	0.1575	0.0157	0.1327	73.8
0.0045	0.1035	0.0082	0.0052	73.7
0.006	-0.0038	0.0097	-0.1178	73.7
0.0082	-0.063	0.009	0.0007	73.8
0.0082	-0.0608	0.0022	-0.0173	73.8
0.012	0.0495	0.0007	-0.0533	73.8
0.009	0.135	-0.0023	0.0382	73.9
0.0052	0.0765	0.003	0.048	74.1
-0.0008	-0.003	0.0165	0.1095	74
-0.0053	0.0037	0.033	0.0915	74.1
-0.006	0.0577	0.0352	0.0007	74
-0.006	0.063	0.0187	0.0472	74.2
-0.0038	-0.0068	0.0157	0.024	74
-0.0015	-0.0233	0.009	0.018	74.2
0.0007	-0.1388	-0.0015	0.147	74.3
0.0052	-0.192	-0.003	0.192	74.3
0.009	-0.0083	-0.006	0.21	74.2
0.012	0.099	-0.0105	0.039	74.1
0.0097	0.099	-0.0105	-0.2138	74.2
0.009	0.0682	-0.0053	-0.2595	74.3
0.012	0.0532	-0.0023	-0.3293	74.2
0.0097	0.0907	-0.0046	-0.1448	74.4
0.0082	0.0225	-0.012	0.1012	74.6
0.0067	-0.123	-0.0098	-0.0788	74.3
0.0067	-0.1748	-0.0068	-0.0721	74.5
0.0067	-0.249	-0.0068	-0.0195	74.6
0.012	-0.237	-0.0075	-0.024	74.6
0.0142	-0.0428	-0.0143	0.1147	74.6
0.0135	0.0937	-0.0195	0.1132	74.7
0.0187	0.144	-0.0143	0.0937	74.8
0.0187	0.0675	0.0015	0.024	74.7
0.018	-0.0458	0.0127	-0.0818	74.8
0.012	-0.0353	0.012	-0.114	74.7
0.0127	0.009	0.0112	-0.0608	74.9
0.0157	0.036	0.0082	-0.111	74.8
0.0157	0.0682	0.0052	-0.1313	74.9
0.0142	0.0585	0.0067	0.024	74.9
0.0067	-0.054	0.0067	-0.0473	75.1
0.003	-0.1718	0.003	0.0105	75.1
-0.0015	-0.1455	-0.0053	0.1635	75.2
-0.0068	-0.0008	-0.006	0.1875	75.1
-0.0083	0.0892	-0.0105	0.273	75.1
-0.0083	0.1695	-0.0173	0.0945	75.1
-0.0098	0.174	-0.0105	-0.0758	75.1
-0.0143	0.0885	-0.0083	-0.2055	75.4
-0.0188	0.0825	-0.0023	-0.1785	75.1
-0.021	0.0195	0.0067	0.0787	75.4
-0.0218	-0.0075	0.0015	-0.0638	75.4
-0.0225	0.0367	-0.0053	-0.0856	75.4
-0.0181	-0.0053	-0.0143	0.0037	75.2
-0.006	-0.0818	-0.0135	-0.0256	75.6
0.009	-0.1441	-0.006	0.0127	75.4
0.0142	-0.0923	-0.0098	-0.03	75.6
0.018	0.024	-0.0113	0.0465	75.5
0.0187	0.0097	-0.0091	0.165	75.6
0.021	-0.0158	-0.0015	0.1012	75.8
0.024	0.0052	0.0045	-0.0563	75.6
0.0262	0.0127	0.009	-0.129	75.8
0.0307	0.0517	0.018	-0.1381	75.7
0.03	0.009	0.0307	0.0967	75.8
0.0262	-0.0143	0.042	0.123	75.9
0.0202	-0.03	0.039	-0.117	75.9
0.0157	-0.093	0.0292	-0.0105	75.9
0.015	-0.0398	0.0127	0.156	75.9
0.0105	0.0277	0.006	0.2197	76
0.0045	0.0007	0.012	-0.0436	75.8
-0.0046	-0.0233	0.0075	-0.2003	76
-0.0143	0.018	0.0007	0.0442	76
-0.0188	-0.0188	-0.003	0.0322	76
-0.0195	-0.0203	0.0022	0.0382	76
-0.021	0.012	-0.0008	0.1402	76
-0.0195	-0.0473	-0.0068	-0.0075	76.1
-0.0203	-0.0105	-0.0083	-0.0225	76.2
-0.0181	0.1252	-0.0098	-0.0105	76.3
-0.015	0.2167	-0.0023	-0.0803	76.3
-0.0128	0.1297	0.0045	0.1635	76.4
-0.0091	-0.012	0.0037	0.2685	76.3
-0.0091	-0.0465	-0.003	0.0727	76.4
-0.006	-0.042	-0.0046	-0.2813	76.1
-0.0015	-0.0293	-0.0068	-0.5018	76.4
0.0052	-0.015	-0.0068	-0.1575	76.3
0.012	-0.0968	-0.0046	0.054	76.6
0.0157	-0.117	-0.0023	0.099	76.4
0.0172	0.0292	0.0082	0.0757	76.6
0.015	0.156	0.009	-0.0233	76.6
0.0097	0.1552	0.0045	0.0367	76.8
0.0105	0.012	0	-0.0653	76.8
0.0105	-0.045	-0.0068	0.0765	76.6
0.0127	-0.0856	-0.0075	0.1785	76.9
0.0105	-0.1703	-0.0015	0.0232	76.7
0.0082	-0.1328	0.009	-0.0105	76.9
0.0045	-0.0871	0.012	-0.045	76.7
-0.0053	0.0015	0.0007	-0.111	76.9
-0.0181	0.051	-0.0046	-0.117	76.8
-0.0293	0.045	-0.003	-0.0638	77.2
-0.0233	0.0277	0	-0.0346	76.8
-0.0143	0.0247	0.003	0.0307	77
-0.0098	0.078	-0.0008	-0.0181	77
-0.0068	0.0465	-0.0128	0.138	77.3
-0.0015	-0.0143	-0.012	0.345	77.2
0.0105	-0.0638	-0.0105	0.2355	77.3
0.0112	-0.0436	-0.0098	-0.0555	77
0.0142	0.0067	-0.0023	-0.423	77.1
0.0105	0.0555	0.0037	-0.2438	77.3
0.0015	0.1147	0.0082	0.0457	77.2
0.003	0.1162	0.0075	-0.0608	77.4
0.0045	0.0652	0.0105	0.0217	77.3
0.0082	-0.0773	0.0105	0.0165	77.4
0.0082	-0.1545	0.009	-0.0691	77.5
0.0082	-0.0743	0.012	-0.0533	77.4
0.0075	0.009	0.006	-0.0495	77.6
0.0052	0.0142	0.003	0.093	77.6
0.0075	-0.0203	-0.0008	0.1065	77.7
0.009	-0.0758	-0.003	0.0675	77.4
0.006	-0.0825	-0.006	0.0172	77.8
0.0045	-0.0173	-0.012	-0.0046	77.5
0.0022	0.027	-0.0158	-0.0015	77.7
0	0.0592	-0.0098	0.1462	77.8
0.0015	0.09	-0.003	0.3232	77.8
-0.0015	0.0712	-0.0135	0.0457	77.7
0.0007	-0.0181	-0.012	-0.012	77.8
0.0052	-0.1118	0.0007	0.0607	77.8
0.009	-0.1163	0.0022	-0.2033	77.7
0.006	-0.042	-0.0015	-0.3443	78
0.0022	0.0187	-0.0068	-0.2573	77.7
0.0075	0.0382	-0.0023	-0.0615	78.1
0.0075	0.0465	0.0037	0.0645	78
0.0075	0.0682	-0.0015	0.0427	78.3
0.0067	0.0315	-0.0046	0.0232	78
0.003	-0.084	-0.0113	0.0405	78.3
0.0037	-0.1515	-0.0098	0.054	78.2
0.0045	-0.057	-0.0038	-0.027	78.2
0	0.0375	0.0007	-0.1598	78.3
0	0.06	0.0127	-0.0233	78.3
0.003	-0.0128	0.0067	0.1447	78.5
0.0037	-0.057	-0.0008	0.0945	78.3
0.003	-0.0113	0.0097	0.0082	78.6
0.0022	-0.0135	0.024	-0.0256	78.3
0.003	0.0765	0.0277	-0.006	78.6
-0.0015	0.0532	0.009	-0.114	78.4
-0.0023	0.0577	0.0052	-0.1148	78.7
0	0.1665	0.003	0.168	78.7
0.0022	0.0855	-0.0046	0.3502	78.8
0.003	0.0285	0.0022	0.1552	78.7
0.003	0.0577	0.006	-0.1455	78.6
0.0037	0.0457	0.009	-0.105	78.7
-0.0008	0.0217	-0.0053	0.024	78.8
0.0015	-0.012	-0.0181	-0.0135	78.8
0.0135	-0.0608	-0.0158	-0.0555	78.9
0.0217	-0.0825	-0.0225	-0.0436	78.8
0.0097	-0.033	-0.0143	0.0555	79
0.0075	0.0577	-0.0091	-0.0885	79
0.0112	-0.0075	0.0007	-0.114	79
0.0075	-0.1328	0.0142	0.1575	79.2
0.0067	-0.048	0.0127	0.033	79.1
-0.0008	0.0577	0.0112	-0.0293	79.2
-0.0023	0.0487	0.0082	0.063	79.3
-0.0015	0.0652	0.0082	0.0667	79.3
-0.0008	0.0195	0.0007	0.066	79.3
-0.0068	-0.0165	-0.0038	-0.0195	79.2
-0.012	-0.0143	0.0015	-0.093	79.4
-0.012	-0.0165	0.0015	-0.0908	79.3
-0.0165	-0.0195	0.0022	0.0352	79.5
-0.012	-0.0623	0.0015	0.0405	79.4
-0.0105	-0.0008	-0.0046	0.036	79.4
-0.0105	0.051	-0.0068	-0.1275	79.4
-0.0091	0.0555	-0.0091	-0.207	79.4
-0.0053	0.0015	-0.0046	-0.0158	79.5
-0.0015	-0.0555	0.0045	-0.033	79.6
0.0007	-0.0458	-0.0008	0.1192	79.8
0.0045	-0.0915	-0.003	0.1485	79.8
0.006	-0.0645	0.003	0.051	79.9
0.0015	0.0082	0.003	0.132	79.7
-0.0008	0.018	0.0097	0.0915	79.9
0.0045	-0.0405	0.009	0.0705	79.8
0.0082	-0.054	0.0015	-0.048	80
0.0105	-0.0315	-0.0091	-0.195	79.9
0.0097	-0.0593	-0.012	-0.1275	80
0.0052	0.0067	-0.0068	-0.0458	79.9
0.003	0.033	-0.0083	-0.0983	80
-0.0008	0.0532	-0.0075	-0.0068	80.1
-0.0068	0.081	-0.0091	0.0525	80.1
-0.0083	0.0217	-0.0083	-0.0165	80.2
-0.006	0.0592	-0.0023	0.009	80.2
-0.0105	0.0292	0	-0.0248	80.3
-0.0105	-0.024	0	0.0735	80.3
0.0007	-0.0458	0.0015	0.138	80.5
0.0052	-0.0743	0.0022	0.0937	80.5
0.0037	-0.0293	-0.0015	-0.0428	80.5
0.0007	0.0442	-0.0038	-0.2438	80.3
0.009	0.0517	0.0015	-0.0878	80.7
0.0157	-0.0023	0.0142	0.0277	80.5
0.018	0.0015	0.0127	-0.0338	80.6
0.0127	-0.0113	-0.0015	0.0705	80.6
0.0127	0.033	-0.0046	0.081	80.8
0.0105	0.0892	-0.0068	-0.048	80.6
-0.0008	0.0952	-0.0091	-0.0623	80.7
-0.0038	0.0607	-0.0068	0.048	80.9
-0.0053	0.018	-0.0023	0.096	80.9
-0.0053	0.0022	0.0015	0.102	81
-0.0068	-0.0315	0.003	-0.0038	80.9
-0.0038	-0.0803	0.0105	-0.1703	81
-0.003	-0.1598	0.0112	-0.096	81
-0.0083	-0.1043	0.0105	0.0255	81.3
-0.0053	0.0247	0.0112	0.0847	81.1
-0.0038	0.075	0.015	0.1552	81.2
-0.0008	0.0937	0.0195	0.1335	81.2
0.0015	0.051	0.024	0.0525	81.1
0.0045	-0.0675	0.0217	-0.0075	81.3
0.0015	-0.0795	0.0097	-0.0353	81.2
-0.0023	0.012	0.0082	-0.2693	81.2
-0.003	-0.0023	0.0075	-0.303	81.4
-0.0015	-0.0293	0.0045	0.039	81.5
-0.0015	0.0165	-0.0053	0.012	81.4
-0.0046	0.0517	-0.0158	-0.0518	81.3
-0.0023	0.0255	-0.0135	-0.0893	81.5
0.0007	-0.027	-0.0143	-0.048	81.6
0.0052	-0.0765	-0.0143	0.285	81.8
0.0075	-0.1193	-0.0105	0.261	81.8
0.0015	-0.1035	-0.0053	0.1042	81.9
0.0007	-0.0945	0.0007	0.1447	81.8
0.0045	-0.0975	0.0037	0.0855	82
0.0007	-0.012	0.0045	-0.0428	81.7
0	0.1042	0.0015	-0.1155	81.9
0.0082	0.1815	-0.0075	-0.168	81.8
0.0037	0.1747	-0.0195	-0.1313	82
-0.0075	0.1162	-0.0195	-0.0143	81.8
-0.0008	0.0675	-0.0143	0.0142	82
0.0022	0.0082	-0.0113	-0.0218	82.2
0.0045	-0.0158	-0.0143	0.0247	82.1
0.009	-0.0458	-0.0218	0.0547	82.3
0.0052	-0.0915	-0.0233	0.0232	82.2
0.0045	-0.0975	-0.0143	0.021	82.3
0.0022	-0.1268	-0.0008	0.0727	82.1
0.0067	-0.0503	0.0105	0.048	82.3
0.0105	0.1125	0.021	-0.117	82.2
0.012	0.1612	0.0277	-0.1898	82.5
0.0112	0.1402	0.0292	-0.1148	82.3
0.0067	0.0082	0.0255	0.0067	82.7
0.009	-0.1328	0.0217	0.0705	82.6
0.0082	-0.0458	0.009	-0.0015	82.6
0.003	-0.039	-0.0038	-0.0465	82.4
-0.0023	-0.003	-0.003	0.0585	82.8
-0.0038	0.0667	0.0007	0.123	82.7
-0.0015	-0.0023	-0.0023	0.012	82.7
-0.0046	0.0345	-0.0098	-0.0023	82.8
-0.0053	0.0345	-0.0128	-0.006	82.7
-0.0068	0.0532	-0.0135	-0.0465	82.9
-0.0053	0.0067	-0.015	0.0795	82.9
-0.003	-0.0615	-0.0173	0.2025	83
-0.003	-0.057	-0.0143	0.2557	82.8
0.0007	-0.09	-0.012	0.063	83.1
0.0015	-0.0361	-0.012	-0.2123	82.8
0.0007	-0.0218	-0.0015	-0.3345	83.2
0.0007	0.027	0.0082	-0.4403	83
-0.0015	0.0277	0.0082	-0.2213	83.2
-0.0046	-0.042	0.0007	0.1635	83.3
-0.003	0.0097	-0.0023	0.2767	83.2
-0.003	0.0165	0.003	0.1672	83.2
-0.0008	0.0442	0.0052	0.051	83.5
-0.003	0.0577	0.0105	-0.0383	83.4
-0.0091	0.048	0.006	-0.129	83.4
-0.0091	0.0225	0.0067	0.0165	83.4
-0.0046	-0.0008	0.0127	0.0765	83.6
-0.0023	0.0547	0.009	0.0202	83.6
0.0007	0.0097	0.0097	-0.0983	83.6
0.0045	-0.0623	0.012	-0.1643	83.6
0.0067	-0.1028	0.012	0.0217	83.7
0.009	-0.0683	0.0075	0.0022	83.7
0.0105	-0.0915	0.0045	-0.021	83.7
0.0075	-0.1268	0.0037	0.0307	83.7
0.0075	-0.006	0.0022	0.0645	84.1
0.0045	0.024	0.0082	0.1275	83.8
-0.003	0.0262	0.0112	0.027	84.1
-0.003	0.0307	0.0127	-0.0825	83.7
0.0037	-0.0218	0.0135	-0.0758	84.1
0.003	-0.015	0.0052	0.0082	84.1
0.0007	-0.012	-0.0038	0.0502	84.2
-0.0015	0.0187	-0.0038	0.0007	84.3
-0.0053	0.0877	-0.0015	0.015	84.2
-0.0038	0.1042	0.0007	0.1125	84.5
-0.0008	0.1087	0.0037	0.1485	84.3
0.0007	0.0502	0.0045	0.177	84.6
0.0082	0.0262	0.0052	0.1042	84.4
0.0202	0.0097	0.0015	0.0592	84.6
0.0187	-0.0443	-0.0053	0.0727	84.3
0.0112	0.0352	-0.0113	-0.2573	84.5
0.006	0.0345	-0.0165	-0.3428	84.3
0.0007	-0.078	-0.0143	-0.0346	84.7
0.0007	-0.1095	-0.0091	0.0352	84.6
0.0007	-0.1568	-0.0053	0.0915	84.8
0.0045	-0.1485	0.0007	0.135	84.8
0.012	-0.0308	0	0.0472	84.8
0.018	0.0142	-0.0015	-0.0443	84.8
0.0142	0.0547	0.0045	-0.195	84.8
0.0105	0.09	0.0112	-0.2175	85.1
0.0157	0.0982	0.006	-0.1073	84.9
0.015	0.039	-0.0143	-0.0346	85.2
0.0142	-0.0091	-0.0105	-0.0353	85
0.0105	-0.0263	0.006	0.0217	85.3
0.0082	-0.057	0.009	0.105	85.1
0.0105	-0.0075	0.0037	0.042	85.2
0.0142	-0.0083	-0.0015	-0.0443	85.1
0.0157	0.0412	0.0067	-0.0383	85.2
0.009	0.021	0.009	0.0382	85.3
0.0045	-0.054	0.0127	0.0712	85.5
0.0015	0.0165	0.027	-0.0181	85.4
0	0.0577	0.0367	-0.0256	85.5
0.0007	-0.033	0.0322	0.18	85.5
-0.0008	-0.0765	0.0202	0.303	85.6
-0.0038	0.0442	0.0142	0.1702	85.5
-0.003	0.2032	0.012	-0.0728	85.5
-0.0046	0.258	0.0037	-0.2026	85.6
-0.0091	0.1237	-0.0053	-0.0938	85.5
-0.0053	0.0202	-0.0075	0.1102	85.7
0.0015	-0.0181	-0.0091	0.2182	85.6
0.0015	-0.1006	-0.0113	0.159	85.8
-0.0008	-0.2078	-0.0098	-0.0383	85.6
-0.0038	-0.2093	-0.0083	-0.3023	85.8
-0.0105	-0.1043	-0.0083	-0.2768	85.9
-0.0143	-0.0488	0.0067	-0.015	86
-0.012	0.0105	0.0232	-0.042	86.1
-0.012	0.0292	0.0202	-0.1125	85.9
-0.0083	0.021	0.006	0.0007	86
-0.0068	0.0262	-0.0113	0.0105	86.1
-0.0083	-0.0075	-0.0188	0.0637	86.2
-0.0038	-0.0248	-0.0218	0.0877	86.2
0	0.0202	-0.0233	0.0157	86.3
0.0045	0.069	-0.0195	0.0097	86.1
0.0097	0.0157	-0.0188	0.0817	86.3
0.012	-0.0803	-0.0105	0.0577	86.2
0.0127	-0.093	0.0007	-0.1275	86.3
0.015	-0.033	0.0082	-0.093	86.3
0.0142	0.027	-0.0038	-0.123	86.4
0.012	0.03	-0.0188	-0.123	86.5
0.0127	0.084	-0.024	0.0465	86.3
0.012	0.042	-0.0233	0.0727	86.6
0.0082	-0.0818	-0.0128	0.1057	86.4
-0.0008	0.039	-0.0046	0.003	86.8
-0.0046	0.1275	0.0045	0.0315	86.7
0.0075	0.084	0.009	0.0855	86.8
0.0157	0.0382	0.012	-0.0083	86.6
0.0105	-0.033	0.018	0.0562	86.8
0.0045	-0.0518	0.0217	0.0307	86.8
-0.0015	-0.0113	0.0217	-0.0623	86.8
-0.003	0.0007	0.0142	-0.1726	86.9
-0.0015	-0.0075	0.0067	-0.0765	86.8
0.0037	-0.0135	-0.003	0.054	86.9
0.0015	-0.0181	-0.0053	-0.0181	86.9
-0.0023	-0.0233	-0.0053	0.051	87.1
0.0037	-0.0015	-0.0091	0.057	86.9
0.006	0.0442	-0.0098	0.039	87.1
0.0082	0.0465	-0.0083	0.0045	86.9
0.006	-0.0173	-0.006	-0.0698	87.2
0.0075	-0.0518	-0.0008	-0.0383	87.1
0.0015	0.021	0.003	0.0135	87.1
-0.0038	0.0435	0.0022	0.063	87.2
-0.0046	0.0412	0.0015	0.0525	87.2
-0.0068	-0.0083	-0.0053	0.09	87.3
-0.003	-0.0878	-0.0105	0.1342	87.2
-0.0015	-0.15	-0.0165	0.1455	87.4
-0.0008	-0.1365	-0.0203	0.1455	87.2
-0.0023	-0.0615	-0.0195	0.0547	87.4
-0.003	-0.0323	-0.0165	-0.2303	87.3
-0.0068	0.075	-0.0046	-0.2858	87.4
-0.0181	0.1822	0.0097	-0.0638	87.4
-0.0293	0.2407	0.0052	-0.0856	87.5
-0.0233	0.153	0.0007	-0.033	87.5
0.0037	-0.0315	-0.003	-0.0293	87.5
0.012	-0.1448	-0.0008	-0.0653	87.7
0.009	-0.105	0.0067	0.012	87.6
0.0195	-0.0293	0.0052	0.063	87.6
0.0195	-0.0338	0.0165	0.0247	87.6
0.0217	0.021	0.0217	-0.1973	87.7
0.018	-0.0091	0.0165	-0.2453	87.7
0.0172	-0.0735	0.018	-0.1493	87.8
0.018	-0.1268	0.0165	0.1402	87.9
0.0097	-0.135	0.0052	0.258	88
0.0067	-0.024	-0.0053	0.075	87.8
-0.0008	0.021	-0.0091	0.1132	87.9
-0.0046	0.0472	-0.0083	0.1417	88
-0.003	0.078	0.0007	0.117	87.8
-0.0008	0.0652	0.003	-0.027	88
0.0022	0.0442	-0.003	-0.0728	88
0.0022	0.012	0.0015	0.0142	88.2
0.003	0.0607	0.0037	-0.0218	88.1
-0.0008	0.0592	0.0045	0.0405	88.2
-0.003	-0.039	0.0067	0.0097	88.1
-0.0053	-0.0135	0.0052	-0.0443	88.2
-0.0038	-0.0465	0.0067	0.0097	88.2
-0.0008	-0.0938	-0.0015	0.0712	88.1
0.0015	0.0457	-0.0068	0.1447	88.3
0.0007	0.0547	-0.0015	0.1875	88.2
-0.0015	-0.0158	-0.0083	0.1875	88.4
-0.0053	-0.06	-0.0128	0.0412	88.1
-0.0015	0.0195	-0.012	-0.2843	88.4
0.0052	0.1665	-0.0098	-0.3743	88.2
0.0105	0.0622	-0.0008	-0.0248	88.7
0.0157	0.0255	0.003	-0.0158	88.4
0.0127	0.0052	0.0052	-0.108	88.6
0.0112	-0.057	0.0015	-0.0458	88.4
0.012	-0.0525	-0.003	-0.09	88.6
0.0067	-0.0465	-0.0008	-0.0105	88.5
0	0.033	0.0015	-0.0353	88.6
-0.0083	-0.021	0.0007	-0.0068	88.6
-0.0128	-0.1065	-0.0135	0.0157	88.5
-0.012	-0.0825	-0.0165	0.0007	88.6
-0.0075	-0.0091	-0.0105	0.0847	88.6
-0.003	0.0367	-0.003	0.0705	88.9
-0.0015	0.0247	0.0045	0.0427	88.6
-0.0015	0.0487	0.003	0.0075	88.9
-0.0038	0.078	0.0007	-0.012	88.8
-0.0038	0.129	0.0067	0.009	89
-0.0015	0.084	0.0052	0.015	88.8
0.0007	-0.0023	0.0007	0.0465	89
0	-0.03	-0.0015	0.096	89
-0.0053	-0.099	-0.003	0.1252	89.1
-0.0046	-0.1013	0.0045	0.1327	89.1
-0.0015	-0.09	0.0067	0.0187	88.9
-0.0008	-0.12	0.009	-0.1785	89
0.0067	-0.123	0.0165	-0.3255	89
0.009	-0.054	0.0052	-0.177	89.1
0.0097	0.0937	0.0007	0.0412	89.1
0.0105	0.2115	0.003	0.024	89.2
0.0082	0.0982	-0.0008	-0.0105	89.1
0.009	0.012	0.0037	-0.0181	89.1
0.0067	0.0667	0.0015	0.042	89.2
0.003	-0.0128	-0.0008	0.0187	89
0.006	-0.135	0.0007	-0.0256	89.2
0.0052	-0.2138	-0.0038	-0.0053	89.2
0.009	-0.1913	-0.0023	-0.0721	89.2
0.0097	-0.0256	-0.0015	0.0615	89.3
0.0067	0.2212	-0.003	0.252	89.6
0.0007	0.261	0.003	0.1702	89.3
-0.0046	0.1455	0.006	0.021	89.6
-0.0015	0.0352	0.0015	-0.0975	89.3
0.0007	-0.0653	-0.0046	-0.0788	89.3
0.0007	-0.0691	-0.0083	0.003	89.4
0.0007	-0.0735	-0.006	0.1087	89.5
-0.0015	-0.0638	0.0015	0.2235	89.7
-0.0008	0.0187	0.0037	-0.003	89.5
-0.0038	0.0885	0.0007	-0.1711	89.5
0.0037	0.0622	0.0015	-0.1253	89.4
0.0052	0.0067	0.006	-0.09	89.6
0.0022	-0.0346	0.009	-0.03	89.4
0.0015	-0.0263	0.0105	-0.012	89.7
-0.0068	0.0082	0.009	0.0727	89.5
-0.0158	0.0742	0.0105	0.0697	89.7
-0.0135	0.2197	0.0127	0.0277	89.6
-0.0083	0.1507	0.0075	0.0307	89.8
-0.0083	0.0262	0.0045	-0.0015	89.5
-0.0038	0.0345	0.0007	-0.0518	89.7
0.0015	-0.1118	-0.0068	-0.1073	89.6
0.0067	-0.2011	-0.0068	-0.0091	89.7
0.009	-0.1223	-0.0053	0.0637	89.8
0.0082	-0.0765	-0.0068	0.0847	89.7
0.0082	-0.1538	-0.0038	0.0982	90
0.0067	-0.1058	-0.0008	0.0322	89.7
0.0127	0.0195	0.0015	-0.1095	89.9
0.0105	0.0232	0.0007	-0.3518	89.7
0.0067	0.0375	0.0015	-0.237	90
0.0067	-0.075	0.0097	-0.0443	89.8
0.0037	-0.0683	0.0142	-0.054	90
-0.0015	0.024	0.0075	0.135	90
-0.0046	-0.0285	-0.0038	0.1792	90
-0.0053	0.0105	-0.0075	0.1702	90
-0.0083	0.0637	-0.012	0.1725	90
-0.0038	0.0765	-0.0158	-0.0008	90
-0.0046	0.0412	-0.0105	-0.0908	90
-0.0038	0	-0.0015	-0.0668	90.1
0.0022	0.03	0.006	-0.0368	90.1
0.0082	0.0255	0.009	-0.0608	90.2
0.0105	-0.0046	0.0067	-0.03	90
0.0105	-0.0375	0.0067	0.0577	90.3
0.015	-0.0578	0.0045	0.105	90
0.0127	-0.0923	-0.0008	0.1027	90.3
0.0135	-0.093	-0.0105	0.0945	90
0.0082	-0.0278	-0.0181	0.1147	90.3
0.009	0.0465	-0.0225	0.0577	90
0.015	0.0832	-0.0113	-0.1313	90.2
0.0067	0.0817	0.0052	-0.2791	90.2
-0.0008	0.0742	0.012	-0.2033	90.3
-0.0053	0.0247	0.0172	-0.0728	90.2
-0.003	0.0315	0.015	-0.054	90.4
-0.0091	0.075	0.0052	-0.0563	90.3
-0.0173	0.0555	0.003	-0.0353	90.3
-0.0181	0.0105	0.0052	0.0382	90.3
-0.0195	-0.0458	0.0045	0.1027	90.3
-0.0181	-0.0863	-0.0046	0.0997	90.3
-0.0143	-0.159	-0.0091	0.0802	90.4
-0.0091	-0.0608	-0.0068	0.0562	90.4
-0.003	0.108	-0.006	0.069	90.4
0.0127	0.0862	-0.0053	0.0562	90.3
0.024	0.12	-0.0053	-0.042	90.3
0.0202	0.081	-0.003	-0.0765	90.4
0.0165	-0.0203	0.0045	0.021	90.5
0.0127	-0.0405	0.006	0.0682	90.3
0.0105	-0.0436	0.003	-0.0083	90.4
0.012	-0.0443	-0.0008	-0.0008	90.4
0.0157	-0.0593	0.0022	0.0067	90.4
0.0195	0.0037	0.0142	-0.015	90.4
0.0225	0.0082	0.024	0.0315	90.6
0.0195	-0.0098	0.0247	0.0142	90.4
0.015	0.0052	0.0217	-0.021	90.4
0.012	0.024	0.009	-0.0413	90.5
0.0105	0.0592	-0.003	-0.0653	90.4
0.012	0.039	-0.0068	-0.0683	90.5
0.012	-0.0323	-0.0046	-0.0091	90.6
0.0052	-0.0706	0.0007	0.114	90.6
0.003	-0.021	0.0052	0.1042	90.5
0.003	-0.0218	0.012	-0.0863	90.6
-0.003	-0.042	0.0112	-0.1103	90.4
-0.0068	-0.0158	-0.0053	0.036	90.6
-0.0143	0.0457	-0.015	0.0157	90.6
-0.0188	0.0877	-0.0158	0.0495	90.7
-0.0203	0.0405	-0.0165	0.1725	90.6
