File Name: sentado.log
Channel 4: 'Recto Femoral', 30073 values, engineering units: mV, no filters.
Channel 5: 'Biceps Femoral', 30073 values, engineering units: mV, no filters.
Channel 6: 'Vasto Medial', 30073 values, engineering units: mV, no filters.
Channel 7: 'EMG Semitendinoso', 30073 values, engineering units: mV, no filters.
Channel 8: 'Flexo-Extension', 30073 values, engineering units: deg, no filters.

0.006	0.0007	0.0007	-0.0015	48.1
-0.0008	0.0007	-0.0046	-0.0015	47.8
0.003	0.0015	-0.0046	-0.0015	47.7
0	0.0007	-0.003	0	47.7
0.0015	-0.0015	-0.0015	-0.0008	47.7
0.0105	-0.0046	-0.0053	-0.0015	47.4
0.0127	-0.0046	-0.0068	-0.003	47.5
0.0067	-0.0023	-0.0053	-0.0015	47.6
-0.0038	0	-0.0053	0.0007	47.5
-0.0128	0.003	-0.0015	0.003	47.5
-0.012	0.0067	0.0022	0.0045	47.4
-0.0143	0.0067	0.0022	0.003	47.5
-0.0143	0.0015	0.0037	0.0022	47.2
-0.0128	-0.0008	0	0.003	47.5
-0.0098	-0.0008	-0.0023	0.0015	47.3
-0.0068	-0.0038	-0.0015	0.0007	47.4
-0.0083	-0.0053	-0.003	0.0015	47.1
-0.0091	-0.0046	0	0.0007	47.2
-0.0105	-0.0046	0	0.0007	47.2
-0.0083	-0.0053	-0.0008	0	47.2
-0.0053	-0.0068	0.0007	-0.0015	47
-0.0015	-0.0075	-0.0015	-0.0038	47.2
0.0037	-0.0083	-0.0015	-0.0053	46.8
0.0052	-0.0083	-0.0008	-0.0046	46.9
0.009	-0.0046	0.0015	-0.0015	46.9
0.009	-0.003	0.0045	-0.0008	47
0.009	-0.0023	0.003	-0.0008	46.8
0.0045	-0.003	0.0045	0.0007	47
-0.003	-0.0023	0.0045	0.0007	46.6
-0.0046	-0.0008	0.0067	0.0015	46.8
0.0007	0.0007	0.0075	0.0022	46.7
0.0045	0.0007	0.0045	0.003	46.6
0.0067	-0.0008	0.003	0.0045	46.6
0.009	0.0037	0.003	0.0067	46.5
0.0082	0.0052	0.0007	0.0037	46.5
0.0037	0.0052	-0.0008	0.0007	46.4
0.003	0.0052	0	-0.0008	46.2
0.0052	0.003	-0.0015	-0.0008	46.4
0.0082	0.003	-0.003	0	46.3
0.0082	0.0015	-0.0053	0.0007	46.4
0.0045	0.0007	-0.0068	0.0007	46.2
-0.0038	-0.0008	-0.0053	-0.0015	46.4
-0.0091	-0.0015	0	-0.003	46.2
-0.0091	-0.0008	0.0022	-0.003	46.2
-0.0083	0.0007	-0.0038	-0.0038	46
-0.0053	-0.0008	-0.0038	-0.003	46
0.0007	-0.0015	-0.006	-0.0046	46
0.0022	0.0007	-0.0068	-0.0038	45.9
0.0015	-0.0008	0.0007	-0.0046	45.9
0.003	-0.003	0.0007	-0.006	45.7
0.0037	-0.0023	-0.0008	-0.0053	45.7
0	-0.003	-0.0046	-0.003	45.7
-0.0015	-0.0008	-0.0075	-0.0015	45.6
0.003	0.0015	-0.0053	-0.0015	45.9
0.0067	0.0015	-0.006	-0.0015	45.5
0.0037	-0.0008	-0.0046	0	45.6
0.0022	-0.0008	-0.0008	-0.0015	45.5
0.0045	0	0.0022	-0.0015	45.4
0.003	-0.0008	0.0022	-0.0015	45.6
0.0015	0	0.006	-0.0023	45.4
0.0045	-0.0008	0.0142	-0.0008	45.5
0.0082	-0.0008	0.0225	0.0015	45.3
0.009	0.0015	0.021	0.0022	45.5
0.0127	0.0015	0.018	0.0015	45.4
0.0157	0.0007	0.0142	0.0007	45.4
0.0142	-0.0008	0.009	0	45.4
0.0105	-0.0008	0.0052	0	45.4
0.012	-0.0008	0.0007	0	45.2
0.0112	-0.0015	-0.003	-0.0015	45.2
0.0105	-0.0023	-0.0046	-0.0023	45.2
0.0105	-0.0008	-0.0053	-0.0015	45
0.0082	0.003	-0.0091	0.0007	45
0.0022	0.0067	-0.0105	0.0015	45
-0.0023	0.006	-0.0098	0.0022	44.8
-0.0046	0.003	-0.0098	0.0007	44.8
-0.0046	0.0022	-0.0075	-0.0015	44.9
-0.003	0.0007	-0.003	-0.0008	45
-0.0015	-0.0015	0.0007	-0.0008	44.7
-0.0008	-0.003	0.0015	0	44.9
-0.0015	-0.0038	0	0.0007	44.8
-0.0008	-0.0053	-0.0015	-0.0015	44.7
0.003	-0.0053	-0.0015	-0.0015	44.5
0.0052	-0.003	-0.0023	-0.0015	44.6
0.0015	-0.003	-0.0008	-0.0008	44.6
-0.003	-0.0015	-0.0008	0.0007	44.6
-0.0038	-0.0015	0.0007	0.0015	44.3
-0.0068	-0.003	0.003	0.0015	44.5
-0.0091	-0.0015	0.003	0.0015	44.3
-0.0091	-0.0023	0.003	0.0015	44.5
-0.006	-0.0015	0.0015	0.003	44.2
-0.0091	0	0.0007	0.0045	44.3
-0.0128	0.0022	0.0045	0.003	44.2
-0.0098	0.0015	0.0052	0.0015	44.2
-0.0083	-0.0008	0.0007	0.0007	44.1
-0.0023	0	0.0007	-0.0015	43.9
-0.0008	-0.0008	0.0007	-0.0038	44.1
0.0045	0.0015	-0.0008	-0.0038	43.9
0.0135	0.003	-0.0015	-0.0015	44.1
0.0172	0.003	-0.0068	-0.0008	43.7
0.0225	0.0007	-0.0083	-0.0023	43.8
0.0255	0	-0.0068	-0.0015	43.9
0.0217	-0.0008	-0.0015	-0.0008	43.6
0.0195	-0.0008	0.0067	-0.0015	44
0.0202	-0.0015	0.0082	-0.003	43.7
0.024	-0.0008	0.0127	0	43.7
0.0292	0.0007	0.0165	0.0015	43.5
0.03	0.0007	0.0112	0.0007	43.8
0.0247	0.0007	0.0037	0.0007	43.5
0.0142	-0.0008	-0.0046	0.0015	43.4
0.0067	-0.0015	-0.0098	-0.0008	43.5
0.0022	-0.0038	-0.0113	-0.003	43.3
0.0007	-0.0053	-0.0098	-0.0038	43.3
-0.0008	-0.0046	-0.0083	-0.0015	43.1
-0.0038	-0.0015	-0.006	-0.0008	43.3
-0.0075	0.0022	-0.0053	0	43.1
-0.0128	0.0015	-0.0053	-0.0008	43.3
-0.0158	0.0022	-0.0038	-0.0008	43.2
-0.0158	0.0022	0.0015	0.0007	43.2
-0.015	0.003	0.0082	0.0015	43.1
-0.0113	0.003	0.0097	0.0007	43
-0.0105	0.0015	0.006	-0.0008	43
-0.0068	-0.0008	-0.003	-0.0015	43
-0.0053	-0.0046	-0.0091	-0.0015	42.7
-0.0075	-0.0038	-0.012	0.0015	42.9
-0.0046	-0.0015	-0.0128	0.0022	42.5
0.003	-0.0015	-0.0105	0.0022	42.7
0.0097	-0.0038	-0.006	-0.0008	42.6
0.0127	-0.0046	-0.0015	-0.0008	42.7
0.0045	-0.0038	0.0052	0.0007	42.6
-0.0046	-0.003	0.0112	0.0007	42.6
-0.0068	-0.0015	0.0135	-0.0015	42.8
-0.0068	-0.0038	0.0142	-0.0038	42.6
-0.0038	-0.006	0.0127	-0.0053	42.5
0	-0.0053	0.012	-0.003	42.4
0.0015	-0.0053	0.0112	-0.0008	42.3
0.003	-0.0046	0.0075	0.0015	42.4
0.0052	-0.0015	0.0082	0.0045	42.2
0.0045	0.0022	0.009	0.0045	42.5
0.0015	0.0015	0.0082	0.0037	41.9
0.006	0.003	0.0052	0.0022	42.3
0.015	0.0045	0.003	0	42.1
0.018	0.0015	0.0015	-0.0015	42.2
0.0157	0.0022	-0.0015	-0.0008	42.2
0.0112	0.003	-0.003	0.0007	42
0.0045	0.0052	-0.0053	0.0015	42
-0.003	0.0067	-0.0046	0.0007	42
-0.0038	0.0015	-0.0023	0.0007	42
-0.0023	0.0015	-0.003	0.0007	41.9
-0.0008	0.0015	-0.0008	-0.0015	41.9
0.0067	0.0007	0.0007	-0.0046	41.8
0.0052	0.0007	0.0007	-0.0046	41.8
0.003	-0.0023	0.003	-0.003	41.8
0.003	-0.0015	0.003	-0.0038	41.6
0.0037	-0.0008	0.003	-0.003	41.7
0.0082	-0.0008	0	-0.0046	41.6
0.0082	0.0022	-0.0008	-0.0046	41.5
0.0105	0.0007	0.0052	-0.0038	41.5
0.012	-0.0015	0.0052	-0.003	41.4
0.0165	-0.003	0	-0.0015	41.6
0.0202	-0.003	-0.0046	-0.0008	41.4
0.0165	0	-0.0068	0.0015	41.4
0.012	0.0015	-0.0046	0.0022	41.4
0.0082	0	-0.0046	0.0007	41.3
0.0045	-0.0023	-0.0015	-0.0008	41.2
0.0007	-0.0015	0.0007	-0.0015	41.4
-0.0023	-0.0015	-0.0008	-0.0008	41.1
-0.0038	0.0007	0.003	-0.0008	41.1
-0.003	-0.0008	0.0045	-0.0008	41
0.0007	-0.0008	0.003	-0.0008	41
0.0015	0.0015	0.0022	-0.0008	41
-0.0015	-0.0008	0.0007	-0.0015	41.1
-0.0068	0	-0.0008	0	40.9
-0.0105	-0.0008	-0.0023	0.0007	41.1
-0.012	0	-0.0008	0.0015	40.8
-0.0105	0.0007	-0.0008	0.0007	40.8
-0.006	-0.0015	0	-0.0015	40.6
-0.0068	-0.003	0.0007	-0.0023	40.7
-0.0068	-0.0038	0.0007	-0.003	40.7
-0.0046	-0.0008	0.0022	-0.0023	40.7
-0.006	0.0037	0.0037	-0.0008	40.5
-0.0046	0.0045	0.006	0.0015	40.5
-0.0038	0.0052	0.003	0.0015	40.4
-0.0008	0.0022	-0.0008	0.0015	40.4
0.0045	0	-0.0053	-0.0008	40.2
0.0082	-0.0008	-0.0053	-0.0023	40.4
0.0097	-0.0008	-0.0023	-0.0015	40.3
0.012	-0.003	-0.003	-0.003	40.2
0.0105	-0.0038	-0.0046	-0.003	40.2
0.012	-0.0046	-0.0046	-0.0023	40.2
0.0127	-0.003	-0.0015	-0.0015	40.1
0.009	-0.0023	-0.0015	0	40.1
0.0045	-0.0008	0.003	0.0022	40.1
0.0007	0.0022	0.0052	0.0007	40
-0.006	0.003	0.0045	-0.0008	40
-0.0046	0.0007	0.0082	0	40
-0.0038	0.0015	0.0082	0.0007	39.9
-0.0053	0	0.0045	0.0007	39.8
-0.0046	-0.003	0.0037	0.0007	39.9
-0.0053	-0.0023	0.0007	0.0007	39.9
-0.006	-0.0008	0	0.0007	39.7
-0.003	-0.0008	-0.0008	-0.003	39.8
-0.003	-0.0015	-0.0015	-0.0046	39.6
0.0022	-0.003	-0.0008	-0.003	39.6
0.0142	-0.0046	-0.003	-0.0023	39.5
0.027	-0.0053	-0.0091	-0.0053	39.6
0.0352	-0.0053	-0.0091	-0.0068	39.4
0.0352	-0.006	-0.0091	-0.0053	39.5
0.0262	-0.0046	-0.0068	-0.0046	39.3
0.0105	-0.003	-0.0075	-0.0023	39.4
0.0067	-0.0023	-0.0068	0.0015	39.3
0.0045	-0.0015	-0.0015	0.0045	39.3
0.003	-0.0008	0.0015	0.0052	39.2
-0.0015	-0.0008	0.0045	0.0052	39.1
-0.0098	0.0045	0.003	0.0052	39.1
-0.0143	0.009	0.003	0.0082	39
-0.0225	0.0067	0	0.0075	39.1
-0.0218	0.003	-0.0015	0.0045	38.9
-0.0135	0.0007	0	0.003	39.1
-0.0083	0	-0.0008	-0.0015	38.7
-0.0015	-0.0015	0.0007	-0.003	39.1
-0.0008	-0.0046	-0.0008	-0.0015	38.8
-0.0046	-0.0038	0.003	-0.0015	38.9
-0.0023	-0.0008	0.0082	-0.0023	38.6
0.0015	0.003	0.0112	-0.0023	38.7
0.0105	0.0037	0.0112	-0.003	38.6
0.0157	0.0007	0.0082	-0.003	38.7
0.0127	-0.0008	0.0052	-0.003	38.6
0.0097	-0.0008	0.0022	-0.003	38.6
0.0022	0.0007	-0.0008	-0.003	38.5
-0.003	0.0007	-0.0046	-0.0046	38.3
-0.0023	-0.0008	-0.006	-0.003	38.5
0.0022	0.0045	-0.0068	-0.0008	38.2
0.0082	0.006	-0.0068	-0.0008	38.3
0.0082	-0.0008	-0.0068	-0.0023	38.2
-0.0008	-0.0038	-0.0091	-0.003	38.3
-0.0068	-0.003	-0.0083	-0.0015	38.1
-0.0113	-0.0015	-0.0046	0.0007	38.3
-0.0143	0.0037	0.0015	0.003	38.1
-0.0135	0.006	0.0015	0.003	38.3
-0.0105	0.0045	0	0.003	38.1
-0.0053	0.0015	0.003	0.0007	38.2
-0.0015	-0.0015	0.003	0	37.8
0	-0.0023	0.0015	-0.0008	37.9
0.0007	-0.003	0.0015	-0.0015	38
0.003	-0.0053	0.0015	-0.0008	37.7
0.0052	-0.0038	0.003	-0.0008	37.9
0.003	-0.0023	0.0015	-0.0015	37.7
-0.003	-0.0008	0.0037	-0.0015	37.9
-0.0068	-0.0008	0.0052	-0.003	37.5
-0.0083	-0.0023	0.0015	-0.0046	37.8
-0.003	-0.0023	0.0067	-0.0068	37.5
-0.0008	-0.003	0.0105	-0.0053	37.7
0.0022	-0.0023	0.0097	-0.003	37.5
0.0045	-0.003	0.0082	-0.0023	37.6
0.0097	-0.0046	-0.0015	-0.0008	37.3
0.018	-0.003	-0.0083	-0.0008	37.6
0.0202	-0.0023	-0.0098	-0.0008	37.1
0.024	0	-0.0098	0.0007	37.6
0.024	-0.0008	-0.0038	0.0015	37.2
0.024	-0.006	-0.003	0.0022	37.2
0.0225	-0.0053	-0.003	0.0007	37.3
0.0127	-0.0015	-0.0023	0.0022	37.2
0.0045	0	-0.003	0.0015	37.1
0.0015	0.0007	-0.0023	-0.0008	37
0.003	0	-0.0023	0.0007	37
-0.0008	-0.0015	0.0007	0	36.9
-0.0015	-0.0023	0.0015	-0.0008	36.9
0.0007	-0.0008	0.0037	-0.0008	36.9
-0.0008	0.0015	0.0045	-0.0023	37
0.0022	0.003	0.0045	-0.0008	36.8
0.0045	0.0052	0.0097	-0.0008	36.9
0.009	0.0045	0.015	-0.0008	36.8
0.0157	0.0037	0.0135	0	36.8
0.0172	0.0045	0.0105	-0.0008	36.6
0.0195	0.0045	0.0105	-0.0008	36.8
0.0202	0	0.0067	-0.003	36.6
0.0187	-0.0046	0.0045	-0.0046	36.5
0.0082	-0.0053	0.0007	-0.003	36.5
-0.0015	-0.0046	-0.003	-0.0008	36.4
-0.0068	-0.003	0	0.0015	36.4
-0.0091	-0.0008	-0.0008	0.003	36.5
-0.0015	-0.0015	-0.0008	0.003	36.3
0.006	-0.0053	-0.0023	0.0045	36.4
0.009	-0.0046	-0.0038	0.0015	36.2
0.012	-0.0053	-0.0038	0	36.2
0.0105	-0.006	-0.003	0.0007	36.2
0.0082	-0.0015	-0.003	0.0015	36.1
0.003	0	-0.0068	0.0022	36.1
-0.0053	0.003	-0.0053	0.003	35.9
-0.0083	0.0015	-0.0008	0.0015	36
-0.0105	-0.0008	0.003	-0.0008	36
-0.0128	0.003	0.0067	0	35.8
-0.0143	0.0052	0.009	-0.0008	35.9
-0.0165	0.0052	0.0052	-0.0008	35.9
-0.0181	0.0015	0.0022	-0.0038	35.7
-0.0143	0.0015	0.0015	-0.0068	35.9
-0.015	0.0045	0.0007	-0.0046	35.6
-0.015	0.0045	-0.0008	-0.0015	35.7
-0.012	0.003	-0.0008	-0.0008	35.5
-0.0091	0	0	0.0007	35.7
-0.0091	-0.0008	0.0022	0.0015	35.5
-0.0105	0.0015	0.0045	0.0015	35.5
-0.0128	0.0015	0.003	0.0007	35.6
-0.0128	-0.0015	0.0082	0	35.4
-0.0091	-0.0023	0.0135	-0.0008	35.3
-0.0015	-0.0038	0.0052	0	35.3
0.0037	-0.0053	-0.0053	0.0007	35.2
0.0067	-0.0053	-0.0143	-0.0008	35.2
0.0142	-0.0083	-0.0203	-0.003	35.3
0.0225	-0.0053	-0.0225	-0.0015	35.2
0.0202	-0.0046	-0.0195	-0.0008	35.1
0.0232	-0.0053	-0.0143	-0.0008	35.1
0.03	-0.0038	-0.0105	0.0037	35.1
0.03	-0.0023	-0.0068	0.003	35
0.0255	0.0015	0.0007	0.0015	35.1
0.0142	0.0045	0.0105	0.0022	34.8
0.0015	0.0052	0.015	0.0007	35
-0.0046	0.003	0.0127	0.0007	34.8
-0.0091	0.0007	0.012	-0.0008	35
-0.0068	-0.0008	0.0082	-0.0015	34.7
-0.0075	-0.0008	0.0015	-0.0015	34.9
-0.0083	0	-0.003	-0.003	34.6
-0.0015	-0.0015	-0.0105	-0.0038	34.6
-0.0015	-0.0023	-0.0188	-0.003	34.6
-0.0038	-0.0015	-0.021	-0.003	34.5
-0.003	-0.0023	-0.0181	-0.0038	34.5
-0.0038	-0.0015	-0.0135	-0.0038	34.3
-0.006	-0.0008	-0.0113	-0.003	34.5
-0.0053	-0.003	-0.0091	-0.003	34.2
-0.0015	-0.0053	-0.0068	-0.0023	34.4
0.0052	-0.0068	-0.0046	-0.003	34.2
0.012	-0.006	0.0007	-0.003	34.4
0.0157	0.0007	0.0082	-0.0008	34.2
0.0165	0.0075	0.0127	0.0007	34.2
0.021	0.0082	0.0157	0.0007	34.1
0.03	0.0052	0.0165	0.0015	34.2
0.0285	0	0.0112	-0.0015	34
0.0202	-0.0053	0.0097	-0.0015	34.1
0.0195	-0.0053	0.0082	0.0007	33.9
0.0195	0.0007	0.0082	0.0015	33.9
0.0142	0.0052	0.0105	0.0037	33.9
0.0067	0	0.0045	0.006	33.7
-0.0008	-0.0008	-0.0068	0.0052	33.9
-0.0165	0.0007	-0.0128	0.006	33.7
-0.033	-0.0023	-0.0038	0.0067	33.8
-0.0285	-0.0008	0.0067	0.006	33.7
-0.027	0.0015	0.012	0.0045	33.8
-0.027	0.0022	0.0165	0.0015	33.5
-0.0181	0.0007	0.018	-0.003	33.6
-0.0143	0.0007	0.0075	-0.0023	33.4
-0.0128	-0.0008	-0.0075	-0.0008	33.6
-0.015	0.0007	-0.0158	0.0007	33.3
-0.0165	0.0015	-0.0263	0.0007	33.5
-0.0105	0.0015	-0.027	-0.0008	33.2
0.0007	0.003	-0.0203	-0.0008	33.3
0.009	0	-0.0143	-0.0015	33.3
0.0052	-0.0023	-0.0068	-0.0015	33.3
0.003	0.0015	-0.003	0.0007	33.3
-0.0008	0.0045	0.0022	-0.0008	33.1
0.0007	0.0007	0.003	-0.0015	33.3
0.0067	-0.003	0.0052	-0.0015	33
0.0097	-0.0038	0.009	-0.003	33.2
0.0105	-0.0046	0.0082	-0.003	33.1
0.0052	-0.0046	0.009	-0.003	33
0	-0.0046	0.0052	-0.0015	32.9
-0.0053	-0.0038	-0.0008	-0.0008	33
0	-0.0015	-0.0015	-0.0015	32.8
0.009	-0.003	0	-0.0046	32.9
0.0202	-0.0068	0.003	-0.0053	32.7
0.033	-0.0068	0.0067	-0.0046	32.9
0.033	-0.0038	0.0105	-0.0023	32.8
0.0247	-0.0008	0.0097	-0.0008	32.7
0.0217	0.0022	0.0067	0.0007	32.8
0.0202	0.0045	0.003	0.0007	32.6
0.018	0.0052	0.0045	0.0007	32.5
0.021	0.003	0.006	-0.0008	32.5
0.0232	-0.0008	0.003	-0.0015	32.7
0.0135	0.0015	-0.003	0.0015	32.5
-0.003	0.006	-0.0091	0.0022	32.5
-0.0091	0.0067	-0.0068	0.0015	32.4
-0.0091	0.0052	-0.0083	0.0007	32.5
-0.0091	0.0015	-0.012	-0.0008	32.2
-0.0053	-0.0008	-0.0143	-0.0038	32.4
-0.0023	-0.0038	-0.0105	-0.0053	32.2
0.009	-0.0075	-0.0015	-0.006	32.4
0.0112	-0.0068	0.003	-0.003	32.2
0.0052	-0.0046	0.009	-0.0008	32.1
0.003	-0.0008	0.0157	0.0022	32.2
0.0007	0.0015	0.0202	0.003	32.1
0.0037	0.0045	0.0217	0.0015	32.1
0.0037	0.009	0.0225	0.0015	32.1
0.0045	0.0067	0.0112	-0.0015	31.9
0.003	0.0007	0.0045	-0.0038	31.9
0.0007	-0.0015	0.0105	-0.003	31.9
-0.0015	-0.0015	0.018	-0.003	31.9
-0.0008	-0.0008	0.0157	-0.0008	31.7
-0.0015	0.0022	0.006	-0.0008	31.8
-0.0068	0.0045	0.0052	0	31.6
-0.0128	0.003	-0.0091	0.0015	31.6
-0.0128	0.003	-0.0203	-0.0008	31.5
-0.0038	0.003	-0.0203	-0.0015	31.6
0.0052	0	-0.0256	-0.0023	31.5
0.003	-0.0015	-0.0195	-0.0008	31.5
-0.003	-0.0023	-0.0113	0.0015	31.4
-0.0068	-0.003	-0.0008	0.0037	31.6
-0.0038	-0.0038	0.0082	0.003	31.4
0.006	-0.003	0.0015	0.0015	31.4
0.0105	0.0007	-0.0083	0	31.4
0.0105	-0.0015	-0.0218	-0.0008	31.2
0.0052	-0.003	-0.0256	-0.0008	31.2
0.0037	-0.003	-0.0143	-0.0015	31.2
0.0045	-0.0023	0.006	0.0007	31.3
0.003	0	0.0255	-0.0008	31
0.003	0	0.0352	-0.0008	31
0.0015	0.0007	0.0382	0.0007	30.9
0	-0.003	0.0367	-0.0015	31
-0.003	-0.0053	0.0382	-0.003	31
-0.0015	-0.0046	0.0412	-0.0046	31
0.006	-0.0053	0.042	-0.0023	30.8
0.003	-0.0046	0.03	0.0015	30.9
-0.0068	-0.0038	0.015	0.0022	30.8
-0.006	-0.0008	0.0022	0.003	30.8
-0.0008	0.0007	-0.012	0.0037	30.8
0.0045	0.0007	-0.0203	0.003	30.7
0.012	-0.003	-0.0278	-0.0015	30.7
0.0195	-0.0083	-0.0338	-0.0053	30.5
0.027	-0.0053	-0.0353	-0.003	30.7
0.0105	0.0037	-0.0323	0.0007	30.4
-0.0068	0.006	-0.0278	0.0045	30.6
-0.0075	0.0045	-0.0263	0.0045	30.4
-0.0038	0.0082	-0.027	0.0015	30.5
0.009	0.0112	-0.03	0	30.2
0.0075	0.009	-0.0256	0	30.4
-0.0008	0.0067	-0.0135	0	30.2
-0.003	0.0045	-0.003	0.0015	30.4
-0.0046	0.0082	-0.003	0.0007	30.5
0.0007	0.0082	-0.0008	0	30.2
0.0052	0	0.0052	-0.0015	30.1
0.0052	-0.003	0.0105	-0.0015	30.2
0.012	-0.0068	0.0142	-0.003	30.2
0.0135	-0.0091	0.0187	-0.0023	29.9
0.0015	-0.0083	0.0255	0	30.1
-0.006	-0.0053	0.0247	0.0015	29.8
-0.0128	-0.003	0.027	0.0022	30
-0.0195	-0.0038	0.0292	0.003	29.8
-0.0105	-0.003	0.0232	0.0015	30
-0.003	-0.0023	0.0217	0.0007	29.8
-0.0008	-0.0015	0.0157	0.0015	29.9
-0.003	-0.0015	0.0045	0.0015	29.7
-0.0091	-0.0015	-0.0046	-0.0015	29.7
-0.0143	0.0007	-0.0113	0	29.7
-0.015	0.0007	-0.0128	-0.0008	29.6
-0.0038	-0.0023	-0.0091	-0.003	29.6
0.0082	-0.0046	-0.0075	-0.0046	29.4
0.021	-0.003	-0.0091	-0.0068	29.4
0.0217	0.0007	-0.0046	-0.0053	29.4
0.0127	0.0015	0.0045	-0.0015	29.3
0.0082	0.0007	-0.0008	0.0007	29.3
0.0007	0	-0.0165	0.0015	29.3
0.0015	-0.0023	-0.0263	0.0022	29.2
0.006	-0.0038	-0.0181	0.0015	29.2
0.003	-0.0046	-0.0113	0.0022	29.2
-0.0038	-0.0038	-0.0075	0.003	29.2
-0.0113	-0.003	-0.0008	0.0022	29.2
-0.0158	-0.0023	0.003	0.0015	29.1
-0.0158	-0.0023	0.0082	-0.0008	29.1
-0.0135	-0.003	0.012	-0.0015	29.1
-0.0091	-0.0046	0.009	-0.003	29
-0.0008	-0.0083	-0.0046	-0.006	28.9
0.009	-0.0075	-0.0083	-0.006	29
0.0165	-0.0046	-0.0068	-0.0068	29
0.0232	-0.0015	-0.0091	-0.0046	28.8
0.027	-0.0046	-0.0091	-0.003	28.8
0.0187	-0.0046	-0.003	0.0007	28.8
0.009	-0.0046	0.0082	0.0015	28.8
0.0075	-0.0046	0.0105	-0.0008	28.7
0.0142	-0.0038	0.0045	0.0007	28.8
0.0157	-0.0015	0.0082	0.0045	28.7
0.0097	0.0045	0.0172	0.0045	28.8
0.0045	0.0052	0.0135	0.003	28.5
-0.0008	0.0082	0.0105	0.003	28.6
0.0007	0.0082	0.0067	0.003	28.6
0.003	0.003	0.0007	0.0015	28.4
-0.0015	0.0022	0	0.0007	28.5
-0.0053	0.003	0.0007	0.0007	28.6
-0.0008	0.0022	0.0045	-0.0015	28.5
0.0045	0.003	0.012	-0.0015	28.3
-0.0015	0.0037	0.0105	-0.0015	28.4
-0.0038	0.003	0.0045	-0.003	28.1
-0.0053	0	-0.006	-0.0008	28.3
-0.0046	-0.0023	-0.0278	0.0015	28
-0.0038	-0.0038	-0.039	-0.0008	28.3
0	-0.0068	-0.042	-0.003	27.9
0.0127	-0.0091	-0.0405	-0.006	28.3
0.0292	-0.0105	-0.027	-0.0083	27.9
0.0307	-0.0091	-0.0105	-0.0046	28.2
0.0105	-0.003	0.006	0.0007	27.9
-0.0091	0.0015	0.0135	0.003	28.1
-0.0135	0.0052	0.0225	0.0015	28
-0.0053	0.0052	0.027	-0.0008	27.9
0.0082	0.0052	0.0232	-0.0015	27.9
0.0127	0.006	0.021	0	27.7
0.0105	0.0052	0.0157	0	27.9
0.0015	0.0052	0.0045	0.0007	27.6
-0.003	0.0015	-0.0053	-0.0008	27.8
-0.0046	-0.0015	-0.0046	-0.003	27.5
-0.006	-0.003	-0.003	-0.0053	27.8
-0.0038	-0.006	0.0045	-0.0068	27.5
-0.0015	-0.0083	0.0217	-0.0053	27.6
0.0007	-0.003	0.0345	-0.003	27.4
-0.0023	0.0022	0.0307	-0.0008	27.7
-0.0083	0.0045	0.0202	0	27.4
-0.0098	0.003	0.012	-0.0008	27.6
-0.0068	0.006	0.0015	0.0007	27.3
-0.0068	0.006	-0.012	0.0015	27.2
-0.003	-0.0008	-0.024	0.003	27.2
0.0015	-0.003	-0.0181	0.003	27.2
-0.0015	-0.003	-0.0105	0.003	27.2
-0.003	-0.0053	-0.003	0.0015	27.3
0.0015	-0.0075	-0.0105	-0.0023	27.2
0.0067	-0.0091	-0.048	-0.0023	27.1
0.0037	-0.0083	-0.0706	0	27.1
0.0052	-0.0075	-0.0923	-0.0008	27.1
0.0135	-0.0038	-0.09	-0.0015	27
0.0202	-0.003	-0.0518	-0.0015	27
0.0217	-0.0008	-0.0083	-0.0015	27
0.0142	0.0082	0.0382	0.003	27
0.003	0.015	0.0637	0.0052	27
-0.0053	0.0127	0.078	0.0045	26.8
-0.0053	0.0082	0.0817	0.0022	27
-0.0008	0.0127	0.0772	0.0015	26.9
0.003	0.0112	0.0675	0.0015	26.7
0.0082	0.0022	0.0442	-0.0008	26.9
0.012	-0.0015	0.0202	-0.003	26.6
0.0195	-0.0053	0.0022	-0.0068	26.8
0.0247	-0.0091	-0.003	-0.0068	26.6
0.0187	-0.0091	-0.0053	-0.0053	26.7
0.0075	-0.0105	-0.0083	-0.0053	26.6
-0.0038	-0.0068	-0.0091	-0.0023	26.5
-0.0105	-0.0008	-0.0068	0.0015	26.7
-0.012	0.0037	-0.0038	0.003	26.6
-0.0105	0.0045	-0.0053	0.0007	26.5
-0.0053	0.0007	-0.0008	0.0007	26.5
0.0022	0	0.0052	-0.0023	26.5
0.0045	0	0.0007	-0.0046	26.3
0.003	0.0022	-0.0128	-0.0038	26.5
-0.0008	0.0015	-0.0315	-0.0046	26.2
0.0045	-0.0046	-0.0361	-0.0053	26.3
0.0195	-0.0068	-0.0308	-0.0068	26.1
0.0142	-0.0083	-0.0188	-0.0068	26.1
0.0052	-0.0068	-0.0068	-0.0015	26.3
0.003	-0.0053	-0.0023	-0.0008	26.1
0.0052	-0.0091	0.0007	-0.003	26.3
0.015	-0.0128	0.009	-0.003	25.9
0.0157	-0.0105	0.0292	-0.0008	26.1
0.0075	-0.0053	0.048	0.0015	26.1
0.0015	0.0007	0.0502	0.0022	26
-0.0046	0.003	0.0382	0.0045	26
-0.0113	0.0052	0.0217	0.0045	25.8
-0.0128	0.0052	-0.0008	0.0022	26
-0.0135	0.0052	-0.0105	0.0045	25.7
-0.0143	0.0045	-0.0046	0.0022	25.9
-0.0046	-0.0008	-0.0075	0.0015	25.7
0.0082	-0.0015	-0.0158	0.003	25.8
0.0142	-0.0008	-0.0195	0.003	25.8
0.0112	0.0007	-0.0195	0.0045	25.7
-0.0015	0.0037	-0.0181	0.0015	25.6
-0.015	0.0045	-0.0158	0.0007	25.6
-0.0143	0.0015	-0.0128	-0.0015	25.5
-0.0091	0.0007	-0.0083	-0.003	25.8
-0.012	0.0022	-0.0015	-0.0023	25.6
-0.0165	0.0045	-0.0046	-0.0046	25.7
-0.0188	0.0037	-0.0188	-0.003	25.3
-0.0128	0.0015	-0.027	-0.0038	25.6
-0.0008	-0.0008	-0.0308	-0.0046	25.5
0.018	-0.0038	-0.0405	-0.0053	25.5
0.0367	-0.0091	-0.0405	-0.0068	25.4
0.0427	-0.012	-0.0256	-0.0053	25.2
0.0382	-0.0083	-0.0105	-0.0015	25.5
0.0202	-0.0023	-0.0046	0.003	25.4
-0.0053	0.0015	0	0.0067	25.3
-0.0143	-0.0046	0.0067	0.0037	25.3
-0.0046	-0.0091	0.0105	0.0015	25.3
0.0022	-0.003	0.0232	0.003	25.3
0.0015	0.0015	0.0465	0.0045	25.1
-0.0015	0.0045	0.0622	0.003	25.3
-0.0083	0.0067	0.0772	0.003	25
-0.012	0.0075	0.078	0.0045	25.3
-0.012	0.006	0.0555	0.003	25
-0.0091	0.0007	0.0315	0.0015	25.2
-0.0053	-0.003	0.0082	0.0007	25.1
-0.0083	-0.0008	-0.0091	-0.0008	24.8
-0.0181	0.003	-0.0173	0.0007	24.9
-0.0225	0.0052	-0.0233	0.0007	24.9
-0.027	0.0045	-0.0203	-0.0008	25
-0.027	-0.0015	-0.0158	-0.003	24.8
-0.021	-0.003	-0.012	-0.0053	24.8
-0.0165	0.0007	-0.003	-0.0023	24.8
-0.0075	0.0015	0.0157	-0.0046	24.7
0.009	-0.0075	0.0427	-0.0091	24.8
0.0202	-0.012	0.0502	-0.0083	24.7
0.027	-0.0105	0.0382	-0.0068	24.8
0.0382	-0.0105	0.012	-0.0083	24.7
0.0435	-0.012	-0.0233	-0.0068	24.7
0.0457	-0.0098	-0.0638	-0.0053	24.7
0.0457	-0.0008	-0.0938	-0.0008	24.4
0.0307	0.0157	-0.09	0.0067	24.7
0.0157	0.0217	-0.0818	0.009	24.3
0.0007	0.0165	-0.075	0.0082	24.7
-0.0128	0.0105	-0.06	0.0052	24.4
-0.0135	0.006	-0.0443	0.003	24.5
-0.006	0.0022	-0.027	0.0015	24.3
0.0037	-0.0015	-0.0128	0.0015	24.5
0.0045	-0.0008	0.0075	0.0037	24.4
0.0045	0.0075	0.027	0.003	24.4
0.0067	0.0135	0.0405	0.003	24.5
0.006	0.0105	0.048	0.0007	24.4
0.0082	0.0007	0.0495	-0.0008	24.3
0.0097	-0.003	0.039	-0.0015	24.4
0.009	-0.0038	0.0217	-0.0046	24.2
0.003	-0.0008	0.009	-0.0023	24.4
-0.0008	0.0007	0.0007	-0.0015	24
-0.0015	-0.0023	-0.0046	-0.003	24.3
-0.0015	-0.0046	-0.0008	-0.0008	24.2
-0.0046	-0.0075	0.0022	-0.003	24.2
-0.0008	-0.0113	0	-0.0068	24.2
0.006	-0.0135	-0.0046	-0.0075	24.2
0.0067	-0.0105	-0.0128	-0.0068	23.9
0.0067	-0.0091	-0.0165	-0.0068	24.2
0.0142	-0.0091	-0.0068	-0.0091	24
0.0232	-0.0068	0.012	-0.0068	24
0.0195	-0.0038	0.03	-0.0038	23.8
0.0105	0	0.0495	-0.003	24
0.0075	0.0007	0.0667	-0.0008	23.8
-0.003	-0.0008	0.0645	0.0007	23.8
-0.0091	-0.0008	0.0465	0.0007	23.8
-0.0015	-0.0023	0.0232	-0.003	23.9
0.0067	-0.0046	0.0015	-0.003	23.8
0.0022	-0.0015	-0.003	0.0007	23.8
-0.012	0.0015	-0.0015	0.0022	23.8
-0.0225	0.0045	0.0022	0.0052	23.6
-0.0315	0.006	0.003	0.0052	23.8
-0.0383	0.003	-0.0083	-0.0008	23.7
-0.0256	-0.0023	-0.021	-0.003	23.6
-0.003	-0.0068	-0.0218	-0.003	23.4
0.0075	-0.006	-0.0218	-0.003	23.6
-0.0023	-0.0015	-0.0165	-0.0015	23.6
-0.0105	0.0015	-0.006	-0.003	23.4
-0.0038	0	-0.0008	-0.0015	23.7
0.0015	0	0.0082	0.0007	23.4
0.003	0.0022	0.0307	0.0037	23.5
0.0067	0.003	0.0427	0.0015	23.4
0.0037	0.0022	0.033	-0.0015	23.4
0.003	-0.0015	0.0195	-0.003	23.4
0.0105	-0.006	-0.0068	-0.0053	23.3
0.0195	-0.003	-0.042	-0.0015	23.3
0.0202	0.0015	-0.0706	0.003	23.1
0.0105	0.0022	-0.0615	0.0045	23.4
-0.0038	-0.0008	-0.0278	0.006	23.2
-0.0068	-0.003	-0.0158	0.003	23.1
-0.0038	-0.003	-0.0015	0.0015	23.2
-0.0008	-0.003	0.0112	0.0007	23
0.0082	0	0.0082	-0.0008	23.3
0.0217	0.0015	0.0045	0	23
0.03	-0.0015	0.0052	-0.003	23.2
0.027	-0.0046	0.0082	-0.0023	23.1
0.0165	-0.0008	0.0067	0.0022	23
-0.0105	0.0142	0.0142	0.0082	23
-0.0308	0.0202	0.0157	0.006	23
-0.0263	0.0082	0.0082	-0.003	23.1
-0.021	-0.0015	0.003	-0.0068	22.9
-0.0181	-0.0046	0.0105	-0.0068	23
-0.0105	-0.006	0.0225	-0.0068	22.8
0	-0.0053	0.012	-0.0053	22.9
0.003	-0.0068	-0.003	-0.0068	22.8
0.0142	-0.0091	-0.021	-0.0091	22.7
0.033	-0.0158	-0.048	-0.0105	22.7
0.048	-0.0181	-0.0346	-0.0083	22.7
0.054	-0.012	0.018	-0.0046	22.9
0.0352	-0.0015	0.0405	0.0045	22.8
-0.0038	0.0105	0.0075	0.0135	22.7
-0.0353	0.0105	-0.039	0.0157	22.8
-0.0195	0.0015	-0.0653	0.0105	22.4
0.012	-0.0008	-0.0773	0.0015	22.5
0.0285	0.0045	-0.066	-0.0023	22.5
0.0382	0.0075	-0.0346	-0.0015	22.5
0.012	0.0075	-0.0015	0.0037	22.5
-0.0195	0.0052	0.0225	0.0067	22.5
-0.0383	0.0052	0.0375	0.003	22.5
-0.045	0.0067	0.045	0.0015	22.4
-0.033	0.0067	0.063	-0.0046	22.4
-0.012	0.0045	0.105	-0.0068	22.4
0.0052	-0.0008	0.1245	-0.0053	22.5
0.0127	-0.0046	0.1185	-0.0068	22.3
0.0202	-0.0075	0.0915	-0.0068	22.3
0.033	-0.0128	0.012	-0.0091	22.4
0.0382	-0.0128	-0.0683	-0.0075	22.1
0.033	-0.0098	-0.129	-0.003	22.3
0.0307	-0.0098	-0.1643	-0.0046	22.1
0.0315	-0.0083	-0.1568	-0.0008	22.3
0.0367	-0.0008	-0.147	0.0045	22.2
0.0232	0.0067	-0.1118	0.0105	22.2
-0.006	0.0097	-0.0533	0.0157	22
-0.0233	0.0052	-0.0023	0.0127	22.1
-0.027	0	0.0427	0.0105	22.2
-0.0293	0.003	0.0607	0.0105	22
-0.0338	0.006	0.0495	0.0052	22
-0.0323	0.003	0.0345	0	22
-0.0293	0.003	0.0457	-0.0015	21.9
-0.0256	-0.0008	0.0682	-0.0053	21.8
-0.0181	-0.0008	0.0817	-0.0068	21.9
-0.0105	0.0015	0.0847	-0.0091	21.9
-0.0083	-0.0008	0.0727	-0.0105	21.9
-0.0113	-0.0015	0.0495	-0.0098	21.9
-0.0135	-0.0015	0.0202	-0.0053	21.7
-0.0203	0	0.003	-0.0046	21.8
-0.0233	0.0007	-0.0105	-0.0053	21.8
-0.0165	-0.0015	-0.021	-0.0075	21.6
-0.0128	-0.0053	-0.0218	-0.0091	21.9
0.0007	-0.0053	-0.0173	-0.0068	21.5
0.0202	-0.0053	-0.012	-0.0068	21.6
0.033	-0.0083	-0.0181	-0.0053	21.4
0.0457	-0.0105	-0.033	-0.006	21.7
0.069	-0.012	-0.033	-0.0053	21.5
0.072	-0.0075	-0.012	0	21.4
0.045	-0.003	-0.0023	0.0007	21.4
0.0292	-0.0015	0	0.0022	21.4
0.0172	0.0007	0.0037	0.0022	21.6
0.0165	0.0037	0.003	0.0022	21.4
0.0202	0.0067	0.009	0.0045	21.4
0.006	0.006	0.0105	0.0045	21.4
-0.0083	0.003	0.012	0.0067	21.3
-0.0218	0.0067	0.0142	0.0105	21.5
-0.0233	0.0075	0.0127	0.009	21.1
-0.012	0.0045	0.0112	0.003	21.3
-0.0105	0.0052	0.0105	0.0007	21.1
-0.015	0.003	0.0075	-0.003	21.4
-0.0135	0.003	0.0007	-0.0053	21.1
-0.0098	0.0015	0.0045	-0.0053	21.1
-0.0075	0.0052	0.027	-0.0053	21
-0.0075	0.009	0.0487	-0.0053	21
-0.0143	0.006	0.0547	-0.0046	21.1
-0.0091	-0.0015	0.048	-0.0068	21
0.006	-0.0105	0.0412	-0.0091	21
0.018	-0.0128	0.0045	-0.006	20.9
0.0217	-0.0113	-0.0638	-0.003	21
0.0195	-0.0091	-0.1125	-0.0015	20.9
0.0157	-0.0135	-0.1463	-0.0015	20.7
0.0105	-0.0135	-0.1388	0	20.9
0.0172	-0.0083	-0.0893	0	20.7
0.033	0	-0.0428	0.0015	20.8
0.018	0.0142	0.009	0.0067	20.7
-0.0203	0.0165	0.06	0.0082	20.7
-0.048	0.0105	0.0817	0.0105	20.7
-0.0353	0.0105	0.084	0.0082	20.7
-0.0083	0.0075	0.0855	0.0045	20.7
0.0015	0.0015	0.0502	0.0037	20.7
-0.0158	0.0022	0.018	0.0022	20.6
-0.0346	-0.0008	0.012	0.0022	20.7
-0.0353	0	0.0007	0.0007	20.3
-0.0383	0.003	-0.012	-0.0008	20.6
-0.039	0.0022	-0.0278	0	20.3
-0.0375	0.0015	-0.042	-0.0046	20.4
-0.0315	0.0007	-0.0593	-0.0068	20.3
-0.0181	0.0015	-0.0458	-0.0091	20.4
-0.0023	-0.0038	0.0082	-0.0105	20.5
0.0082	-0.0075	0.0352	-0.0083	20.3
0.0105	-0.0015	0.0255	-0.0053	20.4
0.0142	-0.0008	-0.0113	-0.006	20.2
0.027	-0.0075	-0.039	-0.0053	20.3
0.0532	-0.0105	-0.0458	-0.0015	20.2
0.0712	-0.0128	-0.06	0.0022	20.1
0.0577	-0.0068	-0.0593	0.0142	20.2
0.009	0.0105	-0.0278	0.0232	20.2
-0.033	0.0082	0.0165	0.0195	20.2
-0.0368	-0.0046	0.0442	0.006	19.9
-0.0083	-0.012	0.033	-0.003	20.3
0.024	-0.0098	0.0225	-0.0038	20
0.0427	-0.0038	0.021	-0.003	20.2
0.048	-0.0015	0.0157	-0.0008	20
0.0345	-0.0068	0.0195	-0.0015	20.1
0.0105	-0.0068	0.0292	-0.0015	20
-0.0023	-0.0023	0.0352	-0.0008	19.8
-0.0008	-0.0008	0.0405	-0.0008	20
-0.0075	0.003	0.045	0.0007	19.8
-0.0128	0.003	0.0472	-0.0008	19.9
-0.0091	0.003	0.042	-0.0053	19.8
-0.0098	0.0022	0.0457	-0.0053	19.8
-0.0128	0.0022	0.0517	-0.0053	19.8
-0.0113	0.0015	0.0367	-0.0083	19.7
-0.0083	0.0007	0.0202	-0.0075	19.8
-0.0046	-0.0008	0.0067	-0.0083	19.6
-0.0015	-0.0008	0.0067	-0.0098	19.8
0.0015	0.0007	0.0465	-0.0091	19.6
0.006	0.0015	0.0937	-0.006	19.6
0.0015	0.0037	0.0802	-0.0038	19.7
0.0052	0	-0.0046	-0.0046	19.4
0.0165	-0.0015	-0.0953	-0.0046	19.6
0.0285	-0.0053	-0.147	-0.0068	19.4
0.033	-0.0105	-0.1455	-0.0068	19.6
0.042	-0.012	-0.1238	-0.0046	19.3
0.0502	-0.0091	-0.1133	0.0007	19.4
0.0375	0	-0.09	0.0075	19.3
0.033	0	-0.0765	0.0082	19.3
0.042	-0.0053	-0.0668	0.0052	19.2
0.033	-0.0053	-0.0548	0.0045	19.3
-0.0015	0.009	-0.0353	0.0112	19.4
-0.0338	0.0217	0.0052	0.0165	19.3
-0.0428	0.0172	0.0382	0.0097	19.2
-0.0361	0.0112	0.0607	0.0037	19.4
-0.0278	0.0082	0.0765	0.0022	19.2
-0.0248	0.0007	0.0765	-0.0046	19.3
-0.0143	-0.0053	0.0517	-0.0068	19
0.0007	-0.0083	0.0187	-0.0068	19.3
0.0075	-0.0105	-0.0008	-0.0068	19
0.0135	-0.012	0.012	-0.0105	19.3
0.0315	-0.0165	0.024	-0.015	19.1
0.0465	-0.0181	0.0097	-0.0105	19.3
0.045	-0.0068	0.0052	-0.0038	19
0.0315	0.0052	0.0195	0.0045	19
0.0082	0.0142	0.0397	0.0112	19
-0.015	0.0202	0.0232	0.0127	19
-0.021	0.0097	0.009	0.012	18.9
-0.0158	-0.0023	0.0195	0.0112	19
-0.0105	0.0022	0.018	0.009	19
-0.0046	0.0015	0.0187	0.0045	19
0.0037	0.0007	0.0052	-0.0008	18.9
0.0052	-0.0008	-0.0181	-0.0053	18.8
-0.003	-0.0038	-0.039	-0.0068	18.7
-0.0046	0.0015	-0.0503	-0.0008	18.9
-0.0046	0.003	-0.0383	0.0007	18.8
-0.0143	0.003	-0.0173	0	18.7
-0.024	0.0022	0.0127	0.0007	18.9
-0.033	0.003	0.0607	-0.0015	18.6
-0.042	0.0007	0.1087	-0.0046	18.9
-0.0443	0.0007	0.1215	-0.0046	18.7
-0.0353	0.0037	0.0862	-0.006	18.7
-0.0315	0.0022	0.0127	-0.0068	18.8
-0.0346	0.0045	-0.045	-0.0046	18.5
-0.0256	0.0045	-0.0893	-0.0068	18.7
-0.0165	-0.003	-0.159	-0.0105	18.4
0.0165	-0.0105	-0.1748	-0.0135	18.7
0.0682	-0.0203	-0.1313	-0.012	18.4
0.0997	-0.0165	-0.0856	-0.0046	18.5
0.0862	-0.012	-0.0368	0.0052	18.6
0.042	-0.0165	0.0052	0.0082	18.4
0.0322	-0.0128	0.036	0.0097	18.7
0.0375	-0.0075	0.0502	0.0127	18.4
0.0315	0.003	0.0682	0.015	18.8
0.0217	0.012	0.075	0.0195	18.5
-0.0091	0.0112	0.0825	0.0217	18.6
-0.0353	0.0157	0.072	0.015	18.4
-0.027	0.012	0.027	0.006	18.4
-0.0098	0.009	0.0255	0	18.4
-0.0083	0.0045	0.03	-0.0046	18.3
-0.0038	-0.0038	0.0067	-0.0091	18.4
-0.0091	-0.0038	0.0022	-0.0068	18.4
-0.0083	-0.0038	0.0112	-0.0053	18.4
-0.003	-0.0015	0.0225	-0.006	18.4
-0.0015	0.0007	0.0232	-0.0068	18.4
0.0015	0.0052	0.0142	-0.006	18.4
-0.003	0.0097	0.012	-0.0015	18.2
-0.0091	0.0075	0.0165	-0.0023	18.3
-0.0165	0.0037	0.0067	-0.003	18.1
-0.0143	-0.0015	-0.0091	-0.0083	18.3
-0.0053	-0.0038	-0.0188	-0.0113	18.1
0	-0.003	-0.024	-0.0098	18.1
0.0075	-0.0023	-0.0256	-0.0091	18.1
0.0015	-0.0008	-0.0233	-0.0038	18
-0.0105	0	-0.0188	-0.0038	18
-0.0181	-0.0008	-0.0165	-0.0015	17.9
-0.0195	-0.0015	-0.0181	0.0007	17.9
-0.0158	-0.0015	-0.0105	-0.0023	18
-0.0068	-0.0023	-0.0053	-0.0038	18
0.0075	-0.0053	-0.0091	-0.0046	18.1
0.012	-0.0046	-0.0135	-0.003	17.7
0.0045	0.0037	-0.0203	0	18
-0.012	0.0127	-0.0203	0.003	17.8
-0.0308	0.0105	-0.0083	0	18
-0.0233	0.0007	-0.0008	-0.006	17.9
-0.0046	-0.0015	0.0045	-0.0053	18
0.0105	-0.0046	0.0015	-0.0083	18
0.0217	-0.0091	-0.0075	-0.0083	17.6
0.027	-0.012	-0.0068	-0.0046	17.9
0.0277	-0.0113	-0.0015	-0.0015	17.9
0.0292	-0.0023	0.003	0.0022	17.7
0.0405	0.0007	0.0465	0.003	17.8
0.0405	-0.0075	0.126	0.0015	17.5
0.0105	-0.0091	0.1357	0.003	17.9
-0.0091	0	0.069	0.0045	17.6
-0.0023	0.018	-0.0188	0.0052	17.8
0.003	0.0217	-0.0856	0.0075	17.5
0.0082	0.0052	-0.117	0.0082	17.8
0.009	0.0022	-0.1373	0.0105	17.7
0.0007	0.0015	-0.1178	0.0105	17.5
-0.0068	-0.0023	-0.0968	0.0052	17.7
-0.012	-0.0023	-0.0818	0	17.6
-0.0165	-0.003	-0.0525	-0.0008	17.6
-0.0308	0.0015	-0.0083	0.0015	17.4
-0.0346	0.0015	0.057	0.003	17.5
-0.0218	-0.0015	0.0742	-0.0015	17.5
0.0007	-0.0068	0.06	-0.0075	17.5
0.0255	-0.0098	0.054	-0.0083	17.5
0.03	-0.0113	0.045	-0.0038	17.3
0.018	-0.0083	0.048	0.0007	17.5
0.0112	-0.0038	0.0547	0	17.5
0.015	-0.0068	0.0427	-0.0015	17.6
0.0105	-0.0083	0.0127	0.0015	17.5
-0.0105	-0.0046	-0.0278	0.003	17.4
-0.0315	0.003	-0.0518	0.0037	17.4
-0.0383	0.006	-0.057	0.0015	17.2
-0.0346	0.0067	-0.0638	-0.0008	17.4
-0.0361	0.0082	-0.0488	-0.003	17.3
-0.0308	0.003	-0.0046	-0.0068	17.4
-0.0188	-0.003	0.0487	-0.006	17.2
-0.0091	0.0007	0.0892	-0.0015	17.4
0.0037	0.0015	0.099	-0.003	17.4
0.0142	-0.0046	0.1087	-0.0083	17.2
0.0367	-0.0091	0.0787	-0.012	17.2
0.066	-0.0135	0.024	-0.0113	17.3
0.063	-0.0038	-0.0023	-0.0046	17.3
0.0435	0.009	-0.0323	0.0015	17.2
0.0382	0.009	-0.057	0.0022	17
0.0382	0.0067	-0.0675	0.006	17.3
0.0322	0.0052	-0.0488	0.0097	16.9
0.0142	0.0037	-0.0233	0.0127	17.2
-0.012	0.0052	-0.012	0.0105	16.9
-0.0218	0.0022	-0.0068	0.003	17.2
-0.024	-0.0015	-0.0046	0.0007	17
-0.0158	-0.0008	-0.0038	-0.0023	17.2
0.003	0.0007	-0.0203	-0.0015	17
0.0105	-0.0008	-0.0256	0.0007	17.1
0.0052	0	-0.0195	0	17
-0.0015	0.0015	-0.0181	-0.0008	17
0.0105	-0.0008	-0.0046	-0.003	17.1
0.0157	-0.003	0.0232	-0.003	17
0.003	-0.0091	0.0442	-0.003	17
-0.0015	-0.0113	0.0345	-0.0015	17
0.0075	-0.0091	0.0127	-0.0046	16.9
0.0105	-0.0128	-0.0143	-0.0075	17
0.0157	-0.0068	-0.0165	-0.003	17
0.027	0.0007	-0.0008	-0.0023	17
0.0142	0.0007	0.0037	0.0007	17
-0.0015	0	-0.012	0.003	17
0.003	-0.0023	-0.0293	-0.0008	17
0.009	-0.0015	-0.0053	-0.0015	17
0.0195	0.003	0.024	0.003	17
0.0225	0.003	0.048	0.0045	16.9
0.003	0.003	0.0465	0.0007	17
-0.0046	0.003	0.0315	-0.0008	17
-0.0143	0.0045	0.0225	-0.0008	16.7
-0.0278	0.0015	0.0015	-0.003	17
-0.0278	0.0007	0.0232	-0.003	16.7
-0.0315	0.0075	0.0615	-0.0015	17
-0.0293	0.0112	0.0532	-0.0015	16.8
-0.0218	0.0007	0.0247	-0.0046	16.8
-0.0083	-0.003	-0.003	-0.006	16.6
0.0007	0.0037	-0.0338	-0.0053	16.6
0.0045	0.0052	-0.0383	-0.0053	16.7
0.006	0.0007	-0.0473	-0.0023	16.7
-0.0068	-0.0038	-0.0495	-0.0038	16.8
-0.006	-0.0068	-0.0256	-0.006	16.6
0.009	-0.0046	-0.0195	-0.0038	16.9
0.0202	0.003	-0.0023	0.0015	16.7
0.0135	0.0052	-0.012	0.0037	16.7
-0.0083	-0.003	-0.0383	0.0015	16.6
-0.006	-0.0053	-0.0218	0.0007	16.6
0.0142	-0.0046	-0.0015	-0.0015	16.7
0.027	-0.0068	0.0075	0.0007	16.4
0.0142	-0.0046	0.0052	0.003	16.6
-0.0158	-0.0068	0.006	-0.0008	16.5
-0.0038	-0.0083	0.0045	-0.006	16.6
0.0307	0.0015	-0.0165	-0.0091	16.5
0.0487	-0.0008	-0.039	-0.0053	16.5
0.033	-0.0098	-0.0465	0.0015	16.6
-0.0015	0.0015	-0.0383	0.0097	16.4
-0.0181	0.0022	-0.0181	0.0082	16.6
-0.0195	0.0015	0.018	0.0037	16.5
-0.0053	0.006	0.0517	0	16.5
0.0082	-0.0015	0.0487	-0.0038	16.4
-0.0046	0.0007	0.027	0.0052	16.5
-0.024	0.0045	0.0075	0.0082	16.4
-0.0293	0.0067	-0.003	0.0015	16.6
-0.0346	0.0052	0.015	-0.003	16.6
-0.0375	0.0015	0.0622	-0.0068	16.4
-0.0308	0.0045	0.0945	-0.006	16.4
-0.0135	0.003	0.0772	-0.003	16.6
-0.0008	0.009	0.012	0.0015	16.4
-0.0015	0.0067	-0.0533	-0.0008	16.6
0.0112	-0.0046	-0.063	-0.0068	16.4
0.0382	-0.0128	-0.0503	-0.0091	16.5
0.0585	-0.0203	-0.0525	-0.006	16.3
0.0592	-0.0165	-0.0368	-0.0023	16.4
0.042	-0.0128	-0.0353	0	16.3
0.0037	-0.0008	-0.0668	0.0052	16.4
-0.03	0.009	-0.075	0.006	16.4
-0.0046	0.0007	-0.0218	0.0015	16.4
0.0232	-0.0038	0.0195	-0.0015	16.4
0.0292	0.0007	-0.012	-0.0023	16.5
0.0412	0.003	-0.0128	-0.0015	16.4
0.0367	-0.0023	0.003	0.0007	16.4
0.0352	-0.003	-0.0113	0.0015	16.2
0.0367	-0.0023	-0.0075	0.0015	16.4
0.0187	0.003	0.0105	0.003	16.2
-0.0046	0.0052	0.0495	0.0015	16.6
-0.012	0.0007	0.0705	0.0007	16.3
-0.0225	-0.0008	0.0757	0.0037	16.4
-0.0315	0	0.093	0.0045	16.3
-0.0278	0.0015	0.093	0.0015	16.2
-0.0278	-0.0015	0.0667	-0.003	16.5
-0.024	-0.0046	0.0307	-0.0046	16.2
-0.0188	-0.0038	-0.0008	-0.0046	16.2
-0.0128	-0.003	-0.0308	-0.0068	16.2
-0.0105	0.003	-0.0495	-0.0053	16.2
-0.0105	0.0105	-0.06	-0.0046	16.3
-0.0091	0.0082	-0.0465	-0.0068	16.2
-0.0105	-0.0008	-0.0128	-0.0083	16.3
-0.0173	-0.003	0	-0.0068	16.2
-0.0181	-0.003	0.0045	-0.0046	16.3
-0.0008	-0.0023	0.0007	-0.006	16.2
0.0165	0.0007	-0.0105	-0.0053	16.3
0.0255	-0.0046	-0.012	-0.0046	16.2
0.0232	-0.0075	0	0.0007	16.1
0.012	-0.0075	0.0082	0.0045	16.3
0	-0.0075	0.0292	0.0052	16.1
-0.0091	-0.0053	0.0382	0.0045	16.2
-0.0068	0.003	0.0172	0.0052	16
0.003	0.0097	0.012	0.006	16.2
0.0015	0.0067	0.0015	0.0015	16.2
0.0007	0.0015	-0.0083	0.0007	15.9
0.0067	-0.0053	-0.0098	-0.0008	16.1
0.012	-0.0105	-0.021	0	15.9
0.015	-0.0075	-0.0375	-0.0008	16.2
0.0195	-0.0038	-0.0511	-0.003	16
0.0157	-0.003	-0.042	0.0022	16.2
-0.0068	0.0075	-0.027	0.0067	16
-0.0346	0.0157	-0.0098	0.009	16.2
-0.0398	0.0052	0.0135	0.0022	16.1
-0.027	-0.0008	0.0142	-0.0008	16.1
-0.012	0.0067	0.0082	-0.0008	16.4
0.0045	0.003	0.012	-0.003	16
0.0112	-0.003	0.0345	0	16.2
0.0135	-0.003	0.0982	-0.0008	16
0.0262	-0.0083	0.1567	-0.0023	16.2
0.0285	-0.0068	0.1117	-0.0008	16.1
0.0217	-0.0046	0.009	-0.0008	16
0.0127	-0.003	-0.075	-0.0008	15.8
-0.0068	0.0007	-0.1455	-0.0038	15.8
-0.0053	-0.0015	-0.1635	-0.0046	16.1
0.0015	0.0052	-0.129	-0.003	16
-0.0015	0.0105	-0.0405	-0.0015	15.9
-0.0181	-0.0046	0.0517	-0.0023	16.2
-0.0346	-0.0113	0.081	-0.0046	16
-0.0233	-0.0068	0.1147	-0.0008	16.1
-0.0158	0.0022	0.1072	0.0022	15.9
-0.012	0.0082	0.0277	-0.0015	16.1
-0.0068	0.0007	-0.0533	-0.0008	15.8
0.006	-0.0015	-0.1103	-0.0023	15.9
0.0195	-0.0068	-0.1365	-0.0083	15.9
0.0292	-0.0135	-0.1403	-0.0068	15.8
0.0577	-0.0128	-0.0983	-0.006	16
0.0675	-0.0083	-0.0405	0.0007	15.8
0.0397	0.003	0.0082	0.0067	15.8
-0.0008	0.0105	0.0465	0.0045	16.1
-0.0181	0.0105	0.0495	0.0045	15.8
-0.0188	0.0082	0.0292	0.003	16
-0.0105	0.009	0.0247	0.003	15.8
-0.0053	0.009	0.0397	0.0015	16
-0.012	0.0007	0.048	-0.0046	15.8
-0.0008	-0.0046	0.0502	-0.0083	16.1
0.015	-0.0091	0.039	-0.0091	15.8
0.0382	-0.0091	0.0097	-0.0068	15.9
0.0502	-0.0038	-0.0091	0.0007	15.9
0.0495	-0.003	0.0082	0.0067	15.8
0.0367	0.0007	0.0645	0.0105	15.9
0.0045	0.0007	0.114	0.006	15.8
-0.0091	-0.0046	0.1042	0.0015	15.9
-0.0195	-0.0046	0.0532	0	15.9
-0.0195	-0.0098	-0.0195	-0.003	15.7
-0.0218	-0.003	-0.0735	0.003	15.9
-0.0338	0.0097	-0.0983	0.0037	15.7
-0.0368	0.0097	-0.1006	0.0007	16
-0.0368	0.0142	-0.0803	-0.0008	15.7
-0.027	0.0097	-0.0563	-0.0083	15.8
-0.0173	0.0007	-0.0128	-0.012	15.8
-0.003	-0.0068	0.0075	-0.012	15.8
0.0067	-0.0143	0.0307	-0.0091	15.8
0.027	-0.0218	0.0465	-0.006	15.7
0.0465	-0.0256	0.0427	-0.0046	15.9
0.0345	-0.0143	0.0667	0.0015	15.8
0.0195	-0.0046	0.0757	0.006	16
0.0232	0.006	0.0682	0.009	15.7
0.018	0.0262	0.0352	0.0165	15.8
-0.012	0.0255	-0.0233	0.0142	15.8
-0.0105	0.0105	-0.0638	0.0045	15.6
0.003	0.0037	-0.075	-0.0015	15.7
0.0112	-0.003	-0.0585	-0.0075	15.7
0.0157	-0.0046	-0.0225	-0.003	15.8
-0.0008	0.0052	-0.0075	0.0015	15.8
-0.0046	0.0045	0.0097	-0.0015	15.9
-0.0143	0.003	0.048	-0.0015	15.9
-0.0361	0.009	0.0607	0.0007	15.7
-0.0315	0.0082	0.0517	-0.0015	16
-0.0256	0.0007	0.0315	-0.0053	15.6
-0.024	-0.0068	0.015	-0.0053	15.8
0.0037	-0.0135	0.0105	-0.0075	15.6
0.0345	-0.0195	0.0037	-0.0091	15.8
0.0585	-0.0165	0.0015	-0.0113	15.8
0.0765	-0.0135	0.0187	-0.0083	15.8
0.0615	-0.0091	0.0187	0.0015	15.7
0.027	0.0015	-0.0256	0.0067	15.6
0.0105	0.0052	-0.0511	0.009	15.7
0.003	0.018	-0.0825	0.0105	15.7
-0.0195	0.0262	-0.0908	0.009	15.7
-0.024	0.0067	-0.0653	0.0052	15.7
-0.0158	-0.0015	-0.0593	0.003	15.5
-0.0173	-0.0046	-0.033	-0.0015	15.9
-0.0053	-0.0128	-0.0165	-0.0068	15.4
0.0052	-0.0083	0.0015	-0.003	15.8
0.0007	-0.0038	0.0315	0	15.7
-0.0068	0.0022	0.0292	0.0022	15.8
-0.0278	-0.0023	0.015	0.0015	15.7
-0.0278	-0.0046	-0.012	0	15.7
-0.0098	-0.0046	-0.0158	-0.0015	15.7
0.0015	-0.0083	0.0285	-0.0053	15.7
0.0135	-0.003	0.0847	-0.0053	15.8
0.006	-0.0046	0.0915	-0.0046	15.8
-0.0053	-0.0023	0.0727	-0.0038	15.7
-0.0023	0.003	0.048	-0.0015	15.7
-0.0068	0.0067	0.033	-0.0008	15.7
-0.0256	0.0075	0.048	-0.0023	15.7
-0.024	0.0015	0.0217	-0.0068	15.6
-0.0083	0	-0.012	-0.0083	15.8
0.012	0.003	-0.039	-0.0068	15.6
0.0225	0.0022	-0.0691	-0.0015	15.6
0.0112	-0.0046	-0.0743	-0.0008	15.6
0.0135	-0.0053	-0.066	0.0007	15.5
0.0337	0.0015	-0.057	0.003	15.8
0.0232	0.0045	-0.06	0.0037	15.6
-0.0068	0.003	-0.0548	0.0015	15.6
-0.015	0.003	-0.0353	-0.0015	15.7
-0.012	-0.0008	-0.003	-0.0038	15.7
-0.0053	-0.0053	0.0202	-0.006	15.6
0.0142	-0.0091	0.0165	-0.006	15.6
0.009	-0.0053	0.003	0.0015	15.6
-0.024	0.0037	-0.0091	0.006	15.7
-0.0323	0.003	0.0052	0.0045	15.7
-0.0165	0	0.0225	-0.0008	15.7
0.0127	-0.0038	0.0307	-0.0053	15.6
0.0307	-0.0015	0.03	-0.003	15.7
0.0187	0.0007	0.0127	0.0007	15.6
0.0157	-0.0068	-0.0046	-0.0015	15.7
0.0345	-0.0046	-0.0278	0.0015	15.4
0.0352	0.0022	-0.033	0.0052	15.7
0.0127	0.003	-0.024	0.0045	15.6
-0.0158	0.003	-0.0015	0.0015	15.8
-0.021	0.0022	0.033	-0.0008	15.7
-0.012	0.0022	0.057	-0.0008	15.6
-0.0075	0.0015	0.0705	-0.0023	15.6
0.0082	-0.0015	0.066	-0.0053	15.7
0.0165	-0.003	0.0757	-0.0023	15.7
0.0202	-0.003	0.0645	-0.0015	15.7
0.0247	-0.0053	0.0255	-0.0015	15.8
0.0217	-0.0068	0.003	-0.0015	15.7
0.0075	-0.0053	-0.0256	-0.0046	15.6
-0.0165	-0.0091	-0.0338	-0.0053	15.7
-0.0218	-0.0068	-0.0113	-0.003	15.6
-0.0173	0.0015	0.0015	0.0015	15.7
-0.0173	0.0015	0.0045	0.0037	15.7
-0.0091	0	0.0045	0.003	15.5
0.003	0.003	-0.0315	0.0075	15.7
0.0045	0.006	0.006	0.0082	15.8
-0.0068	0.003	0.0712	0.0052	15.6
-0.0098	-0.0008	0.0255	0.0052	15.6
-0.012	0.003	-0.0195	0.0045	15.6
-0.015	0.0022	-0.057	0.003	15.8
-0.0203	0.0105	-0.09	0.003	15.6
-0.0181	0.0157	-0.1298	0.0007	15.7
-0.0053	0.0052	-0.1703	-0.0023	15.5
0.003	-0.0008	-0.12	-0.003	15.8
0.015	-0.0046	-0.0728	-0.0038	15.6
0.0195	-0.0015	-0.0578	0.0022	15.7
0.0157	0.0007	-0.0346	0.0022	15.7
0.0217	-0.0091	-0.0158	-0.0068	15.6
0.0277	-0.003	-0.0083	-0.0083	15.6
0.0045	0.0082	-0.0053	-0.0046	15.5
-0.0091	0.0022	0.0232	0	15.9
0.0015	-0.0083	0.0525	0.003	15.7
-0.0113	-0.0046	0.0982	0.006	15.7
-0.0308	0.003	0.1297	0.0067	15.7
-0.0346	0.0007	0.108	0.0015	15.8
-0.0091	-0.0053	0.0787	-0.0053	15.7
0.0315	-0.0068	0.036	-0.0083	15.8
0.0585	-0.0046	0.0067	-0.006	15.9
0.0427	-0.0008	0.0082	-0.0023	15.7
0.003	0.0037	0.024	0.0022	15.7
-0.0075	0.0052	0.0427	0.0015	15.8
-0.003	0.0015	0.0367	-0.0015	15.7
0.0045	0.0007	0.027	-0.0053	15.8
0.009	0.0037	0.0082	-0.0046	15.7
0	0	-0.0203	-0.0038	15.7
0.0052	-0.0075	-0.0263	-0.006	15.8
0.0052	-0.0075	-0.0188	-0.003	15.7
0.0015	-0.0083	-0.003	-0.0038	15.7
0.003	0.0007	0.0307	-0.0015	15.8
0.0015	0.009	0.0405	0.0022	15.9
0.0015	0.0067	0.042	0.003	15.9
0.003	0.0007	0.0345	0.003	15.8
-0.0053	0.0022	0.0067	0.0082	16
-0.0075	0.0067	0.0195	0.0052	15.7
0.0097	0.0015	0.0232	-0.0015	15.8
0.021	0.0007	0.003	-0.0015	15.6
0.0345	0.0015	0.0082	-0.0015	15.8
0.033	-0.0008	0.0022	0.0015	15.7
0.0232	-0.0046	-0.0165	-0.0008	15.7
0.0225	-0.0075	-0.0413	-0.0038	15.7
0.024	-0.0105	-0.0533	-0.0053	15.7
0.0262	-0.0143	-0.06	-0.0068	15.9
0.0232	-0.0083	-0.048	-0.003	15.6
0.0022	0.003	-0.0203	0.0015	15.8
-0.0203	0.003	-0.0098	-0.0008	15.7
-0.0135	-0.0091	-0.0158	-0.0083	15.7
-0.0046	-0.0143	-0.0308	-0.0091	15.7
-0.0143	-0.0053	-0.0436	-0.0038	15.7
-0.0203	0.0007	-0.0488	0.0015	15.8
-0.0098	0.003	-0.027	0.0052	15.6
-0.0008	0.0045	0.0075	0.0045	15.9
-0.012	0.0082	0.027	0.0007	15.7
-0.0233	0.009	0.0315	-0.0023	15.8
-0.012	0.0015	0.03	-0.006	15.9
0.012	-0.0098	0.0352	-0.006	15.8
0.0315	-0.0143	0.0547	-0.0015	15.8
0.0315	-0.0143	0.0705	-0.0008	15.6
0.0105	-0.0165	0.057	-0.0008	15.9
-0.0091	-0.0181	0.0405	-0.0015	15.8
-0.0083	-0.0113	0.0165	-0.0015	15.8
-0.0046	0.006	-0.0263	0.003	15.8
-0.0008	0.015	-0.057	0.0045	15.8
0.0285	0.0075	-0.0668	0.003	15.8
0.0457	-0.0015	-0.0683	0.003	15.6
0.0127	0	-0.0533	0.0067	15.7
-0.0173	0.006	-0.0346	0.0052	15.8
-0.0248	0.0015	0.0067	0.0022	15.8
-0.021	0.003	0.0667	-0.0008	15.8
-0.0143	0.006	0.0975	-0.0023	15.5
-0.003	0.0052	0.0832	-0.003	16
0.0075	-0.0008	0.0367	-0.0053	15.6
0.0082	-0.0053	-0.0053	-0.003	15.8
0.0067	-0.0015	-0.0278	-0.0038	15.6
-0.0008	-0.0015	-0.0353	-0.0015	15.8
-0.0225	0.0045	-0.042	0.003	15.8
-0.039	0.0082	-0.0383	0.003	15.8
-0.0398	0.0052	-0.033	0.0015	15.6
-0.0413	-0.0015	-0.027	-0.0015	15.6
-0.0338	-0.0053	-0.0218	-0.0053	15.6
-0.0075	-0.0046	-0.0053	-0.0091	15.7
0.018	-0.0075	0.0442	-0.0113	15.8
0.0322	-0.0083	0.0892	-0.0098	15.7
0.0187	-0.0046	0.0817	-0.0083	15.6
-0.0053	0.0015	0.0172	-0.0046	15.8
0.0015	0.0067	-0.0323	-0.0023	15.7
0.0195	0.0015	-0.0675	-0.003	15.9
0.0082	0.0007	-0.1073	0.0037	15.6
-0.0225	0.003	-0.1035	0.0037	15.9
-0.0158	0.0007	-0.0788	0.0007	15.6
0.0097	0.003	-0.054	0.003	15.7
0.0097	0.0022	-0.042	0.0045	15.8
-0.0046	0.0067	-0.0315	0.0045	15.7
-0.0203	0.0075	0.0022	0.0022	15.7
-0.0203	0.0067	0.0442	-0.0015	15.7
-0.0135	0.0157	0.0915	0.0015	15.8
-0.0091	0.0075	0.1155	0.0022	15.8
-0.0105	0.0067	0.069	0.0045	15.7
-0.0203	0.0067	0.021	0.0045	15.8
-0.0038	-0.0023	-0.0143	-0.0038	15.7
0.0405	-0.0143	-0.0465	-0.0113	15.8
0.066	-0.027	-0.048	-0.0128	15.7
0.075	-0.027	-0.0511	-0.0083	15.7
0.078	-0.0195	-0.0346	-0.0023	15.7
0.0405	-0.0083	0.0105	0.0052	15.7
-0.0046	0.0037	0.06	0.0105	15.8
-0.0278	0.0135	0.0555	0.0082	15.7
-0.0368	0.0165	0.0127	0.0015	15.8
-0.0158	0.0105	-0.0105	-0.0053	15.7
-0.0008	-0.0023	-0.039	-0.0091	15.7
0.0007	-0.0068	-0.0368	-0.0075	15.7
0.006	-0.0038	-0.0233	-0.003	15.8
0.0075	-0.0008	0.0105	0.0007	15.8
0.003	0.0067	0.0825	0.0045	15.7
-0.0091	0	0.1522	0.0052	15.7
-0.0248	-0.0023	0.144	0.006	15.8
-0.0315	-0.0046	0.0232	0.0015	15.7
-0.0256	-0.0083	-0.0638	-0.0038	15.8
-0.0158	-0.0068	-0.093	-0.0046	15.7
0.012	-0.0128	-0.1006	-0.0083	15.9
0.0315	-0.0075	-0.0713	0.0007	15.7
0.009	0.003	-0.0383	0.0082	15.9
-0.012	0.0097	-0.0105	0.006	15.7
-0.0098	0.0067	0	0.0007	15.8
0.0037	-0.0038	0.0112	-0.003	15.8
0.0202	-0.0105	0.0157	-0.0046	15.8
0.021	-0.0158	0.0067	-0.0038	15.8
0.0052	-0.0083	-0.0105	0.0052	15.8
-0.0181	0.006	-0.0158	0.0112	15.7
-0.0143	0.0142	0.0127	0.0052	16.1
0.0135	0.012	0.0382	-0.0008	15.8
0.0352	0.0097	0.0457	0.0022	15.8
0.0405	0.0135	0.0525	0.0052	15.8
0.027	0.0142	0.0637	0.0052	15.9
0.018	0.012	0.063	0.0052	15.8
0.003	0.0067	0.039	0.0022	15.9
-0.0015	0.0007	0.024	-0.0008	15.9
0.0142	-0.0053	0.0007	-0.0098	15.6
0.033	-0.0091	-0.027	-0.0143	16
0.0412	-0.0135	-0.0285	-0.012	15.6
0.0187	-0.021	-0.0188	-0.0098	15.8
0.0007	-0.0203	-0.003	-0.006	15.9
0.009	-0.012	0.0007	-0.0046	15.9
0.021	-0.003	0.0225	0.0007	15.8
0.0172	0.0007	0.0442	0.0037	15.7
0.009	0.0157	0.0367	0.003	16
-0.0068	0.0187	0.0105	0.006	15.7
-0.0233	0.0082	-0.033	0.0052	16
-0.0165	0.003	-0.0728	0.0007	15.6
-0.012	-0.0015	-0.0863	-0.0008	15.9
-0.0165	0.0007	-0.0525	-0.003	15.8
-0.0188	0.003	-0.0323	-0.0046	15.7
-0.0195	0.003	-0.048	0.0007	15.9
-0.027	0.006	-0.0533	0.003	15.7
-0.042	0.006	-0.0323	0.0015	16
-0.0465	0.0007	-0.0015	0	15.8
-0.027	-0.0083	0.0045	-0.0046	15.9
0.0037	-0.0143	0.0015	-0.0083	15.9
0.045	-0.0225	-0.0083	-0.012	15.8
0.0652	-0.024	-0.0195	-0.0091	15.7
0.042	-0.0181	-0.0083	-0.003	15.8
0.0165	-0.003	0.0097	0.003	15.9
0.0165	0.0172	0.0217	0.003	15.9
0.0262	0.018	0.024	0.0007	15.8
0.021	0.015	0.018	0.003	15.8
0.0022	0.0157	0.0105	0.0067	15.9
-0.0105	0.0067	0.0157	0.0067	16
-0.015	0.0045	0.0495	0.0045	15.8
-0.024	0.0045	0.075	0.0007	15.9
-0.0233	0.003	0.0787	-0.0046	15.8
-0.027	-0.0015	0.0592	-0.0046	15.8
-0.033	-0.0015	0.0217	-0.0023	15.8
-0.027	0.0015	0.0457	-0.0023	15.8
-0.0233	-0.0015	0.1387	-0.0038	15.9
-0.0046	-0.0075	0.2055	-0.0098	15.8
0.0262	-0.0135	0.171	-0.0105	15.9
0.0585	-0.0165	0.0337	-0.0105	15.8
0.0847	-0.015	-0.093	-0.0098	15.6
0.0975	-0.0068	-0.165	-0.0023	15.9
0.0667	0.0037	-0.195	0.0105	15.7
-0.003	0.0067	-0.2011	0.015	15.9
-0.039	0.0045	-0.2168	0.0082	15.7
-0.0323	0.0045	-0.1868	0.003	15.7
-0.024	0.003	-0.1365	-0.0008	15.9
-0.0218	0.0015	-0.0758	-0.0015	15.9
-0.0158	0.003	-0.0105	0.0022	15.9
-0.0143	0.006	0.0082	0.0037	15.7
-0.0233	0.0052	0.0165	0.0015	16
-0.024	-0.003	0.0135	-0.0015	15.6
-0.0098	-0.0098	0.024	-0.0053	15.8
-0.0053	-0.0165	0.0577	-0.0091	15.8
0.0022	-0.0181	0.0885	-0.0068	15.7
0.0015	-0.0158	0.12	-0.0015	15.8
-0.0128	-0.0091	0.1035	-0.0008	15.7
-0.0113	0.0075	0.0577	0.0015	15.9
-0.015	0.0202	0.0157	0.003	15.7
-0.0165	0.0142	-0.0278	0.0015	15.8
0	0.009	-0.0353	0.0015	15.7
0.0082	0.009	-0.0158	0.003	15.7
0.0037	0.0045	-0.003	-0.0008	15.9
0.0015	0.0015	0.0015	-0.003	15.7
0.0105	-0.0023	0.018	-0.0015	15.8
0.0165	-0.0008	0.0195	-0.0015	15.7
0.018	0	0.0127	-0.0008	15.8
0.0127	0.0022	0.0255	0.0045	15.7
-0.0053	0.0045	0.0142	0.0045	15.7
-0.0113	0.0007	0.006	0.0007	15.7
-0.0053	0.0015	0.0345	0	15.8
0.003	0.0015	0.057	-0.0015	15.8
0	0	0.0255	-0.003	15.6
-0.0113	-0.0068	-0.0233	-0.0053	15.7
-0.0128	-0.0105	-0.0458	-0.0068	15.7
0	-0.015	-0.0638	-0.0068	15.7
0.0247	-0.0098	-0.0555	-0.003	15.9
0.0442	0	-0.0256	0.0045	15.5
0.042	-0.0068	0.0105	0.0045	15.9
0.0292	-0.0068	0.0217	0.0052	15.5
0.0007	0.0052	0.0202	0.006	15.8
-0.03	0.0165	0.003	0.003	15.6
-0.0308	0.018	-0.0361	0.0007	15.7
-0.0233	0.0022	-0.0263	-0.0015	15.6
-0.0188	0	-0.0091	-0.0038	15.7
-0.015	0.0022	0.0127	-0.003	15.8
-0.0218	-0.003	0.0435	-0.003	15.7
-0.0293	-0.003	0.0532	-0.006	15.7
-0.0158	-0.0046	0.057	-0.003	15.9
0.0045	0.0007	0.033	-0.0008	15.6
0.0157	0.0045	0.0067	-0.0008	15.8
0.0277	-0.0015	-0.0165	-0.0015	15.6
0.0322	-0.003	-0.0285	-0.0008	15.9
0.012	0.0007	-0.0038	0.003	15.6
-0.003	-0.003	0.0382	0.0015	15.9
0.0232	-0.0083	0.033	-0.003	15.6
0.033	-0.0143	-0.006	-0.003	15.7
0.0135	-0.0181	-0.0188	-0.0015	15.7
0.003	-0.0181	-0.0383	0.0007	15.7
-0.003	-0.0075	-0.024	0.0067	15.8
-0.0083	0.015	-0.0143	0.0157	15.7
-0.003	0.012	-0.015	0.012	15.7
-0.0068	0.003	0	0.0075	15.7
-0.0083	0.0082	-0.0563	0.003	15.7
0.0195	0.0015	-0.0975	-0.003	15.9
0.0195	-0.0008	-0.1028	-0.003	15.7
0.0187	0.0075	-0.1028	-0.0008	15.8
0.0322	0.009	-0.0465	-0.0008	15.6
0.027	0.0105	0.0067	-0.0015	15.8
0.0082	0.0112	0.0592	-0.0015	15.8
-0.006	0.006	0.0952	-0.0046	15.8
0.003	-0.0015	0.078	-0.006	15.7
0.006	-0.0015	0.0615	-0.0038	15.8
0.0015	-0.0015	0.0697	-0.0053	16
-0.003	-0.006	0.06	-0.0083	15.7
-0.0091	-0.0038	0.0225	-0.003	15.8
0.0022	0.0007	0.0015	-0.0008	15.9
0.012	-0.006	-0.0046	-0.0046	15.8
0.009	-0.0135	0.0142	-0.0053	15.9
0.0082	-0.0135	0.0247	-0.0046	15.7
0.0292	-0.0165	0.0045	-0.0015	16
0.0517	-0.0188	-0.0008	-0.0008	15.7
0.0292	-0.0068	0.042	0.0082	15.9
-0.0083	0.0045	0.1185	0.0127	15.7
-0.0323	0.0097	0.1125	0.009	15.8
-0.054	0.0127	0.0555	0.0075	15.8
-0.0436	0.0015	0.012	0.0007	15.7
-0.0195	0.003	-0.0248	-0.0053	15.8
-0.0113	0.006	-0.0143	-0.0068	15.7
0.0037	0.003	-0.0315	-0.0091	15.9
0.009	0.006	-0.078	-0.0105	15.8
0.0052	0.003	-0.0953	-0.0091	15.9
0.0165	0.0022	-0.1013	-0.0068	15.7
0.033	0.0007	-0.0863	-0.0046	15.8
0.0255	-0.0015	-0.0638	-0.003	15.8
0.0142	-0.0068	-0.0293	-0.0038	15.6
0.0142	-0.0068	-0.0008	-0.0046	15.9
-0.003	-0.0038	-0.003	-0.0015	15.7
-0.003	-0.0038	0.003	0.0007	16
0.0307	-0.0083	0.0322	0	15.7
0.045	-0.0105	0.06	-0.0015	15.9
-0.0008	-0.0053	0.06	0.0052	15.8
-0.0225	-0.0053	0.0487	0.0075	15.8
0.0217	-0.0091	0.0225	-0.0023	15.8
0.0592	-0.0128	-0.0158	-0.0046	15.6
0.0622	-0.0083	-0.0338	0.003	15.9
0.0195	0.015	-0.0458	0.0127	15.8
-0.0323	0.0367	-0.0518	0.0165	15.8
-0.0436	0.021	-0.042	0.006	15.9
-0.027	0.0022	-0.0308	-0.0015	15.7
-0.0158	0.0015	-0.0128	-0.003	15.7
-0.003	-0.006	0.0082	-0.0038	15.8
0.0015	-0.0015	0.018	-0.0046	15.7
-0.003	0.003	0.0172	-0.0053	15.9
-0.0083	0.0007	0.0075	-0.003	15.7
-0.0203	0.0007	0.0015	-0.003	15.8
-0.0218	0.003	0.009	-0.003	15.7
-0.0248	0.0007	0.009	-0.003	15.8
-0.027	-0.0023	0.0075	-0.0053	15.7
-0.0181	-0.003	0.0045	-0.0053	16
-0.0105	-0.006	-0.003	-0.0053	15.7
-0.0008	-0.0091	-0.0075	-0.006	15.8
0.0067	-0.0135	-0.0053	-0.0046	15.9
0.012	-0.0083	0.0052	-0.0015	15.7
0.0067	-0.003	0.0165	0.0015	15.7
-0.0038	-0.0008	0.0322	0.0052	15.7
-0.012	0.0045	0.0375	0.0037	15.7
-0.0113	0.006	0.0202	0.0015	16
-0.003	0.0007	0.0015	0	15.6
0.0037	-0.003	-0.0105	-0.0038	15.9
0.0165	-0.0046	-0.0143	-0.0053	15.6
0.0262	-0.006	-0.0173	-0.0046	15.8
0.0255	-0.0023	-0.0015	-0.003	15.6
0.0142	-0.003	0.0165	-0.003	15.8
0.003	-0.0046	0.0052	-0.0053	15.6
0.0022	-0.0046	-0.0075	-0.0046	15.7
0.0007	-0.0008	-0.0023	-0.0046	15.7
0.0067	0.012	0.0232	-0.0038	15.7
0.0142	0.009	0.0322	-0.0008	15.8
0.0045	-0.0008	-0.0113	0.0022	15.5
-0.0091	0	-0.0518	0.0045	15.7
-0.0046	-0.0046	-0.0856	0	15.6
0.0045	-0.0053	-0.0968	-0.0046	15.6
0.003	0.0007	-0.0465	-0.0015	15.6
-0.0143	0.0067	0.018	-0.0015	15.6
-0.0278	0.0015	0.0525	-0.003	15.6
-0.0256	0.0015	0.0592	-0.0015	15.6
-0.0233	0.009	0.0712	0.0007	15.7
-0.0203	0.0045	0.0442	-0.0008	15.7
-0.0165	0.0015	0.0165	0.0007	15.6
-0.0105	-0.0023	0.0337	0.0022	15.7
-0.0046	-0.0046	0.021	0.0007	15.6
0.006	-0.0046	-0.0038	-0.0008	15.8
0.0202	-0.0091	-0.0135	-0.0038	15.4
0.0255	-0.0008	-0.0195	-0.0015	15.6
0.0247	0.0015	-0.0181	-0.0015	15.7
0.018	-0.0046	-0.0128	-0.0023	15.5
0.0007	0.0075	0.0007	0.003	15.6
-0.0128	0.0015	-0.0015	0.0007	15.6
-0.0091	-0.0068	-0.0375	-0.0015	15.7
-0.0068	-0.0053	-0.0428	-0.0015	15.5
-0.0105	-0.0113	-0.0053	-0.006	15.7
-0.0075	-0.0083	0.0435	-0.0053	15.7
0.0105	-0.0083	0.0495	-0.0046	15.6
0.0225	-0.0068	0.0202	0.0045	15.8
0.015	-0.0015	0.0307	0.0105	15.6
0.0045	0	0.0367	0.009	15.8
-0.0158	0.003	0.003	0.0097	15.6
-0.0256	0.0022	-0.0256	0.0037	15.8
-0.012	-0.0023	-0.0173	-0.003	15.6
-0.0023	-0.0008	-0.0405	0	15.6
-0.0015	0.003	-0.0713	0.0007	15.6
0.012	-0.0008	-0.096	-0.0015	15.6
0.0247	-0.0046	-0.1103	-0.003	15.6
0.0277	-0.0098	-0.117	-0.0091	15.6
0.0112	-0.0068	-0.1208	-0.0053	15.6
-0.0181	0.012	-0.0563	0.003	15.7
-0.0181	0.0217	0.0007	0.006	15.7
0.003	0.0157	0.0532	0.0007	15.8
0.0322	0.012	0.1522	-0.0053	15.5
0.0442	0.0097	0.2025	-0.0053	15.7
0.027	-0.0015	0.1717	-0.0053	15.6
0.0202	-0.003	0.129	-0.0038	15.7
0.03	0.003	0.0675	-0.0015	15.7
0.0285	0.0082	0.018	0.0022	15.7
-0.0113	0.0082	0.003	0.006	15.8
-0.0405	0.0015	-0.0038	0.0052	15.6
-0.0338	-0.0038	-0.0023	0.0007	15.6
-0.015	-0.0068	-0.0105	-0.0023	15.5
-0.0008	-0.0023	-0.0105	-0.0023	15.4
0.003	-0.0038	-0.0091	-0.003	15.7
0.0135	-0.0053	-0.006	-0.003	15.6
0.0045	-0.003	-0.0098	-0.0023	15.7
-0.0053	-0.0015	-0.0113	-0.003	15.7
-0.0008	0.0007	0.0112	-0.0015	15.7
-0.0046	0.0007	0.0255	-0.0008	15.6
0.009	-0.0038	0.0165	-0.0015	15.7
0.0307	-0.012	-0.0105	-0.0008	15.8
0.0337	-0.0135	-0.0308	-0.0008	15.7
0.0277	-0.0098	-0.0578	0.003	15.8
0.0142	-0.003	-0.0795	0.0052	15.5
0.0112	0.0022	-0.0803	0.003	15.6
0.0277	0.0007	-0.06	0.003	15.3
0.0292	0.003	-0.03	0.0052	15.7
0.0172	0.0067	-0.0218	0.003	15.6
0.012	0.003	-0.0075	-0.0023	15.6
0.0142	-0.0038	0.009	-0.0038	15.6
0.0165	0	0.012	-0.0046	15.6
0.0195	0.0007	0.0142	-0.0053	15.7
0.0165	-0.0008	0.0217	-0.0008	15.7
-0.0015	-0.0023	0.0277	-0.0008	15.6
-0.0083	-0.0046	0.0277	-0.003	15.7
0.0015	-0.003	0.0262	-0.0023	15.7
-0.003	-0.0053	0.0202	-0.0046	15.7
-0.0098	-0.0083	0.0082	-0.0046	15.7
0.0045	-0.0053	-0.0015	0.0015	15.7
0.0157	0.0052	-0.003	0.0052	15.7
0.0052	0.0045	0.003	0.0052	15.7
-0.0083	-0.0023	0.0082	0.0045	15.7
-0.0015	0.0022	0.018	0.003	15.6
0.0007	-0.0008	0.003	0.003	15.7
-0.0181	-0.0015	-0.0158	0.0052	15.6
-0.0278	-0.0008	-0.0015	0.0015	15.6
-0.0218	-0.003	-0.0091	-0.0046	15.8
-0.0046	-0.0015	-0.027	-0.0068	15.6
0.0217	-0.0075	-0.0405	-0.0091	15.7
0.0232	-0.0038	-0.048	-0.0046	15.6
0.0007	0.0082	-0.0465	-0.0008	15.6
-0.0195	0.0112	-0.0691	0.0007	15.7
-0.0225	0.006	-0.0653	-0.0015	15.7
-0.0158	0.0045	-0.0428	-0.0046	15.6
-0.0083	-0.0015	-0.024	-0.0053	15.6
0.0105	-0.0038	0	-0.0053	15.8
0.0195	0.0022	0.027	0.0007	15.7
0.0142	-0.003	0.063	0.0045	15.9
-0.0008	-0.0113	0.0825	0.0045	15.6
-0.0091	-0.0128	0.1012	0.006	15.6
-0.012	-0.0091	0.1117	0.009	15.6
-0.0203	-0.0046	0.0825	0.0097	15.7
-0.0248	-0.0015	0.0442	0.0052	15.7
-0.0105	-0.0038	0.0232	-0.0046	15.6
-0.0038	-0.003	0.0067	-0.006	15.8
-0.003	0.0052	-0.0068	-0.0015	15.6
0.012	0.0067	-0.0165	-0.0023	15.7
0.0105	0.0082	-0.0068	0	15.8
0.0015	0.0075	0.0105	0.0007	15.7
-0.0091	0.0015	0.0082	-0.0015	15.8
-0.0068	-0.0008	0.0045	-0.0046	15.6
0.012	-0.0053	0.018	-0.0091	15.8
0.0157	-0.0083	0.0495	-0.0091	15.6
0.0097	-0.0068	0.0577	-0.0091	15.8
0	0.0007	0.0135	-0.0053	15.7
-0.0008	0.0202	-0.0368	0	15.7
0.006	0.0202	-0.0653	0.0007	15.7
0.0127	0.003	-0.0728	-0.0023	15.8
0.018	-0.0053	-0.0735	-0.0053	15.7
0.0082	-0.0075	-0.0555	-0.003	15.7
-0.0135	-0.0053	0.0082	0.0007	15.7
-0.0128	0.0007	0.0577	0.0022	15.7
0.0097	0.0015	0.0465	0.0007	15.7
0.0142	0.0015	-0.0165	0.0015	15.8
-0.0038	0.0067	-0.1028	0.0015	15.7
-0.0023	0	-0.1703	-0.0015	15.8
-0.012	-0.0068	-0.1838	0.0007	15.6
-0.0323	-0.0046	-0.1268	0.0007	15.8
-0.027	-0.0068	-0.042	0	15.8
-0.0075	-0.0105	0.0472	0.0007	15.6
0.0217	-0.0128	0.1267	-0.003	15.8
0.042	-0.0158	0.147	-0.0053	15.7
0.0382	-0.015	0.1087	0	15.7
0.003	-0.0053	0.0937	0.0052	15.7
-0.0105	-0.0023	0.0652	0.003	15.6
-0.0015	0.0007	0.009	0	15.8
-0.0053	-0.0015	0.012	-0.0015	15.6
-0.0038	-0.0091	0.0907	-0.003	15.9
-0.0181	-0.0015	0.108	0.0007	15.6
-0.0195	0.0045	0.012	-0.0008	15.8
-0.0188	0.0067	-0.0533	0.0007	15.6
-0.015	0.0165	-0.105	0.0015	15.8
0.0082	0.0165	-0.135	0.0007	15.7
0.0255	0.0067	-0.108	0.003	15.6
0.0262	0.0135	-0.0518	0.006	15.8
0.0052	0.0217	0.0015	0.0082	15.7
0.0022	0.0157	-0.003	0.0045	15.9
0.009	-0.0015	0.0045	-0.003	15.7
0.012	-0.0128	0.012	-0.0038	15.7
0.0157	-0.0128	0.0105	-0.003	15.8
-0.0023	-0.0165	0.0045	0.0007	15.7
-0.0181	-0.0053	0.0022	0.0015	15.9
-0.0225	-0.0015	0.012	-0.0008	15.6
-0.0233	0.003	0.0045	0.003	15.7
-0.0203	0.003	0.0015	0.0037	15.6
-0.0128	-0.003	0.0112	0	15.6
0.006	-0.0053	0.0465	-0.0046	15.8
0.0292	-0.0143	0.0742	-0.0068	15.6
0.0502	-0.0091	0.0637	-0.003	15.9
0.0427	-0.003	0.0397	-0.0023	15.5
0.003	-0.0008	0.0217	-0.0008	15.8
-0.012	0.0022	-0.0015	-0.0015	15.6
-0.0008	0.0067	-0.0293	-0.0053	15.7
0.0082	0.009	-0.0413	-0.0053	15.6
0.0045	0.0142	-0.054	-0.003	15.7
0.0022	0.0127	-0.0555	-0.003	15.7
0.0127	-0.0038	-0.0653	-0.0091	15.6
0.03	-0.0135	-0.063	-0.0105	15.7
0.036	-0.012	-0.0323	-0.0038	15.7
0.0225	-0.003	0.0045	0.0037	15.5
0.0015	0.0015	0.06	0.0045	16
-0.0195	0.0015	0.0727	0.0052	15.6
-0.0218	0.003	0.033	0.0015	15.7
-0.0135	-0.0046	-0.0008	-0.0046	15.5
0.0007	-0.0068	-0.0353	-0.0053	15.7
0.0007	-0.003	-0.0653	-0.0046	15.4
-0.0135	-0.0008	-0.0645	-0.0008	15.7
-0.0188	0.0015	-0.045	0.0037	15.7
-0.012	0.0015	-0.0465	0.0015	15.6
-0.0046	0.0007	-0.0443	0.0022	15.6
-0.003	0.0007	-0.0158	0.003	15.7
0.003	-0.0008	0.0255	-0.0008	15.7
0.012	-0.0046	0.087	-0.003	15.6
0.0225	-0.0105	0.1177	-0.003	15.6
0.027	-0.0068	0.1215	0.0045	15.7
0.0195	0.006	0.1245	0.0097	15.7
0.009	0.0217	0.12	0.006	15.9
-0.0008	0.018	0.0937	0.0007	15.6
-0.0143	0.0067	0.048	-0.003	15.7
-0.0173	0.009	0.0202	-0.0046	15.7
-0.0008	0.0052	-0.0188	-0.006	15.6
0.0097	-0.006	-0.045	-0.0053	15.8
0.0082	-0.0053	-0.0503	0.0007	15.6
0.0067	0.0015	-0.0563	0.006	15.8
-0.0091	0.0045	-0.0278	0.0082	15.6
-0.0346	-0.0038	0.0052	0.003	15.8
-0.0248	-0.0083	0.0405	-0.0046	15.7
0.009	-0.0098	0.069	-0.0105	15.7
0.033	-0.0083	0.0465	-0.0113	15.7
0.0382	-0.0015	0.0015	-0.0105	15.6
0.021	-0.0023	-0.0375	-0.0083	15.7
0.0232	-0.0046	-0.0758	-0.0068	15.6
0.0442	-0.0053	-0.084	-0.0046	15.7
0.0435	-0.0038	-0.0443	0.0037	15.7
0.0075	0.0037	-0.0068	0.0157	15.5
-0.024	0.0067	-0.015	0.0165	15.8
-0.0323	0.0045	-0.033	0.0105	15.5
-0.0346	0.009	-0.0473	0.0045	15.8
-0.0105	0.0142	-0.084	-0.0046	15.6
0.0165	0	-0.1058	-0.0113	15.7
0.021	-0.0105	-0.066	-0.0075	15.7
0.0157	-0.006	-0.0165	-0.0015	15.8
0.015	-0.0091	0.0195	-0.0023	15.7
0.0232	-0.0083	0.0502	-0.003	15.7
0.021	-0.0023	0.0442	0.0007	15.8
-0.0008	-0.0008	0.0217	0.0052	15.8
-0.0278	-0.0008	0.003	0.003	15.7
-0.0285	0.0007	-0.0015	-0.0015	15.8
-0.0293	0.0037	0.0082	-0.0046	15.7
-0.027	0.003	0.024	-0.0053	15.7
-0.0053	0.0045	0.0532	-0.0068	15.7
0.0105	-0.0015	0.0502	-0.0091	15.7
0.0195	-0.0083	-0.0015	-0.0068	15.6
0.0247	-0.0075	-0.0578	0.0007	15.6
0.0307	-0.0083	-0.093	0	15.7
0.042	-0.0083	-0.108	0.0007	15.6
0.039	-0.0068	-0.0893	0.0007	15.9
0.0307	-0.012	-0.024	0	15.6
0.0165	-0.0105	0.1162	0.0075	15.6
-0.0165	0.0015	0.2512	0.0127	15.7
-0.0353	0.0052	0.2295	0.0082	15.7
-0.027	0.0022	0.132	-0.0008	15.8
-0.015	-0.0038	0.0315	-0.0068	15.6
-0.0068	-0.0008	-0.0795	-0.0068	15.7
-0.012	0.0075	-0.1313	-0.0053	15.6
-0.0256	0.009	-0.1238	-0.0046	15.7
-0.0315	0.009	-0.1006	-0.003	15.7
-0.0263	0.0052	-0.0713	-0.0038	15.6
-0.0038	0.0045	-0.0436	-0.003	15.8
0.009	0.0045	-0.0195	-0.0008	15.6
0.0105	0.0007	0.0105	-0.0023	15.7
0.0217	-0.003	0.0195	-0.0046	15.7
0.0322	-0.0015	0.03	-0.0015	15.7
0.0292	-0.0038	0.0682	0.0007	15.6
0.0142	-0.0091	0.0967	-0.003	15.6
0.003	-0.0105	0.0817	-0.0038	15.6
0.003	-0.0053	0.0322	-0.0008	15.7
0.0052	-0.0023	-0.0075	0.0022	15.8
-0.0068	-0.0023	-0.0473	0.0067	15.6
-0.015	-0.0008	-0.0765	0.0082	15.7
-0.0158	0.0015	-0.0871	0.0067	15.6
-0.012	0.0045	-0.0743	0.0007	15.6
0.0015	0.003	-0.042	-0.0023	15.7
0.0105	0.003	-0.0105	-0.0038	15.6
0.0052	0	0.0517	-0.0038	15.7
-0.0008	-0.0008	0.069	-0.003	15.6
0.006	-0.0053	0.0232	-0.0053	15.7
0.0067	-0.012	-0.0046	-0.003	15.7
0.0015	-0.012	-0.0113	-0.0015	15.6
-0.003	-0.0143	-0.0143	-0.0015	15.5
-0.012	-0.0068	-0.0143	0.0007	15.6
-0.015	-0.0015	-0.0091	-0.0015	15.7
-0.0143	-0.0015	0.0045	0.0015	15.7
-0.0008	0.0067	0.0142	0.003	15.7
0.0165	0.0015	0.0247	0.0037	15.9
0.0082	0.0067	0.03	0.0075	15.6
-0.0113	0.024	0.0217	0.0067	15.9
-0.015	0.0127	0.012	0.003	15.6
-0.0091	0.0052	0.0045	0.0037	15.8
0.0015	0.0045	0.009	0.0015	15.8
0.0142	0.0015	-0.012	-0.0046	15.7
0.0195	0.012	-0.0361	-0.0046	15.7
0.0277	0.0142	-0.0233	-0.0038	15.6
0.024	0.0082	-0.0053	-0.0008	15.7
0.0007	0.0022	0.0127	0.0015	15.6
-0.0113	0.0045	0.036	0.0022	15.9
-0.0135	-0.003	0.0502	0	15.7
-0.012	-0.006	0.0427	-0.0023	15.7
-0.0053	-0.0075	0.0247	-0.0053	15.8
0.003	-0.0158	0.0097	-0.006	15.5
0.009	-0.0091	0.003	-0.0015	15.9
0.0015	-0.0008	-0.0008	0.0022	15.7
-0.003	0	-0.0068	0.003	15.9
-0.0015	-0.006	-0.0143	0.003	15.7
-0.003	-0.0053	-0.0218	0.0007	15.8
0.003	-0.0053	-0.0113	-0.0015	15.8
0.0127	-0.0105	0.0405	-0.0075	15.8
0.0165	-0.0158	0.1005	-0.0068	15.8
0.0277	-0.0158	0.072	-0.0053	15.7
0.0307	-0.0068	0.0135	-0.0046	15.8
0.024	-0.0015	-0.0135	-0.0015	15.7
0.0052	0.0015	-0.0458	-0.0008	15.8
-0.0091	0.012	-0.0555	0.0007	15.7
-0.0075	0.018	-0.0458	0.0052	15.9
0.0015	0.015	-0.0443	0.0067	15.6
0.0082	0.0157	-0.0713	0.0052	15.7
-0.0046	0.0105	-0.093	0.0045	15.8
-0.0218	0.0097	-0.0713	0.0037	15.9
-0.0233	0.0097	-0.0361	-0.0008	15.7
-0.0105	-0.0015	-0.0098	-0.0038	15.8
0.0067	-0.0083	0.009	-0.006	15.7
0.024	-0.012	0.012	-0.0068	16
0.027	-0.0083	-0.0105	-0.0038	15.8
0.0105	-0.0083	-0.0143	-0.0015	15.9
-0.0008	-0.0053	-0.0038	0.0007	16
0.0075	-0.0046	0.0082	-0.0015	15.8
0.0217	-0.0113	0.0157	-0.003	16
0.018	-0.0053	0	0	15.8
-0.0083	0	-0.012	-0.0008	15.9
-0.027	-0.0008	-0.0098	0.0007	15.8
-0.0195	0	-0.0015	-0.0023	15.9
-0.0038	-0.0008	0.0255	-0.0015	16.1
0.0105	0.0007	0.0675	0	15.8
0.0165	0.0052	0.1012	0.003	16
0.0172	0.0052	0.0892	0.0022	15.7
0.0255	-0.0046	0.0397	-0.0046	16
0.033	-0.0083	-0.027	-0.0023	15.8
0.0165	-0.0015	-0.075	0.0045	16
-0.0105	0.0007	-0.0765	0.0052	15.9
-0.0181	0	-0.048	0.003	15.7
-0.0143	0.0007	-0.0165	0.0007	15.9
-0.0143	0.0045	0.0157	-0.0008	15.8
-0.0181	0.006	0.048	-0.0015	16
-0.012	0.0015	0.0652	-0.0015	15.8
-0.0015	0.0007	0.0577	-0.003	15.9
0.009	-0.0015	0.021	-0.0046	16
0.0105	-0.0053	-0.0015	-0.0053	16
0.012	-0.0053	-0.0098	-0.006	15.9
0.0195	-0.006	-0.0278	-0.0053	15.9
0.0187	-0.0068	-0.0278	-0.003	16
0.0135	-0.0046	-0.0105	0.0007	15.9
-0.0008	-0.0008	-0.0068	-0.0008	15.8
-0.0083	-0.0068	-0.0203	-0.0046	16
-0.003	-0.0098	-0.0105	-0.003	15.9
0.0007	-0.0075	0.012	0.0007	16.1
0.003	-0.003	0.0217	0.003	15.9
-0.0091	0.0037	0.042	0.0045	16.1
-0.006	0.006	0.0847	0.0022	15.9
0.015	0.003	0.1365	0.003	16
0.0157	-0.0008	0.1185	0	16.2
0.009	-0.0015	0.0487	-0.0038	15.9
0.0202	-0.0075	-0.0046	-0.0046	15.9
0.0255	-0.0128	-0.06	-0.0053	16
0.012	-0.003	-0.0863	-0.0008	15.8
-0.0046	0.0202	-0.0938	0.0052	16.2
-0.0105	0.018	-0.0908	0.003	15.8
-0.0053	0.0022	-0.0593	-0.0015	16.1
-0.0143	0.0045	-0.0346	-0.0015	16
-0.0218	0.0022	-0.0368	-0.0038	16
-0.0203	0.0127	-0.0338	-0.003	15.8
-0.0113	0.0082	-0.0195	-0.0015	16
0.0007	-0.0091	-0.0308	-0.0038	15.9
0.0052	-0.003	-0.0323	-0.0015	16
0.015	-0.0046	-0.0256	0.0007	16.1
0.0165	-0.003	-0.0195	0.0007	15.9
0.0075	0.003	-0.012	0.0045	16.1
-0.0008	0.0037	-0.012	0.0037	16.1
-0.012	-0.0015	0.0015	0.0007	16.1
-0.027	-0.003	0.0187	0.0007	16.2
-0.0315	-0.0015	0.0277	-0.0015	16
-0.0158	0.0007	0.024	-0.003	16.1
-0.0008	0.0007	0.024	-0.003	16.2
0.0075	-0.0046	0.0225	-0.0053	16.1
0.0157	-0.0046	0.0105	-0.0053	16.2
0.0202	-0.0038	-0.0008	-0.0038	16.1
0.0217	-0.0008	-0.0038	-0.0008	16.2
0.0255	-0.0015	0.0037	-0.0008	15.9
0.0217	-0.0046	0.0105	-0.0015	16.3
-0.0008	-0.006	0.0225	-0.0023	16
-0.006	-0.0083	0.033	-0.0015	16.2
0.0045	-0.0023	0.039	0.003	16.1
0.0082	0.0007	0.045	0.0067	16.2
0.003	0.0007	0.0427	0.0052	16.1
-0.0053	0.0022	0.0345	0.0022	16.2
-0.0091	0.0037	0.03	0.0045	16.2
-0.0083	0.0022	0.0247	0.0037	16.2
-0.0075	-0.0008	0.0052	0	16.2
-0.012	-0.0053	-0.0091	-0.0015	16.2
-0.0091	-0.0075	-0.0195	-0.003	16.1
-0.003	-0.0053	-0.0375	-0.0046	16.1
-0.003	-0.0068	-0.0525	-0.0046	15.9
0.0015	-0.0053	-0.0578	-0.0053	16.2
0.0105	0.0007	-0.0585	-0.0046	15.9
0.0202	0.0045	-0.0495	-0.003	16.2
0.0292	0.0045	-0.0248	-0.0008	16.1
0.0315	0.0067	-0.0068	0	16.3
0.0225	0.0052	0.0157	-0.0015	16.3
-0.0023	0.0082	0.0502	0.0007	16.1
-0.015	0.012	0.0862	0.0015	16.2
-0.006	0.0052	0.0937	-0.0053	16.2
0.0045	-0.003	0.0645	-0.0038	16.2
0.0045	-0.0083	0.0382	-0.0008	16.3
-0.0008	-0.0083	0.0202	-0.0038	16.2
-0.0046	-0.0068	0.0097	-0.0015	16.2
0.0015	-0.0046	-0.003	-0.0046	16.1
0.0165	-0.0008	-0.0225	-0.003	16.2
0.009	0.009	-0.0256	0.0037	16.2
-0.0181	0.0067	-0.0233	0.0015	16.3
-0.0278	0.0007	-0.0256	0	16.3
-0.0225	0.0015	-0.0338	0.0007	16.1
-0.0188	0.0007	-0.0256	0	16.3
-0.0105	0.0015	-0.0293	0	16.1
-0.0023	0.0015	-0.0398	-0.003	16.4
0.0075	0.003	-0.039	-0.0023	16.2
0.0247	-0.0053	-0.0398	-0.0038	16.2
0.0382	-0.0105	-0.0278	-0.003	16.2
0.0382	-0.0008	-0.0195	0.0015	16.2
0.0165	0.0045	0.0015	0.003	16.2
-0.0053	0.0075	0.0442	0.0067	16.4
-0.0158	0.0067	0.0652	0.0045	16.4
-0.0165	-0.0015	0.0645	-0.0038	16.3
-0.0015	-0.0105	0.0502	-0.0083	16.3
0.0195	-0.021	0.0105	-0.0091	16.4
0.0405	-0.0143	-0.0293	-0.0023	16.2
0.0427	0.0075	-0.0495	0.0052	16.4
0.0157	0.0052	-0.0465	0.0082	16.3
-0.0181	-0.0015	-0.033	0.009	16.5
-0.0263	0.0052	-0.0203	0.0067	16.2
-0.0218	0.0127	-0.0068	0.0045	16.5
-0.0165	0.0105	0.0007	0.0007	16.3
-0.0053	-0.003	0.012	-0.0053	16.4
0.0037	-0.0068	0.0075	-0.0091	16.5
0.0165	-0.0113	0.0007	-0.0105	16.5
0.0195	-0.0105	0.003	-0.0083	16.4
0.015	-0.0038	-0.003	-0.0023	16.5
0.0045	-0.0068	0.0082	-0.0008	16.4
-0.0091	-0.006	0.0172	0.0015	16.6
-0.0128	0	0.015	0.0052	16.4
-0.0098	0.0082	0.0217	0.0082	16.6
-0.0053	0.018	0.0225	0.0075	16.4
0.003	0.0127	0.009	0.0007	16.5
0.0142	-0.0053	-0.0053	-0.0046	16.4
0.0202	-0.0105	-0.024	-0.0046	16.5
0.0247	-0.0113	-0.0465	-0.0046	16.5
0.0247	-0.0105	-0.0675	-0.003	16.3
0.0172	-0.003	-0.0533	-0.0023	16.6
-0.003	-0.0015	0.0532	-0.003	16.5
-0.0091	0.0022	0.1522	-0.003	16.5
-0.0091	0.0015	0.1012	-0.003	16.4
-0.0098	-0.006	0.0022	-0.0053	16.2
-0.0015	-0.0038	-0.0668	-0.0046	16.6
-0.0068	0.003	-0.1215	0.0007	16.4
-0.0158	0.0045	-0.1275	0.0037	16.6
-0.0128	-0.0008	-0.0968	0.0015	16.5
-0.0015	-0.0008	-0.0278	0.003	16.4
0.015	-0.003	0.0255	0.0052	16.6
0.0367	-0.0053	0.0502	0	16.5
0.054	-0.0046	0.075	-0.0015	16.7
0.0367	-0.0038	0.09	0	16.3
-0.0046	0.003	0.0472	0.0015	16.6
-0.0203	0.006	-0.012	0.0015	16.5
-0.0158	0.0052	0.0045	0	16.6
-0.0091	0.0067	0.0585	-0.0015	16.6
-0.0075	0.0075	0.0975	-0.0046	16.6
-0.0023	0.0007	0.0622	-0.0053	16.5
0.0007	-0.006	0.0097	-0.006	16.6
-0.0038	-0.0053	-0.015	-0.0046	16.4
-0.0046	-0.0008	-0.0503	-0.0023	16.6
-0.012	0.003	-0.048	0.0007	16.4
-0.0091	0.0015	-0.0518	0.0015	16.7
0.0037	0	-0.054	0.0007	16.5
0.0045	-0.0015	-0.0443	0	16.6
0.0067	0.0007	-0.0263	-0.0008	16.5
0.006	0.0007	-0.0091	-0.003	16.6
0.0037	-0.0046	-0.006	-0.003	16.6
0.003	-0.006	0.0165	-0.0015	16.5
-0.0023	-0.0038	0.0195	-0.0008	16.6
-0.006	0.0007	0.021	0.0015	16.5
-0.0053	-0.0015	0.0202	0	16.6
-0.0046	-0.0053	0.018	-0.0008	16.7
-0.0091	-0.0046	0.027	-0.0008	16.6
-0.012	-0.0008	0.0285	-0.0008	16.7
-0.003	-0.0015	0.0315	-0.003	16.5
0.0082	-0.003	0.0165	-0.0046	16.7
0.015	-0.0038	0.006	-0.0038	16.6
0.021	-0.0046	0.003	-0.0023	16.7
0.0165	-0.0015	0.0015	-0.0015	16.6
0.012	0	0.0067	-0.0008	16.6
0.0052	0.0067	0.0067	0.0007	16.6
-0.0091	0.0082	0.0015	0.0022	16.6
-0.0128	0.0052	-0.012	0.0015	16.6
-0.0083	0.0045	-0.0165	0.0007	16.6
-0.0053	0.0007	-0.0203	-0.0008	16.7
-0.006	0.0007	-0.0188	-0.0008	16.6
-0.0083	-0.003	-0.0143	0.0007	16.6
-0.0083	-0.0046	-0.0128	-0.0015	16.7
0.0045	-0.0015	0.0015	-0.0046	16.6
0.0172	-0.0038	0.0015	-0.003	16.6
0.0165	-0.003	-0.0203	-0.003	16.6
-0.0008	0.0007	-0.0256	0.0015	16.6
-0.0105	0.0097	-0.027	0.0037	16.5
0.0045	0.0082	-0.021	0.0007	16.6
0.0217	-0.0038	-0.0083	-0.0015	16.7
0.0442	-0.0091	0.0127	-0.0046	16.6
0.0532	-0.012	0.0292	-0.003	16.7
0.0157	-0.0008	0.0232	0.006	16.6
-0.0195	0.015	0.0255	0.0112	16.7
-0.0346	0.0135	0.0315	0.0082	16.7
-0.0353	0.0075	0.0307	0.0052	16.7
-0.0233	0.006	0.0195	0.0007	17
-0.0203	0.0067	-0.0075	-0.0023	16.7
-0.0158	0.006	-0.0315	-0.0038	16.6
-0.0143	0.0022	-0.0525	-0.006	16.6
-0.0105	-0.003	-0.0533	-0.006	16.6
-0.0068	-0.006	-0.0436	-0.0083	16.9
-0.0015	-0.012	-0.0285	-0.0105	16.5
0.006	-0.0195	0.0015	-0.0098	16.7
0.0217	-0.021	0.0382	-0.0068	16.6
0.0382	-0.0173	0.0405	-0.0008	16.8
0.0315	-0.0068	0.0307	0.0052	16.8
0.027	-0.0053	0.0277	0.009	16.8
0.0127	-0.0015	0.0075	0.0157	16.9
-0.0256	0.0142	-0.0113	0.0172	16.6
-0.0533	0.0112	-0.0143	0.0127	16.8
-0.0495	0.0067	0.0112	0.0082	16.7
-0.0293	0.0067	0.0217	0.0022	16.9
-0.0135	0.003	0.003	-0.0046	16.8
-0.0046	0.003	-0.0128	-0.006	16.7
-0.003	-0.003	-0.0128	-0.0075	16.8
0.0052	-0.0083	-0.0046	-0.0083	16.7
0.0247	-0.0046	-0.0083	-0.006	16.8
0.0592	0.0037	-0.0046	-0.0046	16.7
0.063	-0.0046	-0.0038	-0.003	16.7
0.0217	-0.0038	0.0045	0.0015	16.9
-0.0083	0.0022	0.012	0.003	16.7
-0.0173	0.0067	0.0015	0.0007	17
-0.0158	0.018	-0.012	0.0007	16.7
-0.0091	0.009	-0.024	-0.0015	17
-0.0195	0.003	-0.0158	-0.0038	16.8
-0.0248	-0.003	-0.0083	-0.006	16.9
-0.0068	-0.0113	-0.0203	-0.0091	16.9
0.027	-0.015	-0.0105	-0.0098	16.9
0.0577	-0.0181	0.0052	-0.0083	16.9
0.0735	-0.012	0.0075	-0.0046	16.9
0.0862	-0.0068	0.0157	0.003	16.9
0.0907	0.0007	0.0247	0.0135	17.1
0.054	0.0105	0.0202	0.018	16.9
0.0052	0.0165	0.009	0.018	17.1
-0.0105	0.0142	0.0225	0.012	17
-0.0053	0.0052	0.0315	0.0022	17
-0.0083	0.0007	0.0225	-0.0038	16.8
-0.0188	-0.0015	0.018	-0.0053	17.1
-0.021	-0.0046	0.0142	-0.0046	17
-0.0278	-0.0053	-0.0008	-0.0046	16.9
-0.033	-0.003	-0.0248	-0.0015	16.8
-0.0353	0.003	-0.0465	0.0007	16.9
-0.0233	0.0052	-0.048	-0.0023	17
-0.0046	0.003	0.0007	-0.003	16.9
0.0195	-0.0008	0.051	-0.0053	16.9
0.0427	-0.006	0.0712	-0.0075	17
0.051	-0.0098	0.0367	-0.0075	17
0.0495	-0.0068	-0.042	-0.0023	17
0.0457	-0.0083	-0.0765	0.0007	16.8
0.0315	-0.0158	-0.0818	0.0015	17.1
-0.0083	-0.0128	-0.0615	0.006	16.7
-0.0436	-0.0015	-0.063	0.009	17
-0.0548	-0.0015	-0.063	0.0045	16.8
-0.0383	-0.0008	-0.0053	-0.0015	17
-0.021	0.0067	0.048	-0.003	17.1
-0.0165	0.0052	0.0405	-0.0046	17
-0.0075	0	-0.0098	-0.0046	17
0.0007	-0.0008	-0.015	-0.0015	17
0.0022	0.0007	-0.0165	-0.003	17
-0.0023	0.0075	-0.0143	-0.003	16.9
-0.0053	0.009	0.0015	-0.0023	17.1
-0.003	0.0045	0.024	-0.0046	17
0.009	-0.0008	0.0727	-0.0053	17
0.0277	0.0022	0.1162	-0.0046	17
0.0202	0.0082	0.1425	-0.003	17.1
-0.0068	0.0015	0.1102	-0.0023	17.1
-0.0158	-0.0046	0.0637	-0.003	16.9
-0.006	-0.0083	0.018	-0.003	16.9
-0.0008	-0.006	-0.0203	0.0007	17.1
0.0037	0	-0.0368	0.0022	16.8
0.0075	-0.003	-0.0645	0.003	17
-0.0046	-0.0015	-0.0675	0.0037	16.9
-0.0075	0.0015	-0.0668	0.0007	17
-0.003	0.0052	-0.0593	-0.0008	17
-0.0023	-0.0046	-0.0436	-0.0053	17
0.0037	-0.0128	-0.0285	-0.0083	17
0.0157	-0.0091	-0.0135	-0.0068	16.8
0.015	-0.0083	-0.003	-0.0038	17
0.0037	0.0015	0.015	-0.0008	17
0.006	0.0105	0.018	0	17
0.0097	0.009	0.0142	0.0037	17
0.0105	0.0037	0.0105	0.0067	16.8
0.0052	0.0015	0.0187	0.0052	17.2
0.003	0.003	0.03	0.003	16.9
0.0015	0.003	0.0307	-0.0008	17.1
-0.003	0.0045	0.0285	-0.0023	16.9
-0.0053	0.003	0.0112	-0.003	16.9
-0.0091	0.003	-0.0075	-0.0008	17
-0.0098	0.0007	-0.0165	-0.0008	16.9
-0.0105	-0.0046	-0.0098	-0.0053	17
-0.003	-0.0091	0.0165	-0.0083	16.9
-0.0015	-0.012	0.039	-0.0075	17
-0.0046	-0.0143	0.0232	-0.0038	17
-0.0053	-0.0075	-0.0008	0.0007	17
-0.0173	0.0007	-0.0091	0.003	16.8
-0.033	-0.003	-0.0293	0.0045	16.9
-0.0443	-0.0023	-0.0315	0.0015	16.8
-0.0405	-0.003	-0.0315	-0.0008	16.7
-0.0256	-0.0098	-0.033	-0.003	17
-0.015	-0.0083	-0.0293	0	16.9
-0.0023	-0.0023	-0.0308	0.0022	16.9
0.009	-0.0015	-0.0256	0.0007	16.9
0.0217	-0.0046	-0.0225	-0.0046	16.8
0.0427	0.003	-0.0158	-0.0015	17
0.0435	0.0195	-0.0091	0.0037	16.9
0.0172	0.018	-0.012	0.0052	17
-0.0015	0.012	-0.0113	0.0052	16.9
-0.0165	0.009	-0.0008	-0.0008	17.1
-0.0188	0.0045	0.0255	-0.0023	16.9
-0.0195	0.0045	0.0487	-0.0008	17
-0.027	0.003	0.0562	0	17
-0.0293	0.003	0.0502	-0.0008	17
-0.0203	-0.0015	0.0292	-0.003	17
0.0022	-0.0068	0.0052	-0.003	17
0.0157	-0.0068	-0.0105	-0.0053	16.7
0.012	-0.0105	-0.0285	-0.0053	17
0.0082	-0.0128	-0.0375	-0.0083	16.9
0.0225	-0.0195	-0.0465	-0.012	17
0.0412	-0.0195	-0.063	-0.0083	16.8
0.0615	-0.006	-0.0563	-0.0015	17
0.0532	0.003	-0.0203	0.0052	17
0.0097	0.0015	0.0202	0.0097	17
-0.0068	0.0015	0.06	0.0105	16.9
-0.0068	0.0052	0.1042	0.0067	17
0.0045	0.006	0.117	0.0045	17
0.0292	0.0157	0.1042	0.0067	16.8
0.0345	0.012	0.0652	0.0067	16.9
0.018	0.0015	0.0187	0.006	17
-0.0023	0.0015	-0.0091	0.003	16.9
-0.0143	0	-0.033	0.0007	17
-0.0135	0.0015	-0.048	0	17
-0.0083	0.003	-0.0593	-0.0008	16.9
-0.0068	0.0037	-0.0548	-0.0046	16.8
-0.0053	0.0022	-0.0503	-0.006	17
-0.0053	-0.0038	-0.0263	-0.006	16.9
0.0015	-0.0053	0.0442	-0.0075	17
0.0127	-0.0083	0.105	-0.0091	17
0.0157	-0.0091	0.114	-0.0075	16.8
0.0135	-0.0053	0.1042	-0.0023	17
0.0127	0.0007	0.069	-0.0008	16.8
0.0052	-0.0008	-0.0128	-0.0015	17
0.003	-0.0008	-0.0833	0.0015	17
0.009	0.0105	-0.1275	0.0037	16.9
0.0015	0.009	-0.15	0.003	17
-0.0091	0.0052	-0.1388	0.0037	16.8
-0.0113	0.0105	-0.114	0.0015	16.9
-0.0113	0.009	-0.1058	-0.0008	16.9
-0.0075	0.0045	-0.078	-0.0008	16.9
-0.0038	-0.0015	-0.033	-0.0046	17
-0.0008	-0.0098	-0.0046	-0.0083	16.9
0.0135	-0.0068	0.0345	-0.0046	17
0.0345	0.0007	0.0652	-0.0023	16.8
0.042	-0.0075	0.1027	-0.0038	17.1
0.0442	-0.0158	0.1215	-0.003	16.8
0.033	-0.0105	0.0915	-0.0015	17
0.018	-0.0091	0.0465	-0.0023	16.8
0.0202	-0.0113	-0.0173	-0.0015	17
0.0105	-0.006	-0.0706	0.0037	17
-0.0091	0.0015	-0.0788	0.0075	17
-0.0256	0.009	-0.0315	0.0067	17
-0.03	0.0127	0.0105	0.0022	17
-0.0181	0.0045	0.042	-0.003	17
-0.003	0.0022	0.0742	-0.0068	17
0.0105	0.0015	0.0667	-0.0068	16.8
0.0157	-0.0015	0.0495	-0.0046	17
0.0165	-0.0038	0.0202	-0.0038	17
0.0135	-0.0113	-0.0068	-0.0023	16.9
0.0075	-0.0105	-0.0165	0.003	17
0.0045	-0.0091	-0.0195	0.0037	16.9
-0.012	-0.006	-0.0053	0.0052	17
-0.0203	0	0.0052	0.0037	16.8
-0.0181	-0.0015	0.0105	-0.0008	17
-0.0203	-0.0008	0.0172	-0.0015	17
-0.0091	-0.0046	0.0067	-0.0075	17
0.0082	-0.0068	-0.0248	-0.0083	17
0.0225	-0.0068	-0.0233	-0.0091	17
0.0127	-0.0098	0.0292	-0.0105	17.1
-0.0091	-0.0046	0.0517	-0.0053	16.8
-0.0233	0.0007	0.0465	-0.0008	16.9
-0.0218	0.0045	0.048	0.0007	16.9
-0.0008	0.0007	0.0157	-0.003	16.9
0.0195	-0.0008	-0.0315	-0.0046	17
0.0195	0.0112	-0.0638	-0.0023	16.8
0.0082	0.012	-0.0765	0.0015	17.1
0.0007	0.0067	-0.0878	0.003	16.7
-0.0135	0.0067	-0.0975	0.003	17
-0.0143	0.0037	-0.0735	0.0045	16.7
-0.0038	0.003	-0.0315	0.0022	17.1
-0.0075	0.003	0.0105	-0.0015	17
-0.0091	0.0007	0.0352	-0.0046	17.1
-0.0053	0.0045	0.039	-0.003	16.9
0.0045	0.0052	0.0217	-0.0008	16.9
0.0135	0.0045	0.009	0	17
0.006	0.0007	0.0195	-0.003	16.9
0.0052	-0.0053	0.012	-0.0068	16.9
0.0157	-0.0075	-0.003	-0.003	16.9
0.0187	-0.0015	-0.0113	0.0037	16.8
0.0202	-0.0015	0.0082	0.0052	16.9
0.0202	-0.003	0.042	0.0067	16.8
0.0142	-0.0053	0.0292	0.0052	16.9
0.0127	-0.0091	0.0022	0.0045	16.8
0.0172	-0.0038	0.0067	0.0067	16.8
0.0195	0.0045	0.0367	0.0067	17
0.006	0.0075	0.0637	0.0067	16.9
-0.012	0.0045	0.0795	0.0082	16.7
-0.0278	0.0015	0.0547	0.003	16.9
-0.0368	-0.0008	0.0015	-0.006	16.8
-0.0368	-0.006	-0.03	-0.0128	16.8
-0.033	-0.0046	-0.024	-0.0143	16.7
-0.0233	-0.003	0.054	-0.0091	17
-0.0165	0	0.0802	-0.0008	16.8
-0.012	0.0097	0.0457	0.003	17
-0.003	0.012	0.0382	0.003	16.8
0.0105	0.003	-0.0128	-0.0008	16.7
0.0232	0.0022	-0.06	-0.003	16.8
0.015	0.0045	-0.0915	-0.0015	16.8
0.0015	0.0007	-0.1253	0.0015	16.9
-0.0068	-0.003	-0.1155	-0.0015	16.8
0.0067	-0.012	-0.0863	-0.0046	16.9
0.021	-0.0075	-0.054	0.0022	16.7
0.009	0.0022	-0.024	0.0067	16.8
0.0007	0.003	0.0007	0.0067	16.8
-0.0015	0.0052	-0.0128	0.0067	16.7
-0.0068	0.0067	-0.0038	0.003	16.8
-0.0098	0.0052	0.0322	0.003	16.7
-0.0256	0.0015	0.024	0.003	16.9
-0.0361	-0.0008	0.0232	0.0015	16.7
-0.0143	-0.003	0.0315	-0.0046	16.9
0.009	-0.006	0.0292	-0.0105	16.7
0.015	-0.0113	0.0067	-0.0188	16.7
0.0232	-0.0135	-0.0368	-0.0181	16.9
0.0292	-0.0098	-0.0675	-0.012	16.7
0.0255	-0.0046	-0.09	-0.0046	16.7
0.0165	0.0015	-0.078	0.003	16.7
0.0187	-0.0015	-0.0308	0.006	17
0.012	-0.0008	0.012	0.0105	16.8
-0.0053	0.0007	0.0495	0.0082	16.8
-0.0068	-0.0038	0.0427	0.003	16.9
-0.0038	-0.003	0.024	0.0037	17
0.012	-0.0046	0.0375	0.0007	17
0.0232	-0.0068	0.015	0.0022	16.8
0.018	-0.003	-0.0015	0.0082	16.7
0.009	0.0112	0.0052	0.012	17
0.0097	0.0195	0.0532	0.0105	16.6
0.0255	0.0082	0.1035	0.0067	16.9
0.0165	-0.003	0.0855	0.009	16.6
-0.0023	-0.0075	0.0652	0.0082	16.9
-0.0068	-0.0098	0.0495	0.003	16.9
-0.0128	-0.0128	0.018	-0.006	16.7
-0.0256	-0.0105	0.0142	-0.0143	16.7
-0.03	-0.0008	0.039	-0.0195	16.7
-0.0203	0.003	0.063	-0.0181	16.9
-0.0113	0.0037	0.0622	-0.015	16.6
0.0007	0.0015	0.009	-0.0181	16.7
0.0217	-0.0068	-0.0593	-0.0195	16.7
0.0337	-0.0046	-0.084	-0.0135	16.7
0.0172	0.0007	-0.0923	-0.0046	16.7
-0.0015	0.0052	-0.0525	0.0052	16.7
-0.0083	0.0067	0.0097	0.015	16.8
-0.0128	0.009	0.006	0.0127	16.7
-0.0046	0.0052	-0.0113	-0.0068	16.7
0.0127	-0.003	-0.0413	-0.0256	16.7
0.0292	0.0015	-0.06	-0.0256	16.6
0.0367	0.0075	-0.0743	-0.0105	16.8
0.0277	-0.0046	-0.0863	0.0015	16.7
0.0157	-0.0091	-0.0458	0.0097	16.7
-0.0053	-0.0008	-0.0158	0.0045	16.7
-0.0113	-0.0053	0.012	-0.015	16.7
-0.0083	-0.0046	0.0195	-0.0195	16.6
-0.0046	0	-0.0046	-0.0046	16.6
0.0015	-0.003	-0.0053	0.0232	16.7
-0.0188	-0.0075	0.0255	0.054	16.7
-0.0263	-0.0068	0.0825	0.057	16.7
-0.0053	-0.0075	0.1395	0.0337	16.7
0.024	-0.0091	0.2317	0.0022	16.7
0.0277	-0.0046	0.258	-0.0248	16.8
0	-0.0015	0.1485	-0.0098	16.6
-0.0233	0.0105	0.0555	0.0292	16.8
-0.03	0.015	-0.0443	0.0262	16.6
-0.0105	0.009	-0.126	0.0015	16.8
0.0007	0.009	-0.1455	-0.0128	16.6
0.0067	0.0075	-0.1741	-0.021	16.8
0.0195	0.0082	-0.1785	-0.0068	16.7
0.015	0.003	-0.1478	0.0105	16.6
0.018	-0.0038	-0.1125	0.0142	16.7
0.0345	-0.0015	-0.0856	0.0112	16.7
0.0465	0	-0.0053	0.0082	16.6
0.0292	-0.003	0.0877	0.009	16.9
0.0067	-0.0015	0.114	-0.0046	16.6
0.0015	0.0037	0.0772	-0.0278	16.8
-0.0015	0.0015	0.027	-0.039	16.5
-0.003	-0.0008	-0.027	-0.0413	16.7
-0.0083	-0.006	-0.0953	-0.0443	16.6
-0.0091	-0.006	-0.1185	-0.0375	16.8
-0.0218	0.003	-0.1013	-0.021	16.5
-0.039	0.006	-0.0615	-0.0165	16.7
-0.0383	0.0067	-0.0165	-0.0218	16.6
-0.0233	0.003	0.0585	0.0022	16.7
-0.0098	-0.0015	0.1485	0.0202	16.7
-0.0083	-0.0083	0.1875	0.0157	16.5
-0.0083	-0.0068	0.1672	0.018	16.8
-0.0128	-0.0038	0.102	-0.0038	16.6
-0.0165	-0.0068	0.057	-0.0308	16.8
-0.015	-0.0053	0.0217	-0.0293	16.5
-0.0128	-0.0038	-0.0293	-0.0195	16.5
-0.0068	-0.0046	-0.0653	-0.0083	16.7
0.015	-0.0068	-0.1155	-0.0053	16.5
0.0532	-0.0083	-0.1538	-0.003	16.7
0.0637	-0.0008	-0.1463	0.0112	16.7
0.0442	0.0022	-0.117	0.0292	16.6
0.027	-0.003	-0.0361	0.0427	16.7
0.0067	0.003	0.033	0.0442	16.6
0.006	0.0052	0.06	0.0292	16.7
0.0255	0.0015	0.0787	0.012	16.6
0.03	0.006	0.063	0.003	16.5
0.0202	0.0157	0.0502	0.0052	16.6
0.0022	0.018	0.0487	0.0082	16.7
-0.0195	0.0112	0.0502	0.0112	16.7
-0.0361	0.0067	0.0307	0.0232	16.6
-0.0308	0.0007	0.006	0.0315	16.7
-0.0128	-0.0046	0.0127	0.0195	16.7
0.0007	-0.0083	0.0292	0.0045	16.6
0.0037	-0.0158	0.0705	-0.0023	16.7
-0.0046	-0.0165	0.114	-0.0015	16.5
-0.0113	-0.0181	0.0952	-0.0008	16.7
-0.0218	-0.0173	0.0127	-0.015	16.5
-0.0158	-0.0135	-0.0615	-0.0165	16.6
0.0067	-0.003	-0.105	-0.0091	16.4
0.0135	0.0022	-0.1245	-0.0098	16.6
0.0007	0	-0.1021	-0.0165	16.5
-0.0105	0.0022	-0.0825	-0.0278	16.5
-0.0083	0.0015	-0.0788	-0.0195	16.6
-0.0053	0.0015	-0.078	0.0105	16.5
-0.0143	0.0082	-0.0638	0.0405	16.7
-0.0098	0.003	-0.027	0.048	16.5
0.0142	-0.0046	0.0082	0.033	16.6
0.0232	-0.003	0.0277	0.015	16.6
0.0232	0.0007	0.0532	-0.0091	16.6
0.0315	0.0045	0.063	-0.0338	16.6
0.0382	0.0082	0.0937	-0.0525	16.5
0.0225	0.0007	0.129	-0.06	16.6
-0.0023	0.003	0.0787	-0.048	16.5
-0.0143	0.009	0.0157	-0.0248	16.4
-0.0195	-0.006	-0.033	-0.0053	16.6
-0.0098	-0.0113	-0.0578	0.0075	16.2
0.0045	-0.0091	-0.0653	-0.003	16.6
0.0142	-0.0128	-0.0623	-0.0135	16.5
0.0202	-0.0128	-0.0203	0.0007	16.6
0.0217	-0.0091	0	0.0202	16.4
0.0052	0.0037	0.0202	0.0292	16.4
-0.0233	0.0112	0.057	0.024	16.5
-0.0443	0.0157	0.102	0.0135	16.5
-0.0405	0.0157	0.1305	0.0007	16.5
-0.0181	0.009	0.0855	-0.0143	16.5
0.0022	0.003	0.0105	-0.0338	16.4
0.0232	0	-0.054	-0.0383	16.6
0.0232	0.003	-0.0818	-0.0091	16.5
0.0217	0.003	-0.0833	0.0195	16.6
0.0232	0.0052	-0.1021	0.0172	16.4
0.0127	0.0067	-0.108	-0.0053	16.6
-0.0046	0.0045	-0.111	-0.0015	16.3
-0.0181	0.012	-0.0848	0.0112	16.6
-0.0181	0.0015	-0.0361	0.0067	16.5
-0.0158	-0.0053	0.03	0.0067	16.4
-0.0165	-0.003	0.1012	0.0142	16.4
-0.0158	-0.0075	0.0787	0.033	16.5
-0.0075	-0.003	0.063	0.033	16.5
-0.0023	-0.0038	0.048	0.0097	16.4
0.006	-0.003	0.036	-0.0015	16.6
0.0105	-0.0015	0.099	-0.0105	16.6
0.0075	-0.0105	0.0712	0	16.4
0.0075	-0.0143	0.045	0.0142	16.6
0.009	-0.0135	0.048	0.0105	16.5
0.0247	-0.0113	-0.003	0.0052	16.4
0.03	-0.0038	-0.003	-0.0046	16.5
0.018	0	-0.0075	-0.0143	16.4
-0.0038	0.0007	-0.0195	-0.0173	16.6
-0.0158	0.0052	-0.0405	-0.0083	16.2
-0.0053	0.006	-0.0773	-0.0091	16.7
0.0007	0.0045	-0.066	-0.0173	16.3
0.0082	0.0067	0.003	-0.012	16.6
0.0157	0.0067	0.0952	-0.0098	16.4
0.0037	0.003	0.1387	-0.0248	16.4
-0.003	0.0067	0.0967	-0.0346	16.7
0.0015	0.0195	-0.0008	-0.0053	16.4
0.0045	0.024	-0.0713	0.0307	16.5
0.0082	0.0105	-0.1426	0.039	16.5
0.0195	-0.0068	-0.159	0.0367	16.3
0.024	-0.024	-0.1245	0.0255	16.4
0.009	-0.0323	-0.1006	0.0232	16.6
-0.0046	-0.033	-0.0488	0.0262	16.5
-0.0113	-0.0308	0.0105	0.0217	16.3
-0.0143	-0.027	0.093	0.0067	16.7
0.0015	-0.0256	0.1222	-0.0038	16.4
0.0142	-0.0143	0.0682	-0.003	16.6
0.015	-0.003	0.0045	-0.0218	16.5
0.006	0.009	-0.0473	-0.042	16.6
0.0082	0.0225	-0.093	-0.0555	16.4
0.015	0.0262	-0.1028	-0.0653	16.5
0.006	0.0247	-0.078	-0.0728	16.4
-0.0015	0.015	-0.0728	-0.0893	16.4
-0.0046	0.0112	-0.0691	-0.0848	16.4
-0.0046	0.012	-0.0443	-0.0465	16.6
-0.0083	0.0112	-0.0068	-0.0015	16.4
-0.0068	0.0075	0.0105	0.0367	16.5
0.0015	0.0015	0.0465	0.0652	16.4
0.0127	-0.003	0.114	0.0697	16.6
0.0232	-0.0046	0.153	0.057	16.6
0.0142	-0.0015	0.1522	0.0435	16.4
-0.0068	-0.003	0.1125	0.036	16.6
-0.0128	-0.003	0.066	0.0277	16.4
-0.012	-0.0015	0.0405	0.0052	16.6
-0.012	0.0007	0.0315	-0.0068	16.4
0.0082	-0.0023	0.0082	0.0007	16.5
0.0127	-0.0075	-0.0338	0.0052	16.5
0.0105	-0.0053	-0.0225	0.009	16.5
0.0127	0.0037	0.0255	0.006	16.6
0.0082	-0.0008	0.0225	-0.0105	16.5
0.012	-0.015	-0.0046	-0.0256	16.7
0.009	-0.0105	-0.0181	-0.0181	16.4
-0.0091	-0.0053	-0.0428	-0.0075	16.6
-0.0143	-0.0008	-0.0458	-0.0173	16.4
-0.0135	-0.003	-0.0233	-0.027	16.6
-0.0158	-0.012	0.0217	-0.0195	16.7
0.0022	-0.0128	0.063	-0.0091	16.4
0.0045	-0.0098	0.027	0.0112	16.6
-0.0053	-0.0015	-0.0181	0.0367	16.5
-0.0143	0.0082	-0.0443	0.048	16.7
-0.0248	0.009	-0.084	0.0322	16.5
-0.0181	-0.003	-0.0893	0.0082	16.6
-0.003	-0.0091	-0.0871	0	16.5
0.0135	-0.0053	-0.0795	-0.0113	16.5
0.009	-0.003	-0.0593	-0.0181	16.5
0	-0.0015	-0.0503	-0.024	16.4
-0.0053	0.0015	-0.0053	-0.027	16.6
-0.0038	0.0105	0.0367	-0.0053	16.6
0.0135	0.0217	0.0285	0.0067	16.6
0.033	0.024	0.0097	-0.0083	16.7
0.0525	0.0157	-0.0053	0.0067	16.6
0.051	0.0135	-0.0105	0.0457	16.6
0.018	0.0165	-0.0105	0.0607	16.5
0.0037	0.0105	-0.0165	0.0457	16.6
0.0165	0.0007	-0.012	0.0105	16.6
0.033	-0.006	-0.0083	-0.0113	16.6
0.042	-0.0068	-0.0105	-0.0233	16.6
0.0202	-0.006	0.024	-0.0443	16.7
-0.0083	-0.0038	0.1035	-0.0563	16.7
-0.0203	-0.0053	0.1642	-0.0518	16.7
-0.0308	-0.0083	0.159	-0.0218	16.6
-0.048	-0.0083	0.1387	0.0082	16.7
-0.0555	-0.0046	0.1215	0.018	16.6
-0.0458	-0.0023	0.0787	0.0165	16.8
-0.0346	-0.0165	-0.0091	-0.0015	16.5
-0.024	-0.0203	-0.0863	-0.0046	16.7
-0.0135	-0.0143	-0.0878	0.0112	16.5
-0.0113	-0.0105	-0.0743	-0.0015	16.7
-0.0068	-0.0143	-0.063	-0.0405	16.6
-0.003	-0.0143	-0.0735	-0.042	16.6
-0.0105	-0.0038	-0.0563	0.0105	16.7
-0.0091	-0.003	0.0105	0.0592	16.6
0.0037	-0.0015	0.0337	0.081	16.6
0.0217	0.0007	0.0465	0.057	16.6
0.0465	0.0097	0.0855	0.0247	16.8
0.048	0.0202	0.1215	0.0262	16.7
0.0322	0.012	0.06	0.0067	16.6
0.0165	0.0082	-0.0218	-0.0181	16.7
0.003	0.0127	-0.0645	-0.0315	16.6
-0.0143	0.0105	-0.1155	-0.0548	16.6
-0.021	0.0067	-0.0915	-0.0563	16.5
0.0037	0.003	-0.0465	-0.0495	16.7
0.0202	0.003	-0.0203	-0.0361	16.6
0.0217	0.0067	0.021	-0.021	16.7
0.0157	0.0037	0.0757	-0.015	16.6
0.0112	-0.0008	0.0892	0.0082	16.6
0.0105	-0.0008	0.0412	0.024	16.7
0.009	-0.0046	0.018	0.018	16.5
0.009	-0.0083	-0.03	0.0105	16.6
0.003	-0.0068	-0.099	0.0075	16.5
0.0007	-0.0023	-0.1118	0.0127	16.6
-0.0143	0.0022	-0.0893	0.0217	16.6
-0.0405	0.003	-0.0518	0.0165	16.6
-0.039	0.003	-0.0233	0.0015	16.6
-0.0195	-0.0023	0.0142	-0.0128	16.6
-0.0046	-0.0075	0.027	-0.0285	16.6
-0.0023	-0.0068	-0.006	-0.0346	16.6
-0.0015	-0.0098	-0.0195	-0.0225	16.4
0.0067	-0.0091	-0.0233	-0.012	16.6
0.0045	-0.0075	0.0045	-0.0053	16.5
0	-0.0091	0.0967	0.0075	16.7
0.0045	-0.0158	0.156	0.0247	16.6
0.0232	-0.0181	0.1027	0.0322	16.7
0.0345	-0.0128	0.027	0.0285	16.6
0.027	-0.0091	-0.0233	0.0075	16.6
0.0142	-0.0046	-0.0555	-0.0323	16.4
0	0.0037	-0.0645	-0.0503	16.6
-0.0008	0.0225	-0.0525	-0.033	16.4
-0.0053	0.0292	-0.024	-0.0053	16.7
-0.012	0.0142	-0.0398	0.0202	16.5
-0.0181	0.012	-0.0615	0.0292	16.6
-0.021	0.0067	-0.0473	0.0127	16.4
-0.0068	-0.0015	-0.0256	-0.0098	16.6
0.006	-0.0015	-0.0173	-0.0495	16.3
0.0217	-0.0083	-0.0098	-0.078	16.6
0.018	-0.0053	0.0165	-0.0608	16.3
0.0097	-0.0008	0.0255	-0.0285	16.5
0.009	0.0015	0.0262	0.015	16.6
-0.003	0.0045	0.03	0.039	16.6
-0.0105	0.0037	0.027	0.0465	16.6
-0.0181	0.006	0.0202	0.0465	16.6
-0.0233	0.006	0.0135	0.039	16.6
-0.0256	0.003	0.0105	0.045	16.8
-0.0165	-0.0015	0.0172	0.0412	16.6
-0.003	-0.0015	0.0315	0.0307	16.5
0	-0.0046	0.0247	0.0187	16.6
0.0082	-0.0105	0.0172	0.0157	16.8
0.0202	-0.0135	0.003	0.0165	16.5
0.0255	-0.0128	-0.0308	0.015	16.6
0.0097	-0.0053	-0.0473	0.018	16.4
-0.0053	0.0022	-0.0473	0.015	16.5
0.0015	0.009	-0.0383	0.0082	16.6
0.0067	0.0097	-0.0346	-0.0046	16.5
0.003	0.0052	-0.0285	-0.0181	16.7
0.0015	0.0007	-0.012	-0.0353	16.5
0.0045	-0.0053	-0.0128	-0.0488	16.7
-0.0015	-0.0046	-0.0128	-0.033	16.5
-0.0135	-0.0008	0.003	-0.0293	16.6
-0.006	-0.003	0.0247	-0.0428	16.7
0.0045	-0.0046	0.0532	-0.0495	16.6
0.0142	-0.0046	0.063	-0.0495	16.6
0.0157	0.0015	0.0525	-0.0308	16.6
0.0202	0.0007	0.0562	-0.0023	16.7
0.0345	-0.0015	0.0442	0.0217	16.7
0.0307	0.003	0.03	0.042	16.6
0.0247	0.0082	0.042	0.0457	16.8
0.0135	0.0105	0.0375	0.0427	16.6
-0.0083	0.0052	0.012	0.0345	16.8
-0.012	0.0015	-0.012	0.0202	16.4
0.0022	0.0015	-0.0353	-0.0008	16.7
0.0067	0.0015	-0.0683	-0.0195	16.5
0.0052	-0.006	-0.0885	-0.0218	16.8
0.003	-0.0091	-0.057	-0.0143	16.6
-0.0046	-0.0038	-0.0091	0	16.9
-0.0218	0.0037	0.0157	0.0097	16.8
-0.0338	0.0052	0.0615	0.0037	16.7
-0.0203	-0.0008	0.1125	-0.0068	16.7
-0.0091	-0.0023	0.1102	-0.0113	16.7
-0.003	-0.006	0.057	-0.0128	16.9
0.003	-0.012	-0.012	-0.0143	16.6
0.0255	-0.0143	-0.0593	-0.012	16.7
0.0502	-0.0068	-0.0623	0.0007	16.7
0.042	0.0007	-0.0256	0.0067	16.7
0.0232	0.0045	0.0015	0.0105	16.9
0.0067	0.009	0.0157	0.0127	16.7
0	0.0067	0.0082	0.0082	16.8
0.006	0.0007	-0.0135	0.0082	16.7
0.006	-0.0023	-0.0015	0.0202	16.7
-0.0105	0.003	0.0007	0.0232	17
-0.0143	0	-0.015	0.012	16.8
-0.0046	-0.0083	-0.024	0.0015	16.9
0.0045	-0.0015	-0.0173	-0.0053	16.9
0.003	0.0082	0.0135	-0.012	16.9
-0.0091	0.0112	0.0315	-0.0263	17
-0.0091	0.003	0.0127	-0.0368	16.7
-0.0083	0	-0.0203	-0.027	17
-0.0053	-0.0038	-0.0443	-0.0285	16.6
-0.0008	-0.0098	-0.0518	-0.027	17
0.003	-0.0091	-0.027	-0.0083	16.7
0.0097	-0.0075	0.0007	0.0015	17
0.0105	-0.0053	-0.0225	0.009	16.7
0.0142	-0.0128	-0.0473	0.0172	16.8
0.0247	-0.0181	-0.057	0.0255	17
0.0405	-0.0068	-0.0495	0.033	16.8
0.0405	0.006	-0.0248	0.0255	17
0.0217	0.0067	0.009	0.0195	16.8
0.0007	0.0105	0.0495	0.015	16.8
-0.0068	0.015	0.0607	0.0022	16.9
0.0097	0.0127	0.0517	-0.0046	16.9
0.0157	0.018	0.0817	0.003	17
-0.0023	0.009	0.1785	0.0067	16.7
-0.0143	0.003	0.2295	0.0007	17
-0.0195	0.0052	0.1425	-0.0098	16.7
-0.0248	-0.003	0.0067	-0.0113	17
-0.0173	-0.0023	-0.1155	-0.003	16.8
-0.0008	-0.006	-0.192	0.0022	16.8
-0.0046	-0.0053	-0.2026	0.0052	17
-0.0053	-0.0038	-0.1763	-0.0038	16.9
0.0022	-0.0068	-0.1155	-0.021	17
-0.0038	-0.0046	-0.0428	-0.0158	16.9
-0.0068	-0.0046	0.0202	0.0037	17
-0.0068	-0.0015	0.0277	0.006	17
-0.0053	-0.003	-0.0195	-0.006	16.8
-0.0091	-0.0023	-0.0383	-0.021	17
-0.012	-0.0008	-0.0668	-0.024	16.8
-0.0105	0	-0.0818	-0.0105	16.9
-0.003	-0.0053	-0.057	0.0007	16.8
-0.003	-0.0046	-0.0098	0.0097	17
-0.0188	0.0007	0.0712	0.0127	17
-0.024	-0.0015	0.1297	0.0037	17
-0.0173	-0.003	0.153	-0.015	17
-0.0008	-0.0023	0.129	-0.0278	16.7
0.0195	0.0067	0.0592	-0.0248	17.2
0.0247	0.0082	0.0052	-0.0128	16.7
0.0127	-0.006	-0.0105	0.0007	17.1
-0.0046	-0.0091	0.0052	0.0075	16.9
-0.0105	-0.0098	0.0292	0.0067	17
-0.003	-0.0128	0.0367	0.0007	16.9
0.0097	-0.0098	0.0397	-0.0046	17.1
0.0127	-0.0083	0.0277	-0.0091	17
0.0082	-0.0053	0.009	-0.006	17
0.0067	-0.0008	-0.0165	0.003	17
0.0045	0.0015	-0.033	0.009	17
0.0037	0.0007	-0.0278	0.0232	17
0.0007	0.0045	-0.0368	0.0442	17
-0.0008	0.0067	-0.0315	0.051	16.8
0	0.0067	-0.0308	0.0397	17
-0.0015	0.0082	-0.0293	0.0202	16.7
0.0015	0.003	-0.0203	-0.0053	17.1
0.006	-0.0008	-0.0158	-0.0308	16.8
0.0127	-0.0008	0.0097	-0.0443	17.1
0.0165	0.0015	0.0187	-0.0368	16.8
-0.0015	0.006	0.0067	-0.0203	17
-0.015	0.0067	-0.0053	-0.0128	16.7
-0.0105	0.0015	-0.0158	-0.0053	16.9
-0.0053	-0.0008	-0.0165	0.0022	17.1
-0.0046	-0.0015	-0.0218	0	17.1
-0.0046	0	-0.027	-0.0015	16.8
0	-0.0023	-0.0315	0.003	17
-0.0053	-0.0015	-0.0278	0.0067	17
-0.015	-0.0015	-0.0075	0.0082	17.1
-0.012	-0.0053	0.009	0.0075	17
-0.006	-0.006	0.0225	0.0082	17.1
-0.0046	-0.0053	0.0382	0.0082	17
0.009	-0.0015	0.0487	0.0045	17
0.0232	-0.0015	0.0577	-0.0008	17
0.012	0.003	0.06	-0.0105	17
-0.0015	0.0045	0.0457	-0.0165	17.1
-0.0053	0.003	0.0247	-0.0075	16.9
-0.0046	0.003	0.006	-0.0015	17
-0.0083	0.0007	-0.0135	-0.0023	17
-0.0068	0.0015	-0.027	-0.0008	17
0.0067	0.0015	-0.0203	-0.0015	17
0.0105	0	-0.0053	0	16.9
0.0142	-0.0053	-0.012	0.0007	17.2
0.015	-0.0075	-0.0158	-0.0008	16.9
0.0142	-0.0083	-0.021	-0.0023	17.2
0.0165	-0.0135	-0.0285	-0.0023	17
0.018	-0.0113	-0.0256	0.003	17.1
0.018	0.0045	-0.024	0.009	17
0.0097	0.0195	-0.0188	0.012	17.1
0.006	0.0127	-0.0203	0.006	17
0.0045	0.0015	-0.0046	-0.003	17
0.0082	-0.0008	0.0172	-0.0091	17.2
0.0195	-0.006	0.0127	-0.0158	17
0.024	-0.0046	0.0045	-0.012	17.3
0.0217	-0.0046	-0.003	0.0022	17.2
0.0075	-0.0046	0.0157	0.012	17.1
-0.0075	-0.0008	0.0757	0.0112	17.2
-0.024	0.0015	0.1177	0.0105	17
-0.024	0.003	0.1005	0.0105	17.2
-0.0053	-0.003	0.069	0.0045	17
0.0112	-0.0008	0.0315	0.0052	17.3
0.0315	0.0097	-0.0098	0.0052	17.1
0.0315	0.0105	-0.0308	-0.0008	17.1
0.0045	0.0037	-0.045	-0.0015	17.1
-0.0165	0.0045	-0.0443	0.0045	17
-0.0278	0.0052	-0.0398	0.0097	17.1
-0.0278	-0.0008	-0.0346	0.0097	17.1
-0.0195	-0.0046	-0.0308	0.003	17.3
-0.0158	-0.0091	-0.033	-0.006	17.2
-0.0046	-0.0135	-0.0428	-0.0143	17.3
0.024	-0.0143	-0.048	-0.0218	17.3
0.0517	-0.0173	-0.0405	-0.0218	17.2
0.0525	-0.0075	-0.042	-0.012	17.1
0.0292	0.0157	-0.0278	-0.0008	17.1
0.0082	0.0142	0.0195	0.003	17.1
-0.0046	0.009	0.0787	0.0045	17.3
0.0015	0.0075	0.1012	0.0097	17.3
0.0015	-0.0038	0.0877	0.0075	17.3
-0.0068	-0.003	0.051	0.0067	17.1
-0.0038	-0.0046	-0.0023	0.0075	17.3
0.0007	-0.0105	-0.0323	0.0022	17.2
0.012	-0.0098	-0.048	-0.0008	17.3
0.021	-0.0053	-0.0488	-0.006	17
0.0247	0.0007	-0.0443	-0.0098	17.3
0.0165	-0.0008	-0.0293	-0.0083	17.4
0.0015	-0.0008	0.0277	-0.0023	17.2
-0.0068	-0.0015	0.0817	-0.003	17.4
-0.0113	-0.0023	0.0705	-0.0053	17.3
-0.0046	0.0007	0.036	-0.0046	17.3
0.0015	0.0007	0.027	-0.0053	17.4
0.003	-0.0008	-0.0113	-0.0083	17.2
-0.0008	-0.0008	-0.063	-0.0091	17.5
-0.003	0.0015	-0.0871	-0.0091	17.1
0.003	-0.0008	-0.1125	-0.0038	17.5
0.0067	-0.0046	-0.12	-0.0008	17.1
0.0045	-0.0038	-0.1043	0.0037	17.4
-0.0008	-0.003	-0.0765	0.0052	17.3
0.003	0.0007	-0.0368	0.0022	17.3
0	0.0037	-0.0091	0.0037	17.3
-0.0083	0.003	0.0232	0.0067	17.4
-0.0098	0.0052	0.0517	0.012	17.4
-0.0158	0.0045	0.0555	0.012	17.4
-0.0143	0.0007	0.0532	0.0097	17.3
-0.0105	0.0022	0.0592	0.0067	17.3
-0.0083	0	0.0682	0	17.3
-0.003	0.0007	0.081	-0.0068	17.4
0.0037	0	0.0697	-0.0128	17.3
0.0067	0	0.0412	-0.015	17.5
0.0037	0.0015	0.0157	-0.0195	17.3
0.0015	0.0015	-0.0105	-0.0256	17.5
0.0015	0.0015	-0.0285	-0.0203	17.4
0.012	-0.0015	-0.0398	-0.0135	17.4
0.021	-0.0008	-0.033	-0.0098	17.3
0.0097	0.0007	-0.0181	-0.0068	17.3
-0.0098	0.0007	-0.0135	-0.003	17.4
-0.0165	0.0007	-0.0083	-0.0008	17.3
-0.0165	-0.0015	0.009	0	17.6
-0.006	-0.0068	0.042	0.0007	17.4
0.0052	-0.0113	0.048	0.0045	17.4
0.0097	-0.0091	0.0277	0.0082	17.5
-0.003	-0.006	0.0232	0.009	17.4
-0.015	-0.0053	0.0075	0.0097	17.5
0.0015	-0.003	-0.0083	0.0112	17.4
0.0187	0.0015	-0.0105	0.009	17.5
0.012	0.0007	-0.015	0.0052	17.3
-0.021	0.0007	-0.0158	0.003	17.4
-0.0338	0.0037	-0.012	-0.0008	17.5
-0.0225	0.0022	-0.0181	-0.0015	17.3
-0.0143	0.0007	-0.0256	-0.0015	17.5
-0.015	-0.0008	-0.0256	-0.0015	17.3
-0.0113	0.0045	-0.048	-0.0015	17.5
0.0112	0.0067	-0.06	-0.003	17.5
0.027	-0.003	-0.0533	-0.0038	17.5
0.0337	-0.0075	-0.0428	0	17.4
0.0232	-0.0015	-0.0188	0.006	17.5
-0.0046	0.003	0.0022	0.0097	17.5
-0.0098	-0.0008	0.0292	0.0067	17.5
0.0127	-0.0023	0.0547	0.0015	17.7
0.039	0.0037	0.0607	0.0015	17.5
0.0442	0.0045	0.0517	0.0015	17.5
0.0277	0.0007	0.0517	0.0037	17.5
0.0007	0.0015	0.0652	0.0082	17.5
-0.0315	0.0007	0.06	0.0052	17.6
-0.0353	0.003	0.036	0.0022	17.5
-0.0293	0.003	0.0082	-0.0008	17.5
-0.0256	-0.0015	-0.0203	-0.0053	17.5
-0.0113	-0.0008	-0.0458	-0.006	17.6
0	-0.003	-0.0465	-0.0083	17.5
0.015	-0.0083	-0.0495	-0.0075	17.5
0.024	-0.0105	-0.0511	-0.0046	17.5
0.0225	-0.0068	-0.0436	-0.0008	17.5
0.0195	-0.0053	-0.0353	0.0022	17.6
0.024	-0.003	-0.0233	-0.0008	17.5
0.0307	0.003	-0.021	-0.0008	17.5
0.0277	0.0037	0.0022	0.003	17.7
0.0052	0.0045	0.027	0.0067	17.5
-0.0165	0.0015	0.0397	0.0045	17.6
-0.021	0.0045	0.0435	0.003	17.6
-0.0263	0.012	0.0285	0	17.8
-0.0225	0.0052	0.0255	-0.0053	17.5
-0.0105	-0.003	0.0195	-0.006	17.6
-0.0015	-0.0038	0.0052	-0.006	17.7
0.006	-0.0046	-0.0015	-0.0053	17.7
0.0142	-0.0083	-0.0068	-0.006	17.5
0.0202	-0.0038	-0.0053	-0.003	17.5
0.0217	0.0067	-0.0075	0.0015	17.5
0.0187	0.0037	0.0007	0.0045	17.7
-0.0053	0.0007	0.021	0.0075	17.6
-0.0181	0.0045	0.0217	0.006	17.6
-0.0075	-0.003	0.009	-0.0008	17.5
-0.003	-0.006	0.003	-0.003	17.7
0.0022	-0.0068	-0.0015	-0.003	17.5
0.0045	-0.0053	0.003	-0.0015	17.8
0.012	-0.0038	0.0045	-0.0015	17.5
0.024	-0.0083	-0.0038	-0.0053	17.6
0.0277	-0.0068	-0.0105	-0.0046	17.5
0.0202	-0.0068	-0.0075	-0.003	17.5
0.0082	-0.0038	0.0052	-0.0015	17.8
-0.0008	0.0015	0.0157	0.003	17.7
-0.0083	0.0052	0.012	0.003	17.8
-0.0068	0.006	0.0007	0.0022	17.5
-0.003	0.0052	-0.0046	-0.0015	17.6
-0.0015	0.0052	0.0052	-0.003	17.5
-0.0015	0.0075	0.0555	-0.0008	17.6
0.0037	0.006	0.09	-0.0008	17.6
0.0052	0.0037	0.048	0	17.6
0.0037	0.003	-0.0008	-0.0015	17.7
-0.0008	-0.003	-0.033	-0.003	17.6
-0.003	-0.0068	-0.0706	-0.0038	17.6
0.003	-0.0105	-0.0848	-0.0046	17.5
0.0067	-0.0075	-0.0788	0	17.6
-0.0046	0.0007	-0.0443	0.0022	17.7
-0.0143	-0.0023	0.0022	0.0037	17.5
-0.0105	0.0022	0.0562	0.0045	17.8
-0.0046	0.0052	0.0817	0.0022	17.7
0.0022	0.0045	0.0405	0.0007	17.9
0.006	0.0022	-0.0195	-0.0015	17.7
0.0112	-0.0015	-0.0765	-0.0046	17.7
0.0007	-0.0038	-0.0706	-0.0046	17.6
-0.0158	-0.0046	-0.0555	-0.0023	17.6
-0.0068	-0.003	-0.0675	-0.003	17.6
-0.003	-0.0023	-0.0675	-0.003	17.6
-0.0083	-0.0023	-0.0728	-0.0015	17.9
-0.0113	-0.0015	-0.0458	-0.0008	17.7
-0.0091	0.0015	0.003	-0.0015	17.8
0.0015	0.0022	0.0592	-0.0015	17.7
0.018	-0.003	0.0742	-0.0023	17.6
0.0397	-0.0053	0.0367	-0.0046	17.9
0.051	0.0015	0.0157	-0.0008	17.5
0.0285	0.0082	0.012	0.0052	18
0.0082	0.0045	0.0232	0.0045	17.6
0.009	0	0.0232	0.0015	17.9
0.0075	-0.0053	0.0315	0.0007	17.9
-0.0023	-0.0046	0.048	0.0015	17.9
-0.0053	-0.0053	0.0382	-0.0015	17.6
0.0015	-0.0083	0.0412	-0.0023	17.8
-0.0015	0.0022	0.0247	0.003	17.6
-0.012	0.0157	0.0022	0.006	17.8
-0.0165	0.0142	-0.0165	0.0067	17.8
-0.0083	0.009	-0.0346	0.0015	17.7
0.0007	0.009	-0.0225	0.0007	17.5
0.012	0.0022	-0.0105	0.0007	17.8
0.024	-0.0015	0.0022	0	17.8
0.009	-0.0053	0.0255	0	17.8
-0.006	-0.0068	0.0277	-0.0015	17.7
-0.0083	-0.0015	0.0112	0.0007	17.7
-0.0098	0	0.0112	-0.0008	17.7
-0.0053	0.0022	0.0142	-0.0015	17.8
-0.0015	0.0007	0.0007	-0.0046	17.8
0.0097	-0.0046	-0.0293	-0.0053	17.6
0.027	-0.0068	-0.0353	-0.0015	17.6
0.0255	-0.0075	-0.0128	0.0015	17.7
0.0067	-0.0068	0.0082	0.0075	17.6
-0.0158	-0.003	0.0277	0.0105	18
-0.0143	-0.0023	0.027	0.0082	17.6
-0.0083	-0.0075	0.0165	-0.0008	17.9
-0.003	-0.0053	-0.0113	-0.0053	17.7
-0.006	0.006	-0.0225	-0.0075	17.9
-0.0165	0.0142	-0.0038	-0.012	17.7
-0.0128	0.012	0.0067	-0.0188	17.9
-0.006	0.0105	0.012	-0.0165	17.8
0.006	0.0067	0.0127	-0.0068	17.8
0.009	-0.0038	0.015	-0.003	17.9
0.0112	-0.006	0.0097	0.0007	17.7
0.0127	-0.0046	0.0015	0.0015	17.9
0.009	-0.003	-0.0053	0	17.5
0.0142	-0.0046	-0.0091	-0.0008	17.7
0.0105	-0.006	-0.0083	0.0007	17.7
0.003	-0.0038	0	0.0037	17.8
-0.0015	-0.0023	0.012	0.003	17.9
-0.0038	-0.003	0.0142	0.0045	17.6
0.0015	-0.0008	0.0052	0.0045	17.9
0.009	0	-0.0165	0.0015	17.5
0.0105	0.0015	-0.0346	0.003	17.8
0.0045	0.0037	-0.0458	0.0045	17.6
-0.0008	0.0037	-0.048	0.0045	17.8
0.0037	0.0022	-0.0323	0.003	17.5
0.006	-0.0015	-0.0143	0.003	17.8
0.0015	-0.0053	-0.0091	0.0007	17.7
0.003	-0.0083	-0.0105	-0.003	17.6
0.0082	-0.003	-0.0015	-0.0008	17.9
0.0007	0.0052	0.0022	0.0015	17.7
-0.0128	0.0007	0	-0.0008	17.9
-0.024	-0.0068	0.0142	0	17.7
-0.0233	-0.0015	0.027	-0.0008	17.9
-0.0143	-0.003	0.0142	-0.003	17.9
-0.012	-0.003	-0.003	-0.0053	17.7
-0.0046	0.0007	-0.0075	-0.0046	17.9
0.0022	0.003	-0.0046	-0.003	17.8
0.0075	0.0007	0.0052	-0.0038	17.8
0.0127	-0.0053	0.003	-0.003	17.9
0.012	-0.0046	-0.0083	-0.003	17.7
0.0195	-0.0098	-0.0173	-0.0046	17.9
0.0255	-0.006	-0.0218	-0.003	17.6
0.0195	-0.0038	-0.015	0.0007	17.9
0.012	-0.003	-0.0046	0.0015	17.8
0.009	0.0022	0.0037	0	18
0.0045	0.0015	0.0127	-0.0008	17.6
0.0007	0.0045	0.0195	0.0015	17.9
0.0075	0.0067	0.0405	0.0045	17.8
0.009	0.006	0.0675	0.003	17.9
0.0067	0.003	0.0622	0.0015	17.7
0	0.0007	0.0345	0.0015	17.9
-0.012	0	0.0157	0.0015	17.8
-0.0195	0.0015	-0.0143	0.0007	18
-0.0203	0.0022	-0.0323	-0.0008	17.8
-0.0188	0.0007	-0.0323	-0.0015	17.9
-0.0143	0.0007	-0.033	-0.0023	17.6
-0.0083	0.003	-0.021	-0.0023	18
-0.003	0.0022	-0.0083	-0.0015	17.6
0.006	-0.0008	0.0007	-0.003	17.9
0.0202	-0.0023	0.027	-0.0023	17.9
0.0277	-0.0038	0.0465	-0.0015	17.9
0.0277	-0.0046	0.0517	-0.0015	17.9
0.0285	-0.0015	0.0405	-0.0015	18
0.0195	0.0022	-0.003	-0.0038	17.7
0.0067	0.0052	-0.0368	-0.003	17.9
0.0007	0.0045	-0.0555	-0.0023	17.9
0.003	-0.0008	-0.0668	-0.0046	17.8
0.0037	-0.0046	-0.039	-0.0053	17.9
-0.0083	-0.003	-0.0105	-0.0053	18
-0.0158	-0.0053	-0.0015	-0.003	17.9
-0.012	-0.0008	-0.0015	0	18.1
-0.0105	0.0015	-0.0135	0.0015	17.8
-0.0008	-0.0023	-0.0323	0.0022	18
0.0135	-0.0015	0	0.0045	17.9
0.0165	-0.0068	0.0652	0.003	17.9
0.0105	-0.0105	0.0817	0	17.9
0.0142	-0.0105	0.0457	-0.0023	17.8
0.0202	-0.0083	0.0015	0.0015	18
0.003	0.0067	-0.0091	0.0082	17.9
-0.0143	0.0127	-0.006	0.0082	18
-0.0188	0.0067	-0.0135	0.0007	17.8
-0.0203	0.0015	-0.0128	-0.0015	17.9
-0.0143	0.0007	0.0007	-0.003	17.9
-0.0135	-0.0008	-0.0008	-0.0053	17.9
-0.003	-0.0023	0.006	-0.0053	17.9
0.0052	-0.003	0.0277	-0.0053	18
0.0045	-0.006	0.0195	-0.0053	18
0	-0.0038	-0.0023	-0.0053	17.9
-0.0098	0.0007	-0.0195	-0.0015	17.8
-0.0173	-0.0008	-0.039	0.003	18
-0.0158	-0.0038	-0.0525	-0.0008	17.7
-0.0038	-0.0091	-0.0518	-0.0038	18
0.006	-0.0105	-0.0315	-0.003	17.9
0.0157	-0.0105	-0.0128	-0.0046	17.8
0.0202	-0.0083	0.0067	-0.003	17.9
0.0277	-0.0068	0.0292	-0.0008	18
0.033	-0.0015	0.033	0.0007	17.9
0.0277	0.0127	0.018	0.0037	18.1
0.018	0.0247	0.0082	0.0045	18
0.0112	0.018	0.0187	0.0015	17.9
0.021	0.009	0.027	0.0007	18
0.0217	0.009	0.0285	-0.0008	18.1
0.0142	0.0007	0.0292	0.0007	17.9
0.0112	-0.003	0.036	0.0015	18
0.0067	-0.0046	0.0367	-0.0015	17.9
0.0052	-0.0068	0.0127	-0.0023	18.1
0.0067	-0.0068	-0.0165	-0.0015	17.7
0.0082	-0.0038	-0.0473	0.0007	17.9
0.003	0.0022	-0.0615	0	17.9
-0.0015	0	-0.066	-0.0008	17.8
-0.0068	0.0007	-0.0465	0.0022	17.9
-0.0113	0.0015	-0.0143	0.0007	17.9
-0.0128	-0.0008	0.0045	0.0007	18
-0.0128	-0.0015	0.009	0	18
-0.0091	0.0007	0.003	-0.0008	17.9
-0.012	0.0007	0.012	-0.0015	18
-0.012	-0.0008	0.021	0.0007	17.7
-0.003	0.0007	0.0262	-0.0008	18.1
0.0052	-0.0083	0.0217	-0.0068	17.9
0.009	-0.0075	0.012	-0.0053	18.1
0.0105	-0.0038	0.003	-0.0046	17.8
-0.0046	-0.0068	-0.0038	-0.003	18
-0.0181	-0.0083	-0.003	-0.0008	17.9
-0.0113	-0.0105	-0.0128	-0.003	17.9
-0.0046	-0.012	-0.0135	-0.006	18
0.009	-0.0105	-0.003	-0.0083	17.9
0.0142	-0.0053	-0.0008	-0.0068	18.1
0.003	0.0045	0.0052	-0.0023	17.9
0.0037	0.0232	0.009	0.003	18
0.012	0.024	0.018	0.0075	18
0.009	0.012	0.0382	0.009	17.9
-0.0015	0.0112	0.0405	0.0082	18.1
-0.0091	0.0052	0.0232	0.0067	17.9
-0.012	0	0.0052	0.0037	18
-0.0091	0.0007	0.006	0.0015	17.9
-0.003	-0.003	0.0195	-0.0015	18
0	-0.0053	0.0112	-0.0015	18
-0.003	-0.0083	0.003	0.0015	18
-0.006	-0.0075	0.0247	0.0022	18.1
-0.0053	-0.0068	0.0202	0.0015	18
-0.0068	-0.0053	-0.0091	-0.0008	17.9
-0.012	0	-0.0143	-0.0015	17.9
-0.0195	0.0022	-0.021	-0.0015	17.8
-0.0181	0.0007	-0.0308	-0.0015	17.9
-0.012	0	-0.039	-0.0023	18
-0.0046	-0.0008	-0.0458	-0.003	17.8
0.0015	-0.003	-0.048	-0.0046	17.8
0.0082	-0.003	-0.0323	-0.0075	17.9
0.0307	-0.0046	-0.0053	-0.0068	18
0.0427	-0.0083	0.0045	-0.0068	17.9
0.0532	-0.012	-0.0015	-0.0068	18
0.0562	-0.0083	-0.0293	0	17.7
0.0232	0	-0.0533	0.0045	18
0.0007	0.0015	-0.0668	0.0015	17.8
0.0105	-0.0023	-0.0668	-0.0015	17.9
0.024	-0.0053	-0.042	-0.0015	17.9
0.0127	-0.0008	-0.0143	0.0022	17.9
-0.0128	0.0037	0.0247	0.0045	18
-0.0293	0.0052	0.0435	0.0037	18.1
-0.0353	0.009	0.057	0.0007	17.9
-0.0233	0.0075	0.066	-0.0015	18
-0.0046	0.0045	0.0637	-0.0008	18
0.003	0.0052	0.0817	-0.0008	18
0.0007	0.0052	0.0825	-0.0023	18
0.0007	0.0067	0.0585	-0.0008	18
0.0007	0.006	0.0292	0	17.9
0.0067	0.0015	-0.0068	0.0007	18.1
0.0165	-0.0015	-0.0278	0.0015	17.9
0.012	-0.0038	-0.03	0.0015	18
0.0015	-0.0091	-0.0285	-0.0008	17.9
-0.0008	-0.0158	-0.0285	-0.0023	18
0.0022	-0.0195	-0.0128	-0.0038	18
0.0052	-0.0158	0.0232	-0.0008	18
0.009	-0.006	0.0307	0.0037	17.9
0.0015	0.0022	0.009	0.0082	18
0.0015	0.0037	-0.0068	0.0105	17.9
0.0045	0.0022	-0.0263	0.0067	17.9
0.0112	0.009	-0.0278	0.0045	18
0.0217	0.009	-0.0165	0.0015	18
0.0112	0.0015	-0.0068	0.0007	17.9
-0.0173	0.0052	0.003	0.0022	18.1
-0.027	0.0045	0.012	0.0037	17.9
-0.0225	0.0007	0.012	0.0007	18
-0.0165	0	0.0007	-0.0023	18
-0.0068	-0.003	-0.0068	-0.0053	17.9
-0.0008	-0.0075	-0.0218	-0.0091	18.1
0.0075	-0.0091	-0.0293	-0.0113	17.9
0.0292	-0.0046	-0.0285	-0.0128	18.1
0.0517	0.003	-0.0285	-0.0105	17.8
0.048	0.0015	-0.0113	-0.0053	18.1
0.0292	0.0007	0.003	0.0007	18
0.0075	0.0052	0.018	0.0082	18
-0.0233	0.0045	0.03	0.0127	17.9
-0.0353	0.0045	0.0322	0.0082	18
-0.0293	0.0015	0.0232	0.0015	18.1
-0.0143	-0.0008	0.0127	-0.0023	17.9
0.0045	-0.0023	0.0202	-0.0053	18
0.0067	-0.003	0.0525	-0.0046	18.1
0.0015	0.0015	0.108	-0.003	17.9
-0.0015	0.0015	0.1087	-0.003	18
0.0022	0.0015	0.0592	-0.0023	17.9
0.0082	-0.0008	0.0277	-0.0038	18.1
0.0142	-0.0015	-0.0233	-0.0046	17.9
0.018	0	-0.075	-0.0053	18.1
0.018	-0.0008	-0.1006	-0.006	17.9
0.0202	-0.0083	-0.1245	-0.0053	18.1
0.0165	-0.0135	-0.1298	-0.0038	17.9
0.0097	-0.0128	-0.1125	-0.0015	18
-0.0015	-0.0083	-0.0765	0.003	18.1
-0.0165	-0.0038	-0.0308	0.003	17.9
-0.015	0	0.009	0.003	18
-0.0091	0.0045	0.027	0.0007	18.1
-0.0098	0.0007	0.0367	-0.0015	18.1
-0.0023	0.0015	0.0367	-0.0023	18
0.0007	0.0022	0.0127	-0.003	18
-0.0008	-0.0008	0.0067	-0.0023	18.1
0.0007	0	0.0247	-0.0015	18
0.003	0.0007	0.048	-0.003	18.1
0.0075	0.0007	0.057	-0.0038	18
0.009	0.0007	0.0217	-0.0038	18.1
0.0232	-0.003	-0.0158	-0.0053	18.1
0.0382	-0.0068	-0.0398	-0.0038	17.9
0.0405	0.0082	-0.048	0.0015	17.9
0.03	0.0165	-0.0495	0.0045	17.9
0.0007	0.0097	-0.0308	0.006	18
-0.0218	0.0105	0.0157	0.0045	18
-0.0248	0.003	0.0427	0.0007	17.9
-0.0195	-0.0053	0.0495	-0.0015	18.2
-0.012	-0.0083	0.048	-0.003	17.9
-0.0083	-0.012	0.0337	-0.0046	18.1
-0.0068	-0.0105	0.006	-0.0038	17.9
-0.0053	-0.0075	-0.0023	0.0007	18.2
-0.0046	-0.003	0.0052	0.0045	18.1
-0.0068	0.0045	0.018	0.006	18
-0.0091	0.0082	0.0382	0.0052	18.1
-0.0008	0.0075	0.0277	0.003	17.9
0.0045	0.0007	0.024	0.0007	18.2
0.003	-0.0008	0.0367	0.0015	17.9
0.0015	0.0037	0.0367	0.0015	18
-0.0068	0.0037	0.0195	0.0015	18
-0.0105	0.003	0.0082	0.0007	18
-0.0105	0.0045	0.0187	-0.0015	18.1
-0.0068	0.0007	0.006	-0.0046	17.8
-0.003	-0.003	-0.0143	-0.0068	18
-0.0038	-0.006	-0.0233	-0.0068	17.8
0.0007	-0.0083	-0.0368	-0.0075	18
0.0097	-0.0053	-0.0428	-0.0046	18
0.0105	-0.006	-0.0398	-0.0023	17.9
0.0067	-0.0046	-0.0308	0.0007	18
-0.0008	0.0007	-0.0181	0.0015	18
-0.0135	0.0007	-0.0008	-0.0008	18
-0.012	0	0.009	0	17.9
-0.0008	-0.0023	0.0075	-0.0008	18.1
0.0105	-0.0046	-0.003	-0.0008	18
0.0142	-0.0046	-0.0105	0.0015	18
0.018	-0.0038	-0.0098	0.0015	18
0.0142	-0.0046	-0.0128	0.0007	18
-0.003	-0.0015	-0.0128	0.0007	17.8
-0.006	0	-0.0105	-0.0015	17.9
-0.003	0	-0.0113	-0.0023	18
-0.0075	-0.0015	-0.012	-0.0015	18.1
-0.0113	0	-0.0053	-0.0008	18
-0.0083	0.0015	0.0067	-0.0015	18.1
0.0075	-0.003	0.0307	-0.0046	17.9
0.0202	-0.0053	0.0442	-0.006	18.1
0.0172	0.0015	0.0292	-0.0023	18
0.003	0.012	0.009	0.003	18
-0.0008	0.0127	-0.0143	0.0015	18
-0.0053	0.0075	-0.0278	0.0007	18
-0.0046	0.0082	-0.0353	0.0022	18
0.003	0.003	-0.0405	0.003	17.9
-0.003	-0.0015	-0.0405	0.003	17.9
-0.0046	-0.0015	-0.0428	0.0015	18
0.0067	-0.0046	-0.0323	0.0007	18
0.0157	-0.0008	-0.0143	0.0015	18
0.0172	-0.003	-0.0038	0.0007	17.9
0.0195	-0.003	0.0007	-0.0015	18.1
0.0172	-0.0046	0.0045	-0.0008	17.8
0.018	-0.0068	0.009	-0.0023	18.1
0.0202	-0.003	0.0165	0	18
0.0105	0.0007	0.0217	0.0015	18.2
-0.0008	0.003	0.0307	0	18
-0.0038	0	0.054	-0.003	18
0.0007	-0.0008	0.0405	-0.0053	18
-0.0015	0.003	0.015	-0.0038	17.9
-0.012	-0.0008	0.0105	-0.003	18.1
-0.0195	-0.0046	-0.0008	-0.0008	18
-0.0181	0	-0.006	0.0015	17.9
-0.0158	0.003	-0.0091	0.0007	17.9
-0.003	0.0052	-0.006	-0.0015	18.1
0.0105	0.0045	0.006	-0.003	18.1
0.012	0.006	0.0105	0.0015	18
0.0082	0.0082	0.012	0.0015	18.1
0.009	0.003	0.0082	-0.003	18
0.012	-0.0008	-0.0053	-0.0046	18.1
0.0082	-0.0038	-0.0158	-0.0046	18.1
0.0045	-0.0046	-0.0083	-0.0015	17.9
0.0075	-0.003	0.03	0	18.1
0.012	-0.0068	0.0622	-0.0015	18
0.018	-0.0105	0.0502	-0.0038	18.1
0.024	-0.0128	0.03	-0.0053	18
0.027	-0.0128	0.0112	-0.003	18.2
0.033	-0.0091	-0.0053	0.003	18
0.027	-0.0015	-0.0038	0.009	18.1
0.0007	0.0037	-0.0046	0.0112	18.1
-0.0128	0.0052	-0.0098	0.009	18
-0.0143	0.0045	-0.0315	0.0067	18
-0.0165	0.0015	-0.0511	0.003	18
-0.0143	-0.0008	-0.057	0.0015	18
-0.0105	-0.0008	-0.048	0	18
-0.0023	-0.0046	-0.0323	-0.0038	17.9
0.006	-0.0091	-0.0346	-0.0046	18.1
0.0142	-0.0083	-0.021	-0.003	17.9
0.024	-0.003	0.0015	-0.0015	18.3
0.0285	0.0015	0.0405	0	17.9
0.018	-0.0008	0.0727	0.0015	18.1
0	-0.0015	0.0555	0	18.1
-0.0046	0.0022	0.0307	-0.0008	18.1
-0.003	0.0067	-0.012	-0.0008	18.1
0.003	0.0037	-0.0555	-0.003	18.1
0.0045	0.003	-0.0803	-0.0038	18
0	0.0127	-0.0825	-0.0023	18.1
-0.0015	0.0067	-0.0533	-0.003	18
-0.012	-0.0008	-0.012	-0.0008	18.1
-0.0293	0.0045	0.0465	0.003	18
-0.0368	0	0.1117	0.0015	18.1
-0.0278	-0.0015	0.1522	-0.003	18
-0.0158	-0.006	0.1027	-0.0053	18
-0.0091	-0.006	0.0225	-0.0046	18.1
0	-0.0068	-0.0278	-0.0053	18
0.009	-0.0068	-0.057	-0.0053	18.1
0.0075	-0.0015	-0.0518	-0.003	18
0.0052	-0.0008	-0.0563	-0.0023	18.2
0.0045	0.0037	-0.054	-0.0015	17.9
0.0097	0.0007	-0.0503	-0.0015	18.1
0.018	0	-0.0518	-0.003	17.9
0.024	0.0015	-0.0555	-0.0023	18.1
0.0232	-0.0023	-0.0413	-0.0023	18
0.0217	-0.0068	-0.003	-0.0015	18
0.0382	-0.0143	0.0082	-0.003	18.1
0.0307	-0.0098	0.0247	0.0015	18.1
0.0052	-0.0008	0.0315	0.0075	18.1
-0.012	0.0037	0.018	0.0082	18.1
-0.0233	0.0052	0.0105	0.0067	18
-0.0143	0.0015	0.0082	0.0007	18.2
-0.0008	-0.003	0.009	-0.0023	18.1
-0.0053	-0.0053	0.0082	0	18.3
-0.0068	-0.0083	0.009	-0.0023	18
0.003	-0.0046	0.0037	0.0007	18.2
0.012	0.0067	0.0097	0.0045	17.9
0.0052	0.012	0.0202	0.0082	18.1
-0.0083	0.0105	0.039	0.0082	18
-0.0128	0.0067	0.06	0.0052	18
-0.0188	0.006	0.0615	0.0045	18.1
-0.0233	0.0052	0.0517	0.0007	18.2
-0.027	0.0052	0.0352	-0.0015	18.2
-0.0218	0.0037	0.036	-0.0046	18.1
-0.0105	0.0015	0.0337	-0.0046	18
-0.0068	-0.0015	0.006	-0.0038	18.1
-0.0008	-0.0046	-0.0233	-0.0053	18
0.0105	-0.0068	-0.045	-0.0053	18.1
0.0277	-0.0105	-0.054	-0.0083	17.9
0.048	-0.012	-0.0518	-0.0068	18
0.0577	-0.0083	-0.0315	-0.0038	18
0.039	-0.0075	0.0045	0.0007	18
0.0022	0.0007	0.0457	0.0045	18.1
-0.0248	0.0075	0.0615	0.0037	18
-0.0346	0.0067	0.0457	0.0015	18
-0.027	0.0045	0.021	-0.003	18.1
-0.0128	-0.0008	-0.0173	-0.0053	18.1
-0.0053	-0.0053	-0.0443	-0.0068	18.2
-0.003	-0.0083	-0.057	-0.0083	17.9
0.0052	-0.0091	-0.06	-0.0075	18.1
0.018	-0.0091	-0.0518	-0.0068	18
0.0232	-0.0075	-0.039	-0.0053	18
0.0255	-0.0008	-0.0225	-0.0008	18.1
0.021	0.0112	-0.0113	0.003	17.9
0.0045	0.0135	0.0037	0.0075	18.2
-0.0098	0.006	0.0127	0.0067	18
-0.021	0.0052	0.0165	0.0052	18.2
-0.021	0.003	0.0232	0.003	18
-0.012	0.0015	0.0232	0	18.1
-0.006	0.0007	0.0217	0.0007	18
-0.003	-0.0008	0.0142	-0.0015	18
-0.0046	0.0015	0.0052	-0.0038	18
-0.0053	0.0022	-0.0015	-0.0046	18.1
-0.0083	0.0015	-0.0046	-0.003	18.1
-0.0068	0.0007	-0.0038	-0.003	18
-0.0053	-0.0008	-0.0098	-0.0038	18.2
-0.0015	-0.0046	-0.0128	-0.0046	17.9
0.003	-0.0053	-0.0135	-0.0046	17.9
0.009	-0.0053	-0.0173	-0.0053	18.1
0.021	-0.0068	-0.0203	-0.0046	18
0.0315	-0.0083	-0.0233	-0.003	18
0.0405	-0.0046	-0.0143	-0.0015	18
0.042	-0.0023	-0.0008	0.0015	18.1
0.0315	-0.0015	0.0082	0.0015	18
0.0052	0.0015	0.0217	0.003	18
-0.0188	0.003	0.0315	0.003	18
-0.024	0.0045	0.036	-0.0008	18.1
-0.0218	0.0082	0.0367	-0.0015	18
-0.0128	0.009	0.0255	-0.003	18
-0.0053	0.0015	0.0165	-0.0046	18
0	-0.0015	0.0097	-0.0046	18.2
0.0052	-0.003	-0.0008	-0.0053	18
0.0075	-0.006	-0.0113	-0.0046	18.1
0.0135	-0.006	-0.0128	-0.0038	17.9
0.0225	-0.0075	-0.0091	-0.0023	18
0.0202	-0.0068	-0.003	-0.0008	18
0.006	-0.006	-0.0091	-0.0008	18
0.003	-0.003	-0.0098	0.0022	18.1
0.0105	0.003	-0.0083	0.0037	17.9
0.0045	0.0015	-0.012	0.0022	18.2
-0.012	0.0022	-0.0075	0.003	18
-0.0165	0.0015	-0.0075	0.0022	18.1
-0.0098	-0.0015	-0.0158	0.0007	18.1
-0.0053	-0.0053	-0.021	-0.003	18.1
-0.0053	-0.0053	-0.0143	-0.0023	18
0.0007	-0.0068	-0.0015	-0.003	18.1
0.0142	-0.0083	0.0082	-0.0015	18.3
0.0255	-0.0053	0.0075	-0.0008	17.9
0.0397	-0.0046	-0.0008	0.0007	18.2
0.0345	-0.0015	-0.0008	0.009	18
0	0.003	0.0015	0.0135	18.1
-0.021	0.006	0.0052	0.0135	18
-0.0248	0.0105	0.0045	0.0097	18.1
-0.0225	0.0075	0.003	0.0037	18.1
-0.0181	0.003	0.0045	-0.0023	18.1
-0.012	0.003	0.003	-0.0015	18.1
-0.0038	0.0112	0.0045	0.0007	18.1
0.0037	0.009	0	0.0007	18.1
0.0007	-0.0015	0.0037	-0.0015	18.1
-0.012	0.0052	0.021	-0.0015	18.2
-0.021	0.0052	0.0427	-0.0023	18.1
-0.0195	0.006	0.048	-0.0008	18.1
-0.0181	0.009	0.0292	-0.0015	18.1
-0.0083	-0.0008	0.0067	-0.0068	18.3
0.0157	-0.0075	-0.0128	-0.0068	18
0.042	-0.0135	-0.027	-0.0068	18.3
0.063	-0.0091	-0.0338	-0.0053	18.1
0.0585	-0.0023	-0.0353	-0.0008	18.3
0.0457	-0.006	-0.0308	0	18.2
0.0397	-0.0053	-0.0143	0.0045	18.2
0.0142	-0.0015	0.0142	0.0097	18.1
-0.0091	0.0007	0.021	0.009	18.1
-0.0218	0.0007	0.0075	0.0067	18.2
-0.0248	-0.0015	-0.0143	0.0015	18.1
-0.0203	-0.0008	-0.033	-0.0023	18.1
-0.0128	-0.0023	-0.054	-0.0046	18.1
-0.0015	-0.0023	-0.0615	-0.0053	18.2
0.0082	-0.0023	-0.0293	-0.0046	18.1
0.0157	-0.0046	0.0007	-0.0008	18
0.0165	-0.0038	0.0105	-0.0038	18.3
0.012	0.003	0.0105	-0.0053	18
0.0067	0.018	0.012	-0.0038	18.3
0.018	0.0142	-0.0008	-0.0053	18.1
0.018	0.0015	-0.0165	-0.003	18.2
0.0015	0.003	0.0045	-0.0015	18.2
-0.003	0.0015	0.024	-0.003	18.1
-0.0008	-0.0053	0.0277	-0.003	18.2
0.0007	-0.0098	0.0195	-0.0046	18.1
0.0007	-0.0128	0.027	-0.0015	18.3
-0.0053	-0.0046	0.0465	0.0022	18
-0.0181	0.003	0.048	0.0052	18.1
-0.0225	0.003	0.048	0.0007	18.1
-0.0195	0	0.0315	-0.0023	18.1
-0.0098	-0.003	0.0187	0.0007	18
-0.0053	-0.003	0.0105	-0.0008	18.1
-0.0068	-0.0015	0.0045	0.0007	18
0	-0.003	0.0045	-0.0008	18.2
0.0105	-0.0053	0.0022	-0.0008	18
0.0127	-0.0046	0.0037	0.0007	18.3
0.0045	-0.003	-0.0068	-0.0023	18
0.0015	-0.0046	-0.0203	-0.0015	18.2
0.009	-0.0046	-0.0203	-0.003	18.1
0.0082	-0.0008	-0.0195	0	18.1
-0.0008	0.0022	-0.024	0.0022	18
0.0015	0.003	-0.024	0.003	18.1
0.0097	0.0015	-0.0091	0.0022	18.1
0.0202	0.0015	0.0105	0.0015	18.2
0.0255	0.0067	0.0135	0.003	18.1
0.015	0.0082	0.0045	0.0037	18.2
-0.0008	0.0045	-0.0046	0.003	18.1
-0.0158	0.003	-0.012	-0.0008	18.1
-0.024	0.0045	-0.0075	-0.0023	17.9
-0.0195	0.0037	0.0007	-0.003	18.2
-0.0083	0.0015	0	-0.0038	18
0.0015	-0.0023	0.0015	-0.0015	18.1
-0.0015	-0.006	-0.0023	-0.003	18.1
-0.0053	-0.0068	0.0187	-0.0038	18.1
-0.0053	-0.0075	0.06	-0.0046	18.1
-0.003	-0.0098	0.0862	-0.006	18.1
0.0037	-0.0105	0.0825	-0.0053	18.2
0.0007	-0.0068	0.0412	-0.0008	18.1
-0.0053	-0.0015	-0.0015	0.003	18.2
-0.0083	0	-0.0346	0.0045	18
-0.0053	-0.0015	-0.0638	0.003	18.1
-0.0015	-0.0008	-0.0713	0.0052	18.1
-0.006	0	-0.0728	0.0052	18
-0.012	0.0015	-0.0743	0.0015	18
-0.0113	0.0007	-0.078	-0.0008	18.1
-0.003	0.0007	-0.0683	-0.0015	18
0.0037	-0.0008	-0.0383	-0.003	18.1
0.0067	-0.0038	-0.0233	-0.0015	17.9
0.009	-0.0053	-0.0068	-0.0023	18.4
0.0135	-0.0046	0.003	-0.0038	17.9
0.0232	-0.0038	0.0045	-0.0038	18.2
0.024	-0.0008	0.0157	-0.0023	18.1
0.0135	0.003	0.0202	0.0015	18
0.0037	0.003	0.0292	0.0015	18.2
-0.0105	0.0052	0.0517	0	18.1
-0.0165	0.0045	0.1042	-0.0015	18.1
-0.012	0.0037	0.1515	-0.0015	18
-0.0105	0.0022	0.1065	-0.003	18
0.0007	0.0015	0.0172	-0.0053	18.1
0.0172	-0.0008	-0.0533	-0.0053	17.8
0.0277	-0.0053	-0.1088	-0.0053	18.2
0.0277	-0.003	-0.12	-0.003	17.9
0.0217	0.0007	-0.1088	-0.0008	18.1
0.0217	-0.006	-0.0765	-0.003	18
0.0217	-0.0128	-0.0315	-0.0015	18.1
0.0052	-0.0075	-0.0143	0.0045	18
-0.0098	-0.0008	-0.0113	0.0075	18.1
-0.0143	-0.0015	0	0.0045	18.1
-0.0143	-0.003	0.015	0	17.9
-0.012	0.0015	0.0082	0.0007	18.1
-0.0091	0.0135	0.0037	0.0022	18
-0.012	0.0232	0.0165	0.0007	18
-0.0105	0.0127	0.0232	-0.003	18
0.006	-0.003	0.0232	-0.0046	18
0.0165	-0.0038	0.0172	-0.0038	17.9
0.0135	-0.0015	0.0292	-0.0008	18.1
0.0015	0.0015	0.0337	0	18.1
-0.0023	0	0.0247	-0.0015	18.1
0.0097	-0.003	0.0232	-0.0008	18
0.0142	0.0007	0.0255	0	18.3
0.009	0.0052	0.0255	0.003	18.1
0.0015	0.0052	0.0195	0.0052	18.2
0.0007	-0.0008	0.0202	0.0045	18.1
-0.003	0.0015	0.0195	0.0052	18.1
-0.0038	0.0022	0.0142	0.0045	18.1
-0.0015	0.0007	0.0067	0.0007	18
-0.0008	-0.0015	0.0015	-0.003	18.1
0.003	-0.0046	-0.0015	-0.0053	18
0.0037	-0.0068	-0.0046	-0.0068	18.1
0.0015	-0.0105	-0.0008	-0.0068	18.1
0.0037	-0.0068	-0.0053	-0.0038	18
0.0037	0.0007	-0.0113	-0.003	18.1
0.006	0.003	-0.0046	0.0007	18
0.006	-0.0015	0.0082	0.0015	18.2
-0.0015	0	0.012	0.0015	18.1
0.0015	0.003	0.0007	-0.0008	18.2
0.0045	-0.0008	-0.0105	-0.003	18
0.012	-0.003	-0.0158	0	18.1
0.0195	0.0007	-0.015	0.0037	18.2
0.012	0.003	-0.0143	0.0067	18.1
0.0007	-0.003	-0.0173	0.0045	18.1
-0.0068	-0.0038	-0.0143	0.0037	17.9
-0.006	-0.0015	-0.0105	0.0015	18.1
-0.0008	-0.003	-0.0083	-0.0023	18.1
0.0075	-0.0053	-0.0008	-0.0015	18.1
0.0127	-0.0068	0.0007	-0.0046	18.1
0.0142	-0.0068	-0.0046	-0.0053	18.1
0.0097	-0.0075	-0.0046	-0.0046	18.2
0.0045	-0.0053	0.0037	-0.003	18.1
0.0045	-0.0008	0.009	-0.0023	18
0.0052	0.0007	0.0172	-0.0023	18.2
0.0045	0.0052	0.0217	-0.0015	18.1
0.0022	0.012	0.0232	0.0015	18.3
-0.0015	0.012	0.0307	0.003	17.9
-0.0083	0.0052	0.024	0.0015	18.3
-0.0068	0.0015	0.0022	0.0022	18.2
-0.0053	-0.0023	-0.0075	-0.0008	18.1
-0.0068	-0.0053	-0.0181	-0.0015	18.2
-0.0053	-0.0046	-0.0278	-0.0038	18.1
0.0007	-0.0075	-0.0263	-0.0068	18.1
0.003	-0.0083	-0.0143	-0.0015	18
-0.0015	-0.003	0.0172	0.003	18.1
-0.015	0.0037	0.024	0.0045	18.2
-0.0143	0.0045	0.0037	0.0015	18.1
-0.006	0	0.0037	0	18.3
0.0007	-0.0015	-0.0128	-0.0023	18
0.015	-0.0046	-0.0458	-0.003	18.2
0.0232	-0.0068	-0.057	-0.0038	18.1
0.0315	-0.006	-0.0428	-0.0038	18.2
0.0285	-0.0023	-0.0188	-0.0023	18
0.009	0.0015	-0.0015	0	18.2
-0.0105	0.0045	0.0187	0.0022	18.2
-0.0181	0.0022	0.039	0.0007	18.1
-0.0173	-0.0008	0.048	-0.0008	18.1
-0.0105	-0.0015	0.033	-0.0015	18.1
0.0075	-0.0015	0.0127	-0.0046	18.2
0.0225	-0.0008	0.009	-0.003	18.1
0.0232	0.0007	0.0037	-0.0038	18.1
0.0195	0.0045	-0.0015	-0.0008	18
0.0157	0.0022	-0.0158	0.0015	18.1
0.0112	-0.0053	-0.0225	-0.0008	18.1
0.0082	-0.0091	-0.0165	-0.0038	18.2
0.003	-0.0083	-0.0091	-0.0008	18.1
-0.0023	-0.0023	0.0067	0.0015	18.2
-0.0046	0.003	0.0052	0.003	18
-0.0075	0.003	0.0142	0.0022	18.3
-0.0053	0.0037	0.039	-0.0015	18.1
0.0007	0.0082	0.0457	0	18.2
-0.0135	0.0082	0.0292	0	18.3
-0.0293	0.0067	-0.0015	0.0007	18
-0.03	0.0045	-0.0436	-0.0008	18.1
-0.0248	-0.0015	-0.0713	-0.0053	18.1
-0.0135	-0.006	-0.0713	-0.0053	18.2
-0.003	-0.0083	-0.0578	-0.0068	18.2
0.0135	-0.0083	-0.0428	-0.006	18
0.0277	-0.0091	-0.0218	-0.0046	18.2
0.033	-0.0105	0.0075	-0.0015	18.1
0.0382	-0.0098	0.0352	0.0015	18.2
0.0412	0.0007	0.054	0.0045	18
0.0202	0.0112	0.057	0.0082	18.3
-0.0158	0.0105	0.0615	0.009	18.1
-0.0308	0.0067	0.0517	0.0075	18.3
-0.0256	-0.0015	0.0292	0.0022	18.1
-0.0181	-0.0053	0.0127	-0.0008	18.2
-0.0091	-0.003	-0.0083	-0.0023	18.2
0.0015	-0.0068	-0.0091	-0.003	18.1
0.0165	-0.003	-0.006	-0.0015	18.2
0.033	0.0007	-0.0128	-0.0008	18
0.0352	0.0105	-0.0053	0.003	18
0.0142	0.012	0.0052	0.0015	18
-0.0068	0.003	0.018	-0.0008	18.2
-0.0165	-0.0008	0.0195	0	18.2
-0.021	-0.003	0.0217	-0.0008	18
-0.0195	-0.003	0.03	-0.0015	18.1
-0.0165	-0.003	0.027	-0.0038	18.1
-0.0105	-0.003	0.027	-0.0046	18
-0.0083	-0.003	0.0052	-0.0053	18.3
-0.0075	0	-0.0218	-0.0053	17.9
-0.0023	0.0052	-0.024	-0.0023	18.2
0.006	0.0015	-0.0323	-0.003	18
0.0172	-0.003	-0.0533	-0.0023	18.1
0.0217	-0.003	-0.0503	-0.0015	18
0.0142	-0.0008	-0.0473	-0.0015	18
0.0142	0.0075	-0.0675	-0.0015	18.1
0.0247	0.0082	-0.0765	-0.0008	18.1
0.0315	0.0037	-0.063	0	18
0.0262	0.0015	-0.0405	0.0015	18.1
0.009	0.0052	-0.0053	0.0037	18
-0.0068	0.0105	0.0217	0.003	18.3
