File Name: marcha_1.log
Channel 4: 'Recto Femoral', 46045 values, engineering units: mV, no filters.
Channel 5: 'Biceps Femoral', 46045 values, engineering units: mV, no filters.
Channel 6: 'Vasto Medial', 46045 values, engineering units: mV, no filters.
Channel 7: 'EMG Semitendinoso', 46045 values, engineering units: mV, no filters.
Channel 8: 'Flexo-Extension', 46045 values, engineering units: deg, no filters.

-0.0091	-0.0008	-0.0015	0	46.7
0.0165	-0.0038	-0.0008	0.0015	46.8
0.0142	-0.0008	0.0022	0.0015	47.1
0.012	0.0015	0.0045	0.0045	46.9
0.0105	0.0015	0.003	0.0045	47.1
0.009	0.0015	-0.003	0.0045	47.2
0.009	0.0015	-0.0083	0.0022	47.2
0.0097	0	-0.0135	0.0022	47.2
0.0052	-0.0015	-0.0165	0.0015	47.2
-0.0008	0.0007	-0.0165	0.0007	47.3
-0.0015	0.003	-0.0128	0.0015	47.1
-0.003	0.0045	-0.0053	-0.0008	47.5
-0.0053	0.0052	0.0007	-0.0023	47.5
-0.0083	0.0052	0.0045	-0.0038	47.4
-0.0091	0.0052	0.0037	-0.0046	47.6
-0.0083	0.006	0.0037	-0.003	47.6
-0.0083	0.006	0.0052	-0.003	47.7
-0.0091	0.006	0.0052	-0.0008	47.5
-0.0046	0.006	0.0045	0.0007	47.7
-0.0046	0.0045	0.0015	0.0015	47.7
-0.003	0.0052	0.0015	0	47.6
-0.0008	0.0037	-0.0008	-0.0015	47.8
-0.0015	0.0045	-0.0008	-0.003	47.7
-0.0008	0.006	0.003	-0.0015	47.7
-0.0008	0.006	0.0045	-0.0008	47.7
-0.0015	0.0052	0.009	-0.0008	47.9
-0.0008	0.0045	0.012	0.0015	48
0.0007	0.0045	0.009	0.003	47.9
0.0015	0.0045	0.0067	0.0037	47.9
0.0007	0.003	0.003	0.003	48
-0.0015	0.0015	0.0022	0	48.1
-0.0046	0.0015	0.0022	-0.0008	47.9
-0.0046	0.003	0.0067	-0.0015	48.1
-0.0046	0.0015	0.0135	0.0007	48
0.003	0.0007	0.0165	0.0007	48.1
0.0082	0.0015	0.0105	0.003	48
-0.0008	0.0015	0.0052	0.003	48.2
-0.012	0.0015	0.0127	0.0015	47.9
-0.0113	0.0022	0.0202	0.0015	48
-0.0075	0.0007	0.0165	0.0022	48.1
-0.0091	-0.0008	0.0142	0.003	48.1
-0.0105	-0.003	0.0082	0.0022	48.1
-0.0038	-0.003	0	0.0022	48
0.0052	-0.0038	-0.0053	0.0037	48.2
0.0067	-0.0046	-0.0068	0.003	47.9
0.0067	-0.0053	-0.0038	0.003	48.2
-0.0008	-0.006	0.0007	0.0015	47.9
-0.0128	-0.006	0.0015	0.0015	48.1
-0.0218	-0.0068	0.0007	0.0015	47.9
-0.0203	-0.0075	-0.0008	-0.0008	48.2
-0.0105	-0.0091	-0.0008	-0.0046	48
-0.0083	-0.0068	-0.0046	-0.003	48.1
-0.0015	-0.0046	-0.0023	-0.0015	48
0.006	-0.003	-0.0015	-0.003	48.1
0.0052	0	-0.0008	-0.0015	47.9
0.0112	0.0022	-0.0008	-0.003	47.9
0.015	0.0052	-0.0046	-0.0038	47.9
0.0172	0.0075	-0.0105	-0.0038	47.8
0.0127	0.0067	-0.0165	-0.0023	47.9
0.0067	0.0052	-0.015	-0.0015	47.8
0.0165	0.0052	-0.0128	-0.0015	47.9
0.024	0.0052	-0.0091	-0.0008	47.6
0.0232	0.0052	-0.0068	0.0007	47.7
0.0202	0.0045	-0.0075	0.0007	47.6
0.0195	0.003	-0.0075	0.0015	47.7
0.0157	0.0015	-0.0098	0.003	47.6
0.0067	0.0015	-0.0083	0.0052	47.7
-0.006	0.0007	-0.006	0.0045	47.6
-0.015	0.0007	-0.0008	0.0052	47.7
-0.0135	0.003	0.0067	0.0052	47.6
-0.0098	0.006	0.0097	0.0067	47.6
-0.0008	0.0052	0.0142	0.0052	47.4
0.0075	0.0045	0.0135	0.006	47.4
0.006	0.003	0.012	0.0037	47.3
0.0045	-0.0015	0.0105	0.0007	47.2
0.0052	-0.003	0.009	0.0015	47.3
0.0045	-0.0023	0.009	0.0015	47.1
0.0037	-0.0015	0.0052	0.0045	47.2
0.0052	-0.0023	0	0.0037	47
0.009	-0.003	-0.003	0.0022	47.1
0.0082	-0.0008	-0.003	0.0007	46.9
0.009	-0.0015	-0.0038	0.0007	47
0.0082	-0.0015	0	0.0015	46.9
0.006	-0.0008	-0.003	0.0007	46.8
0.0045	0.0015	-0.0053	0.0007	46.7
-0.0053	0.003	-0.0023	0.0007	46.7
-0.0015	0.003	-0.003	-0.0015	46.5
0.0097	0.0007	-0.006	-0.0023	46.6
0.0217	0.0007	-0.0075	-0.0015	46.3
0.0517	0.0015	-0.0091	-0.0008	46.3
0.0532	0.0007	-0.0091	0.0007	46.4
0.0255	0.0015	-0.0083	-0.0008	46.2
0.0075	0.0007	-0.0105	-0.0008	46.2
-0.0098	-0.003	-0.012	-0.0008	46.1
-0.0128	-0.0023	-0.0135	-0.0015	46.1
-0.0195	-0.003	-0.0181	-0.003	46
-0.0368	-0.0023	-0.015	-0.0015	45.9
-0.0368	-0.0015	-0.0053	-0.0008	45.9
-0.0443	-0.0008	0.006	-0.0015	45.9
-0.0458	0	0.0142	0.0007	45.7
-0.0285	0.0007	0.0232	0.003	45.7
-0.024	0.0007	0.0292	0.0015	45.7
-0.0203	0	0.0255	0.0007	45.4
-0.0083	0	0.0142	-0.0008	45.4
-0.003	-0.0015	0.0067	-0.0008	45.4
0.009	-0.003	-0.0015	0.0015	45.2
0.0127	-0.0015	-0.0068	0.0015	45.2
0.0097	-0.0008	-0.0046	0.003	45
0.0112	0.0022	-0.0008	0.0022	45
0.0097	0.003	0.003	0.0015	44.9
0.0127	0.0045	0.0045	0.0007	44.8
0.012	0.0052	0.0022	0.0007	44.7
0.012	0.0067	-0.0023	0.0015	44.6
0.0105	0.0067	-0.006	0.0007	44.4
0.0105	0.0075	-0.0098	0.0007	44.4
0.0135	0.006	-0.0105	0.0007	44.1
0.0165	0.0037	-0.0113	0.0007	44.4
0.0225	0.0045	-0.0083	0.0015	43.9
0.0202	0.0022	-0.0068	0.0015	44
0.0142	0.0007	-0.0068	0.0007	43.9
0.0045	0.0015	-0.0015	0.0015	43.6
-0.0091	0.0007	0.003	0.0015	43.6
-0.0233	0.0022	0.006	0.0007	43.5
-0.0308	0.003	0.0127	0.0015	43.4
-0.0346	0.0015	0.018	0.0037	43.1
-0.0361	0.0015	0.0165	0.0037	43.2
-0.0203	0.0022	0.0135	0.0037	42.9
-0.0083	0.0022	0.009	0.0022	42.8
-0.012	0.0022	0.003	0.0015	42.7
-0.0053	0.0007	0.003	-0.0008	42.7
-0.0015	-0.0008	0.0022	0.0007	42.3
0.0015	-0.0023	0.0045	0	42.4
0.006	-0.0023	0.0067	-0.0023	42.1
0.0067	-0.003	0.006	-0.0008	42.2
0.0105	-0.0038	0.003	0	41.9
0.0142	-0.0023	-0.003	-0.0008	41.8
0.0165	-0.0015	-0.0038	-0.0008	41.6
0.0127	0.0015	-0.0038	0.0007	41.4
0.0135	0.0015	-0.0053	0.003	41.2
0.0217	0	-0.0053	0.0015	41.1
0.0127	-0.0015	-0.0023	0.0015	41
-0.0083	0	0	0.0015	40.8
-0.0181	-0.0015	-0.0015	0.0015	40.8
-0.021	-0.003	-0.0053	-0.0008	40.4
-0.021	-0.0015	-0.0083	-0.0008	40.4
-0.0173	-0.0015	-0.006	0.0007	40.1
-0.0098	-0.003	0.003	-0.0015	40.2
0.003	-0.0038	0.0067	-0.0015	39.8
0.009	-0.0023	0.006	-0.0015	39.8
0.006	0.0007	0.0045	-0.0008	39.6
0.0045	0.0022	0.0007	-0.0008	39.6
0.0052	0.0015	-0.0015	0.0007	39.2
0.0105	0.0015	-0.0038	0.003	39
0.0127	0.0015	-0.0053	0.0022	39.1
0.012	0	-0.0068	0.0015	38.6
0.0112	-0.0008	-0.0098	0.0015	38.6
0.0105	-0.0008	-0.012	-0.0015	38.2
0.0097	0.0007	-0.0098	-0.0015	38.4
0.0082	0.0007	-0.0091	-0.0008	37.9
0.0082	0.0045	-0.0113	-0.0008	38
0.0082	0.0052	-0.0083	-0.0008	37.7
0.0052	0.0045	-0.0053	-0.003	37.8
0.0037	0.0067	-0.003	-0.003	37.4
0.003	0.006	0.0007	-0.003	37.4
0.0015	0.0067	0.003	-0.0023	36.9
0.0015	0.006	0.0007	-0.0015	37
-0.0015	0.006	-0.0008	-0.003	36.7
-0.003	0.0037	-0.0015	-0.0015	36.6
0.0015	0.0022	-0.0023	0.0007	36.6
0.006	0.003	-0.0015	0.0015	36.4
0.0022	0.0007	-0.0015	0.0015	36.3
-0.0023	-0.003	-0.0015	0.0015	35.9
0.0015	-0.0023	0	0.003	36
0.0007	-0.0038	-0.0008	0.0015	35.6
-0.0008	-0.0046	0	0.0015	35.6
-0.0008	-0.0038	-0.003	0.0037	35.3
-0.003	-0.0046	-0.0046	0.0022	35.2
-0.0038	-0.0046	-0.0023	0.0007	34.8
-0.0046	-0.0038	-0.0038	0.0007	34.8
-0.0015	-0.0038	-0.0023	0.0007	34.6
-0.0015	-0.0015	-0.0015	-0.0015	34.5
0	-0.0008	0	-0.0015	34.2
0.0015	-0.0008	0.0037	0	34.2
0.0007	-0.0008	0.0045	0.0015	33.9
0.0007	-0.0008	0.0075	0.0015	33.8
0.0007	-0.0008	0.0067	0	33.6
0.0007	0	0.0045	0.0007	33.5
0.0007	-0.0015	0.0052	0.0022	33.5
0.0037	-0.0008	0.003	0.0052	33
0.003	-0.0015	0.0007	0.0067	33.1
0.0007	-0.0015	-0.0008	0.0045	32.9
-0.0008	-0.0015	0	0.0052	32.7
0.0007	-0.0008	0.0015	0.009	32.4
0.003	0	0.0015	0.006	32.4
0.003	0.0007	0.003	0.0022	32.1
0.0045	0.0015	0.003	0.0007	32.1
0.0082	0.0022	0.0007	-0.0008	31.9
0.0157	0.003	0.0007	-0.0015	31.5
0.0202	0.0037	-0.0008	-0.0015	31.3
0.0142	0.003	-0.0023	-0.0008	31.3
0.0022	0.0022	-0.0046	-0.0008	31.1
-0.003	0.003	-0.006	-0.0015	30.8
-0.0068	0.003	-0.0091	0	30.7
-0.012	0.0037	-0.006	-0.0008	30.8
-0.0091	0.0045	-0.0038	0.0015	30.4
-0.003	0.003	-0.003	0.0037	30.3
-0.0053	0.0045	-0.0046	0.0037	30.1
-0.0068	0.0045	-0.0015	0.003	30.1
-0.0053	0.0037	0.0007	0.003	29.8
-0.0068	0.0022	0.0015	0.0052	29.8
-0.0068	0.0007	0.0015	0.0045	29.5
-0.0091	0	0.0015	0.0052	29.3
-0.0091	0.0007	0.0052	0.0082	29.3
-0.003	0.0022	0.009	0.009	29
-0.0008	0.0045	0.009	0.0075	28.9
0.0007	0.0052	0.0105	0.0052	28.8
0.003	0.0052	0.0082	0.003	28.5
0.0067	0.003	0.0067	0.0007	28.4
0.012	0.003	0.0097	0.0007	28.1
0.012	0.003	0.0105	-0.0015	28
0.0045	0.003	0.006	-0.003	27.9
-0.0008	0.0015	0.003	-0.0046	27.7
-0.003	0.0007	0.0045	-0.0053	27.5
-0.0053	0	0.0045	-0.0053	27.3
-0.0008	-0.0008	0.0045	-0.0068	27.3
0.0015	0	0.0045	-0.0075	27
0.003	-0.0015	0.0045	-0.0053	26.9
0.0007	-0.0015	0.0015	-0.006	26.6
0.0007	-0.0008	-0.0015	-0.0046	26.6
-0.0008	-0.0008	-0.0046	-0.0023	26.3
-0.0008	0	-0.0083	-0.0008	26
0.0007	0.0007	-0.0075	0.0007	25.9
0	0.0022	-0.0083	-0.0008	25.7
-0.0008	0.003	-0.0075	0	25.6
-0.0008	0.003	-0.0053	0.0007	25.6
-0.0008	0.0015	-0.006	0.0022	25.2
-0.0008	0.0007	-0.0053	0.0037	25
0.0007	0.0007	-0.0015	0.0045	24.9
0.0015	0.0007	0.0007	0.0052	24.7
0.003	0.0007	0.0022	0.0067	24.6
0.0052	0.0007	0.0067	0.0067	24.3
0.0067	-0.0008	0.0097	0.003	24.3
0.0037	-0.0015	0.0082	0.0022	24
0.0015	-0.0038	0.0067	-0.0008	23.8
0.0037	-0.0023	0.0082	-0.0023	23.5
0.0045	0	0.009	-0.0015	23.4
0.0052	-0.0015	0.0105	-0.0008	23.3
0.0052	-0.0015	0.0082	-0.0008	23.2
0.0045	0	0.006	0.0007	22.9
0.0045	0.0015	0.0052	0.003	22.7
0.0007	0.0015	0.0052	0.003	22.6
-0.0046	0	0.003	0.003	22.4
-0.0053	0.0007	0.0015	0.0045	22.2
-0.0015	0.0015	0.0007	0.003	21.8
0.0007	0.0007	-0.0008	0.003	21.9
0.0015	-0.0015	-0.0015	0.0037	21.5
0.0007	-0.0015	-0.0053	0.0015	21.4
0.0007	-0.0038	-0.0091	0.0007	21.1
0.0037	-0.0038	-0.0068	0.0022	21.2
0.0075	-0.003	-0.0075	0.0007	20.7
0.003	-0.0053	-0.0098	-0.0008	20.6
-0.0023	-0.0046	-0.0091	-0.0023	20.3
-0.0068	-0.003	-0.0075	-0.0046	20.2
-0.0091	-0.0008	-0.0083	-0.0046	20
-0.0091	0	-0.0105	-0.0046	19.8
-0.0165	0.0015	-0.0046	-0.0046	19.6
-0.0256	0.0015	0.003	-0.006	19.5
-0.0256	0.0015	0.0082	-0.0046	19.5
-0.0158	0.0052	0.0112	-0.0008	19
0.0015	0.0082	0.0037	0.003	19
0.015	0.0105	-0.003	0.0082	18.7
0.0217	0.012	-0.0068	0.0105	18.7
0.027	0.0112	-0.0091	0.0135	18.1
0.027	0.0067	-0.0083	0.0157	18.1
0.0232	0.0052	-0.0075	0.0135	18
0.0195	0.0045	-0.0008	0.0097	18
0.018	0.0015	0.0067	0.0045	17.7
0.0142	-0.0008	0.0127	0.0022	17.5
0.009	-0.0015	0.0127	0.0007	17.3
0.0045	-0.003	0.009	-0.0008	17.1
0.0015	-0.003	0.0075	-0.0008	17
-0.0015	-0.0015	0.0037	-0.0008	16.7
-0.003	-0.0023	0.0015	-0.0015	16.7
-0.003	-0.0015	-0.0008	-0.003	16.6
-0.0053	-0.003	-0.0038	-0.0038	16.4
-0.0068	-0.0015	-0.0068	-0.0046	16.1
-0.0053	-0.0008	-0.0053	-0.0046	16.1
-0.0046	-0.0023	-0.0023	-0.0046	15.8
0	-0.0015	-0.0008	-0.0046	15.7
0.0015	-0.0015	-0.0023	-0.0046	15.7
-0.0008	-0.0015	-0.0023	-0.0068	15.4
0	-0.0015	-0.0023	-0.006	15.3
0.0015	0.0007	-0.003	-0.003	15.1
0.003	0.0015	-0.0023	-0.0015	15
0.0052	0.0015	-0.003	-0.0008	14.8
0.0067	0.0015	-0.0023	-0.0008	14.7
0.0045	0.0015	-0.0008	0.0015	14.6
0.0045	0.003	-0.0068	0.0015	14.3
0.0022	0.003	-0.0091	-0.0015	14.3
-0.003	0.0015	-0.0098	-0.0038	13.9
-0.0046	0.003	-0.0091	-0.0038	14
-0.0046	0.0052	-0.0098	-0.003	13.7
-0.0023	0.006	-0.0075	-0.0015	13.6
-0.0008	0.0037	-0.0038	-0.0008	13.5
-0.0023	0.003	0	-0.0015	13.5
-0.0023	0.0045	0.003	-0.0015	13.2
-0.0015	0.003	0.0007	-0.0008	13.2
-0.0046	0	-0.003	0.0007	12.8
-0.0046	0.0007	-0.0098	0.0015	12.8
0.0007	0.0015	-0.0158	0.0015	12.5
-0.0008	0.0015	-0.015	0.0015	12.6
0.0007	-0.0008	-0.0143	0.0015	12.2
0.0022	0.0015	-0.0128	0.0015	12.2
0.0022	0	-0.0091	0.003	12.1
0.003	0	-0.0046	0.003	11.8
0.0015	0.0015	0	0.003	11.9
0.0015	-0.0008	0.0007	0.003	11.6
0	-0.003	0.003	0.0045	11.7
-0.0015	-0.0053	0.003	0.003	11.2
-0.0046	-0.006	0.0052	0.0022	11.5
-0.0053	-0.0046	0.0105	0.0007	11
-0.0046	-0.003	0.0112	-0.0008	11.2
-0.0053	-0.0015	0.0112	-0.0015	10.7
-0.0046	-0.0015	0.0052	-0.0015	10.8
-0.0046	-0.0008	0.003	-0.0023	10.5
-0.0046	-0.0015	0.003	-0.003	10.6
-0.0008	-0.0008	0.0015	-0.0008	10.3
-0.0046	0.0037	-0.003	0.003	10.2
-0.0046	0.0067	-0.006	0.006	10
0.0015	0.0075	-0.0053	0.006	10
-0.0008	0.0067	-0.0046	0.0067	9.9
-0.0015	0.006	-0.0046	0.0067	9.5
-0.0008	0.0045	-0.0015	0.0067	9.7
0.0052	0.0052	-0.0008	0.0067	9.3
0.0165	0.0045	-0.0015	0.0037	9.3
0.0195	0.0022	-0.0008	0.0015	9.2
0.0172	0.0015	-0.0038	0.0007	9
0.0105	0.0007	-0.0128	-0.0015	8.8
-0.0008	0	-0.0173	-0.0015	8.8
-0.0158	-0.0015	-0.0098	-0.0008	8.7
-0.024	-0.0038	-0.0008	-0.0008	8.6
-0.027	-0.0046	0.0037	-0.0008	8.5
-0.0263	-0.0053	0.0105	-0.0046	8.4
-0.0315	-0.0083	0.0165	-0.0091	8.2
-0.0353	-0.0113	0.0225	-0.0105	8.1
-0.033	-0.0091	0.0202	-0.0068	8.1
-0.0188	-0.0008	0.0127	-0.0015	7.9
-0.0008	0.0075	0.0112	0.0037	7.8
0.0112	0.012	0.0097	0.009	7.7
0.0217	0.0142	0.0015	0.012	7.6
0.0285	0.0172	-0.0053	0.0127	7.5
0.03	0.0165	-0.0075	0.0105	7.3
0.0217	0.0127	-0.003	0.0067	7.2
0.0157	0.0105	0.0045	0.003	7.2
0.0127	0.0082	0.0022	0.0007	7.2
0.009	0.0037	-0.0023	-0.0008	7
0.0082	-0.0015	-0.0046	-0.0015	7
0.0082	-0.003	-0.0046	-0.0023	6.7
0.0067	-0.0053	-0.0083	-0.0046	6.7
0.0045	-0.0068	-0.0053	-0.0053	6.7
0.003	-0.0068	0.003	-0.0053	6.5
0	-0.0053	0.0022	-0.006	6.4
-0.0015	-0.006	0.0045	-0.0083	6.3
-0.0046	-0.0053	0.0022	-0.0068	6.3
-0.012	-0.0038	0.0022	-0.0053	6.1
-0.0143	-0.0023	0.003	-0.0046	6.1
-0.0105	-0.0015	0.0045	-0.0008	6
-0.0023	0	0.0157	0.003	6
0.0082	0.003	0.0135	0.003	5.8
0.0127	0.0037	0.0097	0.0045	5.8
0.0097	0.003	0.0187	0.0045	5.5
0.009	0.0022	0.0292	0.0037	5.7
0.0082	0.0007	0.0375	0.0022	5.3
0.0082	-0.0015	0.0202	0.0015	5.5
0.0075	0	-0.0053	0.003	5.1
0.0075	0.0015	-0.0143	0.0045	5.2
0.0045	-0.0008	-0.0105	0.0037	5
0.003	-0.0015	0.0015	0.0015	5
0.0045	-0.0015	0.0142	0	5
0.0037	-0.003	0.015	0.0007	4.9
0.0045	-0.0046	0.0052	0.0037	4.9
0.0037	-0.0046	-0.0015	0.0022	4.7
0	-0.0046	-0.0053	0	4.8
0.003	-0.0046	-0.0015	0.0022	4.7
0.0075	-0.0008	0.0075	0.003	4.8
0.009	0.0007	0.0007	0.0015	4.4
0.003	0.0015	-0.0181	0.0007	4.6
0.003	0.003	-0.0195	-0.0008	4.1
0.0007	0.0037	-0.015	-0.003	4.5
-0.0023	0.0045	-0.0158	-0.0038	4.1
0	0.003	-0.0135	-0.0023	4.4
0.0007	0.003	-0.012	-0.0008	4.4
0.0015	0.0007	-0.012	0.0007	4.2
0.0067	-0.0008	-0.0105	0.0015	4
0.0112	-0.003	-0.0038	0.0015	4.1
0.0067	-0.0068	-0.0038	-0.0008	4.3
0.0067	-0.0083	-0.0143	0.0007	3.9
0.0052	-0.006	-0.024	0.003	4.2
0.0015	-0.0068	-0.0233	0.003	4
-0.003	-0.0068	-0.0173	0.0022	4.2
-0.012	-0.006	-0.0068	-0.0008	4
-0.0158	-0.0068	-0.003	-0.0023	4.2
-0.0143	-0.0046	-0.0098	-0.003	4
-0.012	-0.0015	-0.012	-0.0046	4.1
-0.0098	0.0015	-0.012	-0.0023	4.1
-0.0068	0.0037	-0.0091	-0.0015	4.1
-0.0038	0.0067	-0.0113	-0.0015	4.1
-0.006	0.009	-0.015	-0.0008	4.2
-0.0083	0.009	-0.0083	0.0007	4.1
-0.0038	0.0112	-0.0053	0.0015	4.1
-0.003	0.012	-0.0046	0.003	4.2
-0.0053	0.0097	-0.0046	0.003	4
-0.0023	0.0082	0.0022	0.003	4.2
0.0022	0.0067	0.009	0.0007	4
0.0007	0.0045	0.0127	0.0007	4.2
-0.0008	0.003	0.0165	0.0007	4.1
0.0007	0.0015	0.0187	-0.0008	4.1
0.0015	0.0007	0.021	-0.0015	4
0.0037	-0.0023	0.018	0.0007	4
0.0022	-0.0038	0.0195	0	4
-0.0008	-0.003	0.0277	-0.0008	4.1
0.0015	-0.0023	0.033	-0.0015	4.1
0.003	-0.0023	0.027	-0.003	4.2
0.0022	-0.0008	0.0202	-0.0038	4
-0.0015	0	0.0142	-0.0046	4.1
-0.0075	0	0.0097	-0.0053	4.1
-0.006	0.0007	0.0082	-0.0046	4
0.0015	0.0022	-0.0008	-0.0023	4
0.003	0.0067	-0.003	-0.0023	4.1
0.0022	0.0082	-0.0083	-0.0023	4
0.003	0.0067	-0.0128	0.0007	4
0.0082	0.009	-0.0068	0.0045	4.1
0.0127	0.0075	-0.0008	0.0052	4.1
0.009	0.0052	0.006	0.006	4.1
0.009	0.003	0.0067	0.0082	4.1
0.0165	0.0015	-0.0008	0.009	4
0.024	0.0015	-0.0046	0.0067	4.2
0.0195	0.003	-0.003	0.009	4
0.0142	0.0045	-0.0068	0.0082	4.1
0.0097	0.0037	-0.003	0.0075	4.1
0.0045	0.0015	0.0037	0.0082	4.2
0.0007	0	0.0067	0.003	4.2
-0.0008	-0.0015	0.012	0.0007	4.1
-0.0015	-0.003	0.009	-0.0008	4.3
-0.006	-0.0038	0.0075	0.0007	4.2
-0.0053	-0.003	0.0045	0.0015	4.2
-0.0015	-0.0008	0.0007	0.0022	4.2
-0.0015	0.0007	0.0045	0.003	4.4
-0.0008	0.0007	-0.0008	0.003	4.3
0.0007	0.003	-0.0143	0.003	4.4
0.0037	0.0045	-0.0233	0.0037	4.4
0.012	0.0045	-0.0158	0.0045	4.5
0.0165	0.0037	-0.0143	0.0067	4.3
0.0135	0.0052	-0.012	0.0082	4.6
0.0052	0.0067	-0.0023	0.0067	4.5
0.0007	0.0045	-0.0008	0.006	4.5
-0.0008	0	-0.0038	0.0045	4.7
-0.0008	-0.0015	-0.0015	0.006	4.6
0.003	0.0007	0.0067	0.0105	4.7
0.0015	-0.0008	0.012	0.0142	4.6
-0.0015	-0.0008	0.0142	0.0195	4.8
-0.0038	-0.0008	0.015	0.0225	4.7
-0.0075	-0.006	0.0127	0.0195	4.9
-0.0068	-0.0091	0.0142	0.0142	4.7
-0.0008	-0.0105	0.0142	0.0007	4.9
0.0007	-0.0105	0.0067	-0.0068	4.9
-0.0008	-0.0068	-0.003	0.009	5
0.0007	-0.0038	-0.0075	0.0127	4.8
-0.0015	-0.006	-0.0091	0.003	4.9
0.0022	-0.0128	-0.0068	-0.0083	4.9
0.003	-0.0128	-0.0053	-0.039	5.2
0.0015	-0.0091	-0.0068	-0.0728	5
0.0022	-0.0068	-0.003	-0.075	5.1
0.003	-0.0008	-0.003	-0.0458	5.2
0.0045	0.0007	-0.0015	-0.0218	5.2
0.0045	0.0045	-0.0008	-0.0346	5.3
0.006	0.009	-0.0046	-0.0503	5.1
0.006	0.012	-0.0046	-0.0256	5.3
0.0052	0.015	-0.006	0.0105	5.3
0.0082	0.0165	-0.0068	0.03	5.4
0.009	0.018	-0.006	0.039	5.3
0.0082	0.0142	-0.012	0.0247	5.3
0.006	0.0075	-0.0188	0.018	5.4
0.0052	0.0105	-0.0165	0.0255	5.4
0.0037	0.012	-0.0105	0.0112	5.5
0.0007	0.0075	-0.0083	-0.0068	5.3
-0.003	0	-0.0083	-0.0181	5.5
-0.0053	0.0015	-0.0091	-0.0256	5.5
-0.0053	0.0052	-0.0113	-0.021	5.7
-0.003	0.0037	-0.0128	0.009	5.7
-0.0015	0.0097	-0.0143	0.0705	5.7
-0.0068	0.0082	-0.0091	0.0952	5.7
-0.0135	-0.0113	0.0015	0.0765	5.7
-0.0173	-0.0315	0.003	0.0607	5.8
-0.0173	-0.0518	0.0075	0.0052	5.8
-0.015	-0.0623	0.0127	-0.0818	6
-0.0165	-0.048	0.0165	-0.1073	5.8
-0.0143	-0.0233	0.015	-0.0743	6.1
-0.0091	-0.003	0.0075	-0.0353	5.8
-0.0053	0.0127	0.0045	-0.006	6.1
-0.0008	0.0232	0.0067	0.0075	6
-0.003	0.027	0.0082	0.012	6.2
-0.0053	0.0285	0.0075	-0.0128	6.1
-0.003	0.0255	0.0067	-0.0181	6.2
0.0015	0.024	0.0052	0.0187	6.1
0.0045	0.0255	0.0082	0.0307	6.2
0.0015	0.0142	0.009	0.009	6.3
-0.0008	0.0067	0.0075	-0.024	6.2
-0.0038	0.0097	0.003	-0.0458	6.4
-0.0046	0.0067	0	-0.0091	6.3
-0.0053	-0.0023	0.0015	0.0405	6.6
-0.0075	-0.0098	0.0045	0.0472	6.4
-0.0098	-0.0091	0.0022	0.0435	6.7
-0.0128	-0.0053	-0.003	0.033	6.4
-0.012	-0.0008	-0.0098	0.0382	6.6
-0.0091	0.0037	-0.0128	0.0532	6.3
-0.006	0.0075	-0.0128	0.063	6.5
-0.0053	-0.0008	-0.0098	0.0577	6.3
-0.0046	-0.0135	-0.006	0.0067	6.5
-0.0046	-0.003	-0.0098	-0.045	6.4
-0.0046	0.009	-0.0143	-0.048	6.4
-0.0046	0.0105	-0.0181	-0.024	6.3
-0.0053	0.0105	-0.0165	-0.0293	6.1
-0.006	0.0082	-0.0165	-0.0518	6.1
-0.0075	0.006	-0.0195	-0.048	5.9
-0.006	0.009	-0.0248	-0.0053	6.2
-0.003	0.0157	-0.0278	0.0052	5.8
-0.0008	0.0217	-0.021	-0.0015	6.2
0.0015	0.018	-0.0128	0.0217	5.8
0.0022	0.0127	-0.0083	0.0022	5.9
0.0045	0.003	-0.0008	-0.03	5.7
-0.0008	-0.012	0.0052	-0.0158	5.8
-0.0046	-0.0218	0.009	0.0412	5.8
0.0097	-0.0315	0.0157	0.0555	5.6
0.0232	-0.0413	0.027	0.0255	5.4
0.0165	-0.0465	0.024	0.0067	5.3
0.0105	-0.039	0.0195	0.0052	5.1
0.009	-0.0203	0.0277	0.0225	5
0.0052	0.0067	0.0262	0.0007	5
0.0015	0.03	0.0307	-0.0165	4.7
-0.0008	0.0382	0.03	0.0232	4.8
-0.0008	0.0375	0.0247	0.054	4.4
0.003	0.0202	0.021	0.0285	4.4
-0.0015	-0.0113	0.0052	-0.0083	4.1
-0.0083	-0.0293	0.0067	-0.0075	4
-0.0068	-0.0405	0.0082	-0.0263	4
-0.0053	-0.0563	0.0082	-0.075	3.8
-0.003	-0.0368	0.0105	-0.0653	3.9
-0.0023	-0.006	-0.006	-0.015	3.6
-0.0046	0.0022	-0.0248	-0.0053	3.6
0.0045	0.0112	-0.0293	0.0007	3.6
0.0097	0.015	-0.0158	0.0037	3.5
0.006	0.0165	0.0045	-0.0015	3.4
0.0045	0.018	0.0172	0.006	3.6
0.003	0.015	0.0337	0.0105	3.4
0.0067	0.018	0.0457	0.0187	3.3
0.0082	0.0217	0.0405	0.018	3.3
0.009	0.0195	0.03	0.0157	3.1
0.0105	0.015	0.0165	0.0195	3.3
0.0067	0.0082	0.0015	0.0202	3.1
0.0052	0.0007	-0.0091	0.021	3.2
0.0045	-0.0091	-0.0218	0.006	3.1
0.0007	-0.0143	-0.033	-0.0256	3.2
-0.0015	-0.0135	-0.033	-0.048	3.1
-0.0008	-0.0075	-0.0503	-0.0293	3.3
0.0045	0	-0.0555	0.0075	3.1
0.0195	0.0045	-0.0173	0.0217	3.6
0.0352	0.0075	0.0112	-0.0083	3.2
0.0465	0.0082	0.0165	-0.033	3.3
0.0517	0.0127	0.024	-0.0443	3.6
0.0465	0.0097	0.024	-0.0278	3.6
0.0352	0.009	0.0142	-0.0008	3.7
0.0217	0.0135	-0.0046	-0.0308	3.8
0.0112	0.0172	-0.024	-0.024	4.1
0.003	0.021	-0.0323	0.0172	4.1
0	0.0202	-0.033	0.0315	4.3
-0.0023	0.0172	-0.0195	0.0322	4.2
-0.0083	0.0127	-0.003	0.0157	4.7
-0.0143	0.012	0.0052	0.024	4.6
-0.015	0.0142	0.0097	0.033	4.9
-0.0158	0.0165	0.0082	0.0165	4.9
-0.0181	0.0195	-0.0023	-0.0046	5.2
-0.0188	0.0232	-0.0203	-0.012	5.1
-0.0195	0.0165	-0.0338	0.0105	5.3
-0.021	0.0037	-0.0346	0.0075	5.3
-0.0233	-0.012	-0.0293	-0.024	5.6
-0.024	-0.0278	-0.0293	-0.0293	5.8
-0.0188	-0.0285	-0.027	-0.0225	5.6
-0.0165	-0.03	-0.024	-0.0038	6
-0.0181	-0.0278	-0.0218	0.0067	5.8
-0.0158	-0.0195	-0.0173	0.0052	6.2
-0.0128	-0.0105	-0.0165	0.0067	5.9
-0.0105	-0.0008	-0.021	0	6.2
-0.0075	0.0082	-0.0233	0.0127	6.1
-0.0075	0.0225	-0.0225	0.021	6.2
-0.0075	0.0225	-0.0195	0.0105	6.3
-0.0053	0.0247	-0.0143	0.0022	6.2
-0.0038	0.0217	-0.0053	0.0007	6.4
-0.0015	0.0015	0.0037	0.012	6.5
0.0045	-0.0083	0.0052	0.0075	6.5
0.0067	-0.0188	0.0105	0.0112	6.4
0.006	-0.027	0.0157	0.0097	6.6
0.006	-0.0293	0.0187	0.0045	6.4
0.0052	-0.0353	0.0187	0.0127	6.4
0.0052	-0.0173	0.0105	0.0405	6.5
0.0052	0.0015	0.0037	0.069	6.5
0.0052	0.0015	0.0067	0.0637	6.4
0.0015	0.0045	0.0157	0.0442	6.4
0.0015	0.003	0.0255	0.0247	6.4
0.0015	-0.0053	0.0375	-0.0278	6.3
-0.0008	-0.012	0.039	-0.1298	6.3
0.0015	-0.0053	0.0382	-0.1523	6.3
0.009	0.0052	0.042	-0.0923	6.4
0.0142	0.0052	0.042	-0.057	6.2
0.0157	0.0097	0.0412	0.0067	6.4
0.0135	0.0127	0.0382	0.036	6.2
0.015	0.0172	0.0285	0.0217	6.2
0.0135	0.0127	0.0202	0.0157	6.1
0.012	0.003	0.0142	-0.0046	6
0.012	-0.0038	0.009	0.0157	6.2
0.0127	-0.0091	0.0105	0.0315	5.9
0.0082	-0.012	0.0127	0.0307	6.1
0.0015	-0.0173	0.012	0.0292	5.9
-0.0038	-0.0143	0.0082	0.0037	6
-0.0046	-0.0105	0.0067	-0.0263	5.8
-0.003	-0.0023	0	-0.048	5.9
-0.003	0.0045	-0.0105	-0.0375	5.7
0.0015	0.009	-0.0091	-0.0068	5.8
0.009	0.024	-0.0008	0.024	5.7
0.0142	0.03	0.0007	0.0292	5.7
0.0157	0.024	0.0007	0.039	5.6
0.0157	0.0097	0	0.0352	5.6
0.003	0	0.0007	0.0067	5.6
-0.006	-0.003	0.0015	0.0442	5.6
-0.0015	-0.0053	-0.0008	0.0615	5.7
0	-0.0158	-0.0053	0.0255	5.3
0.0067	-0.027	-0.0046	-0.063	5.5
0.0142	-0.0091	-0.0068	-0.1215	5.3
0.0097	0.009	-0.0053	-0.0315	5.7
0.009	0.0045	0.0052	0.0375	5.4
0.006	0.0007	0.009	0.0375	5.4
0.0037	-0.0083	0.0082	-0.0203	5.4
-0.0008	-0.0143	0.0105	-0.0706	5.3
-0.0053	-0.0068	0.009	-0.0053	5.4
-0.0091	-0.0068	0.009	0.0045	5.3
-0.0173	-0.0143	0.009	0.0037	5.5
-0.0256	-0.0218	0.0037	0.0375	5.3
-0.0285	-0.0233	-0.0046	-0.0195	5.5
-0.0293	-0.0195	-0.0038	-0.0608	5.5
-0.0233	-0.0158	-0.0046	-0.0405	5.3
-0.0173	-0.0083	-0.0098	-0.0338	5.3
-0.0173	0.0232	-0.0181	-0.0143	5.3
-0.0165	0.0525	-0.0218	0.0157	5.3
-0.0105	0.0555	-0.0113	0.0495	5.2
-0.0068	0.045	-0.003	0.09	5.5
-0.003	0.0277	-0.0046	0.096	5.3
-0.0015	0.012	-0.0113	0.0915	5.5
-0.0008	-0.0113	-0.0105	0.108	5.5
-0.0023	-0.0458	0.0007	0.069	5.7
-0.0053	-0.0668	0.0037	-0.0698	5.4
-0.0046	-0.0428	0.003	-0.1133	5.7
-0.0015	-0.0165	0.0007	-0.0788	5.5
-0.0023	-0.0046	-0.0046	-0.0953	5.8
-0.0008	0.0187	-0.003	-0.024	5.8
0.0007	0.0292	-0.006	0.0165	5.5
0	0.0352	-0.0143	-0.0091	5.6
0	0.039	-0.021	0.0067	5.6
-0.0008	0.0367	-0.0263	-0.006	5.9
-0.0023	0.0322	-0.03	-0.0233	5.6
-0.0046	0.0292	-0.027	-0.03	5.9
-0.0008	0.0345	-0.024	-0.0015	5.7
0.0052	0.0202	-0.027	0.0547	6
-0.0015	-0.0075	-0.021	0.0615	5.8
-0.0068	-0.0203	-0.0105	0.0202	6
-0.006	-0.0015	-0.003	-0.0015	5.8
-0.0046	0.0037	-0.0008	0.012	6.1
-0.0008	-0.0053	-0.006	-0.027	5.8
0.003	0	-0.0015	-0.0578	6
0.0052	0.0075	0.003	0.0142	5.8
0.006	0.009	-0.0046	0.06	6
0.009	-0.0091	-0.0053	0.081	6.2
0.012	-0.0353	-0.0053	0.066	5.9
0.0142	-0.0518	-0.0091	-0.0068	6
0.0142	-0.0405	-0.0015	-0.003	5.9
0.0127	-0.0315	0.0105	-0.0113	6
0.0112	-0.0308	0.018	-0.0353	6
0.0105	-0.0195	0.0195	-0.0375	6
0.0075	-0.0105	0.0262	-0.0848	6
0.0052	0.0202	0.0307	-0.0863	5.9
0.0067	0.051	0.024	-0.06	5.9
0.0037	0.0405	0.018	-0.0143	6
0	0.0157	0.0142	0.0592	6.1
0	-0.0068	0.009	0.0577	5.8
0.0007	-0.015	-0.0008	0.033	6
0.006	-0.0113	-0.0053	-0.0008	5.8
0.0052	-0.0053	0.0007	-0.0165	5.9
0	0.006	0.0022	0.0255	5.8
0.0015	0.009	-0.0008	0.0067	5.9
0.006	0.0142	-0.003	-0.027	5.8
0.0052	0.0292	-0.0015	0.0052	5.7
0.0052	0.0315	0.0007	0.0375	5.8
0.006	0.0345	-0.0023	0.039	5.7
0.0037	0.0315	-0.0091	0.0405	5.6
0.0037	0.0187	-0.0263	0.0847	5.4
0.0037	-0.0015	-0.0405	0.0787	5.8
0.0015	-0.015	-0.0346	0.0195	5.4
-0.003	-0.0218	-0.0225	-0.0533	5.8
-0.0046	-0.0256	-0.0023	-0.1028	5.5
-0.003	-0.0173	0.018	-0.1028	5.7
-0.0015	0.0045	0.0292	-0.0975	5.6
0.0037	0.024	0.0352	-0.0075	5.7
0.0067	0.0165	0.027	0.0637	5.7
0.0082	-0.0015	0.0165	0.0712	5.7
0.0105	-0.0181	0.003	0.0847	5.6
0.0142	-0.0346	-0.0068	0.0427	5.3
0.0097	-0.0533	-0.0068	-0.0428	5.7
0.0082	-0.0488	-0.0113	-0.1006	5.4
0.0082	-0.0233	-0.0135	-0.0653	5.6
0.0052	-0.0038	-0.0091	-0.0683	5.3
0.0052	0.0157	-0.0046	-0.0615	5.6
0.0067	0.0202	-0.0068	0.0405	5.5
0.009	0.012	-0.0143	0.0772	5.6
0.0067	0.0037	-0.0165	0.081	5.3
0.0007	0.0015	-0.0128	0.0742	5.5
0.003	0.003	-0.012	0.0817	5.5
0.0045	-0.006	-0.0128	0.0817	5.4
-0.0008	-0.0046	-0.0128	-0.0675	5.4
-0.0015	-0.0068	-0.0135	-0.1455	5.4
-0.0075	-0.015	-0.012	-0.066	5.5
-0.0128	-0.0091	-0.0195	-0.048	5.5
-0.012	-0.0068	-0.0293	-0.0405	5.5
-0.0181	-0.0083	-0.033	-0.0083	5.4
-0.0218	-0.0083	-0.0308	0.0232	5.7
-0.0203	-0.0023	-0.0091	0.0142	5.4
-0.0128	0.0172	0.006	-0.0338	5.6
-0.0053	0.0352	0.009	-0.0083	5.5
0.0052	0.0502	0.003	0.0435	5.7
0.0075	0.0502	-0.0008	0.0637	5.5
0.0052	0.0315	0.0127	0.0517	5.6
0.0112	0.012	0.021	0.0495	5.5
0.0052	0	0.0195	0.0547	5.5
-0.0038	-0.0105	0.0195	-0.0075	5.5
-0.0091	-0.0293	0.0195	-0.0533	5.4
-0.0083	-0.0436	0.0217	-0.0818	5.5
-0.0068	-0.0225	0.018	-0.0885	5.5
-0.0068	0.0127	0.0105	-0.0278	5.5
-0.0105	0.0157	0.003	-0.003	5.5
-0.0135	0.0165	0	0.0157	5.5
-0.0105	0.0142	-0.0038	0.0195	5.5
-0.0046	0.0075	-0.0143	0.0135	5.5
-0.0053	-0.0008	-0.0203	0.0277	5.4
-0.0105	-0.0091	-0.0158	0.018	5.4
-0.0053	-0.0053	-0.0053	0	5.3
-0.003	0.0045	-0.0008	-0.0181	5.3
-0.0053	0.012	0.0045	-0.0091	5.5
0.0037	0.015	0.0045	0.0082	5.4
0.0105	0.0202	0.0015	0.0397	5.4
0.012	0.0127	0.0052	0.063	5.3
0.0112	-0.0068	0.009	0.066	5.5
0.0067	-0.0218	0.018	0.0615	5.3
0.0045	-0.024	0.0292	-0.0015	5.4
0.003	-0.0188	0.033	-0.0458	5.3
0.0007	-0.0143	0.033	-0.0195	5.4
-0.0008	-0.003	0.0307	0.0255	5.5
0.0007	-0.0015	0.0195	0.0457	5.5
-0.0008	-0.0046	0.012	0.0367	5.6
-0.0038	0.006	0.0127	0.0142	5.3
-0.003	0.0165	0.0127	-0.012	5.5
0.0007	0.0225	0.0135	-0.0105	5.4
0.0007	0.0022	0.0097	-0.0361	5.4
0.0007	-0.0068	-0.0008	-0.0533	5.4
0.0045	0.0082	-0.0113	0.009	5.4
0.006	0.009	-0.0068	-0.0278	5.3
0.003	0.009	0.0045	-0.093	5.5
0	0.018	0.0082	-0.0706	5.4
-0.0015	0.0277	0.009	-0.0165	5.5
0	0.0232	0.015	0.0555	5.6
0.0045	-0.0015	0.0217	0.0285	5.5
0.0127	-0.015	0.0172	0.0142	5.5
0.018	-0.0248	0.0105	0.0352	5.5
0.0195	-0.0458	0.0142	0.0217	5.7
0.018	-0.0525	0.0127	-0.0113	5.5
0.0127	-0.0405	0.0082	-0.0495	5.6
0.009	-0.0225	0.009	-0.0015	5.5
0.0082	0.0007	0.0045	0.0075	5.8
0.0015	0.0262	-0.0008	-0.0293	5.7
0.0015	0.0405	-0.0068	-0.0361	5.6
0.0007	0.0442	-0.0083	-0.0181	5.8
-0.003	0.0352	0.0007	-0.0105	5.8
-0.0015	0.0217	-0.0015	-0.0383	5.8
-0.0008	0.0105	-0.0098	-0.0353	5.8
0.0045	-0.0008	-0.0165	-0.0091	5.7
0.0045	-0.012	-0.0068	0.0157	5.8
0	-0.0181	0.0127	0.0172	6
-0.0083	-0.0135	0.0202	0.0262	5.9
-0.012	-0.0046	0.0165	0.033	6.1
-0.0091	0.0007	-0.0015	0.0232	6
-0.0128	0.0052	-0.003	0.0292	6
-0.012	0.006	0.0135	0.033	6.1
-0.0091	0.006	0.0195	0.039	6
-0.0046	0.006	0.0277	0.039	6.1
-0.003	0.0007	0.0195	0.0345	6.1
-0.0105	-0.0046	0.0015	0.0225	6.1
-0.0113	-0.006	-0.0053	-0.0091	6.1
-0.0083	-0.006	-0.0091	-0.0361	6.4
-0.0046	-0.0015	0.0082	-0.0405	6.1
-0.0023	0.0045	0.0367	-0.0181	6.3
0	0.0015	0.0352	0.0255	6.3
0.0007	-0.0046	0.0157	0.0277	6.4
-0.003	-0.0068	0.006	0.009	6.5
-0.006	-0.0098	0.003	0.0165	6.3
-0.0053	-0.0075	-0.003	0.0195	6.4
0.003	-0.0046	-0.0105	0.027	6.3
0.0067	-0.0068	-0.0181	0.0367	6.5
0.0082	-0.0128	-0.024	-0.0023	6.3
0.0067	-0.0015	-0.027	-0.0683	6.6
0.0037	0.0142	-0.0225	-0.0443	6.4
0.0052	0.0277	-0.0135	0.0165	6.7
0.0015	0.0352	-0.0173	0.0525	6.4
-0.0023	0.0247	-0.0225	0.0615	6.7
-0.0046	0.0082	-0.0181	0.033	6.6
-0.0105	-0.0173	-0.0143	0.0007	6.7
-0.0075	-0.0346	-0.0091	-0.0353	6.6
-0.0023	-0.0323	-0.0105	-0.0706	6.6
0.0007	-0.0218	-0.0143	-0.0638	6.7
0.0015	-0.0083	-0.0128	0.0045	6.7
-0.0008	-0.006	-0.0143	-0.0165	6.8
-0.0046	0.006	-0.0158	-0.0915	6.5
-0.0008	0.0285	-0.0113	-0.0518	6.8
0.006	0.018	-0.0203	-0.0233	6.5
0.0067	0.003	-0.027	-0.0181	6.7
0.006	0.0052	-0.0203	0.0135	6.6
0.0052	0.0022	-0.0195	0.0457	6.9
0.003	-0.0053	-0.0195	0.0607	6.6
0	-0.0083	-0.0165	0.069	6.7
-0.0038	0.0007	-0.0181	0.054	6.7
-0.0053	0.0157	-0.0195	0.009	6.6
-0.0038	0.0105	-0.0158	-0.0046	6.7
-0.0023	-0.0053	-0.0173	-0.0428	6.7
-0.0015	0.0045	-0.0181	-0.0825	6.5
0.0022	0.0247	-0.015	-0.0608	6.7
0.0045	0.0277	-0.0165	-0.0158	6.7
0.0045	0.0255	-0.0075	0.0472	6.7
0.0075	0.0127	-0.003	0.0952	6.7
0.006	-0.0098	-0.0015	0.054	6.6
0.0015	-0.0128	0.0015	-0.0458	6.7
-0.003	0.0007	-0.0068	-0.006	6.5
-0.0046	-0.0046	-0.0075	0.0442	6.5
-0.0038	-0.0128	0.0037	-0.0091	6.7
-0.0046	-0.0091	0.0105	0.003	6.7
-0.0098	-0.0188	0.0082	-0.0361	6.7
-0.0098	-0.0046	0.0022	-0.0555	6.4
-0.0068	0.0075	-0.003	-0.0346	6.7
-0.003	-0.0046	-0.0075	-0.0405	6.4
0.003	0.0007	-0.0023	-0.0263	6.7
0.0082	0.0007	0.0052	-0.0338	6.5
0.0142	0.0052	0.0075	0.009	6.7
0.0195	0.003	0.0082	0.0097	6.6
0.0142	0.0015	0.0082	0.0007	6.4
0.006	0.003	0.0142	0.009	6.6
0.0022	-0.0038	0.0142	-0.003	6.5
-0.0046	-0.0046	0.0097	0.0052	6.7
-0.006	-0.0158	0.0135	0.0007	6.7
0.0007	-0.0158	0.015	0.015	6.7
0.006	-0.0046	0.009	0.0195	6.5
0.0075	0.003	0.0007	0.027	6.8
0.003	0.0052	-0.0046	0.027	6.5
-0.0053	0.0067	-0.0023	0.018	6.9
-0.006	0.0067	0.0015	0.018	6.5
-0.0008	0.0037	0.0015	0.0052	6.8
0.0067	-0.0068	0.0015	-0.0053	6.6
0.0082	-0.0233	0.0015	-0.0263	6.7
0.0075	-0.0233	0.006	0.003	6.7
0.0112	-0.0128	0.0105	0.0292	6.8
0.0112	0.0217	0.009	0.0202	6.8
0.0142	0.0502	0.0067	0.0622	6.6
0.0157	0.0427	-0.0008	0.1005	7
0.0142	0.0157	-0.003	0.1005	6.7
0.009	-0.0143	0.0022	0.0712	6.7
0.003	-0.0375	0.0075	-0.0165	6.6
0.0015	-0.0473	0.0067	-0.0818	6.7
0.0022	-0.0383	0.0075	-0.1088	6.6
0.0045	-0.0008	0.0045	-0.1103	6.9
0.0052	0.0292	-0.0015	-0.0578	6.7
0.0082	0.0255	-0.0015	-0.0135	6.7
0.0082	0.0315	-0.0068	0.0075	6.6
0.0067	0.0202	-0.0105	-0.0008	6.6
0.0045	0.006	-0.0165	-0.0135	6.6
0.0022	0.0052	-0.0195	0.018	6.5
0.0007	0.0022	-0.0188	0.0667	6.6
-0.0023	0.009	-0.0203	0.075	6.4
-0.0008	0.0052	-0.0218	0.063	6.6
0.0015	0.0082	-0.0225	0.036	6.3
0.0052	0.0105	-0.0181	0.0075	6.4
0.006	-0.0173	-0.0135	-0.024	6.3
0.0015	-0.0555	-0.0113	-0.1095	6.4
0.0007	-0.0473	-0.003	-0.1553	6.3
-0.0008	-0.0165	0.0067	-0.1193	6.4
0.003	0.0082	0.0067	-0.084	6.3
0.0067	0.0382	0.0007	-0.0158	6.3
0.0052	0.0397	-0.0015	0.0307	6.3
0.003	0.027	-0.0038	0.0435	6.3
-0.0008	0.012	-0.0015	0.063	6.2
-0.0015	0.0105	0.0015	0.0322	6.3
-0.0046	0.0217	0.0007	0.024	6.2
-0.006	0.0052	0.0037	0.0187	6.1
-0.0083	-0.003	0.006	0.015	6.1
-0.0068	-0.0098	0.0052	0.027	5.9
-0.0023	-0.0218	0.0045	-0.0053	6.1
0	-0.0203	0.0067	-0.0398	5.9
0.0045	-0.0128	0.0067	-0.0203	6.1
0.006	-0.003	0.0015	0.0195	5.9
0.006	-0.0008	-0.0008	0.0127	5.9
0.0052	-0.0008	-0.0038	0.018	5.9
0.0037	-0.0023	-0.006	0.027	5.9
-0.0008	-0.0008	-0.0068	0.0187	5.8
-0.0046	0.0007	-0.0068	0.0082	5.8
-0.0046	-0.0023	-0.003	-0.0218	5.9
-0.0053	0.0007	-0.0023	-0.0128	5.8
-0.0046	0.0037	0.0007	-0.0091	5.8
-0.0075	0.0022	0.0075	-0.0165	5.8
-0.0068	0.003	0.0105	0.0067	5.8
-0.0046	0.0075	0.012	0.0375	5.8
-0.0023	0.0075	0.012	0.0607	5.7
0.0007	-0.003	0.0127	0.0502	5.8
0.0007	-0.0053	0.0105	0.033	5.7
-0.0008	-0.0046	0.0127	0.0202	5.8
-0.003	-0.003	0.015	0.0127	5.6
-0.0015	-0.0091	0.0165	-0.024	5.8
-0.003	-0.0083	0.0202	-0.0578	5.5
-0.0023	-0.0023	0.0135	0.009	5.8
0.0007	-0.0068	0.009	0.0165	5.6
0.0015	0.0067	0.003	-0.0353	5.7
0.0045	0.0127	0.0015	0.0015	5.6
0.0045	0.006	0.0015	0.0045	5.6
0.009	0.009	-0.0053	-0.0008	5.5
0.0127	0.0052	-0.0135	0.0142	5.6
0.0127	0.0015	-0.027	0.0052	5.5
0.0082	-0.0053	-0.0256	0.0105	5.5
-0.0015	-0.0053	-0.012	-0.0046	5.6
-0.006	-0.0015	0.0082	-0.0038	5.5
-0.0068	-0.0046	0.0232	-0.0015	5.7
-0.0075	0	0.0255	-0.0046	5.4
-0.015	0.0007	0.027	0	5.6
-0.0263	0.0067	0.0247	-0.003	5.5
-0.0308	0.0105	0.0292	0.0022	5.6
-0.0218	0.0127	0.039	0.003	5.5
0.0052	0.0157	0.0315	0.009	5.5
0.0195	0.0172	0.009	0.009	5.5
0.0105	0.0142	-0.0075	0.0067	5.4
0.003	0.0067	-0.0083	0.0052	5.5
-0.0023	0.003	-0.0083	-0.0015	5.4
-0.0053	0.0007	-0.0075	-0.0008	5.4
-0.0068	-0.0015	-0.0068	-0.003	5.4
-0.0068	-0.0046	-0.006	-0.003	5.5
-0.003	-0.0053	-0.003	-0.0053	5.4
-0.0008	-0.0083	-0.0023	-0.0068	5.5
0.0015	-0.0083	-0.0038	-0.0046	5.3
0.0022	-0.0098	-0.0083	-0.0046	5.5
0.0022	-0.0105	-0.0075	-0.0038	5.5
0.003	-0.0075	-0.0068	-0.0046	5.4
0.003	-0.0068	-0.0105	-0.0038	5.5
0.003	-0.0046	-0.012	-0.0046	5.3
0.003	-0.0046	-0.0128	-0.0046	5.5
0.0037	-0.003	-0.0083	-0.006	5.4
0.0022	-0.0015	-0.0053	-0.0083	5.6
-0.003	0.0007	-0.0015	-0.0091	5.4
-0.0068	0.0045	0.0045	-0.0091	5.5
-0.0083	0.0052	-0.0008	-0.003	5.5
-0.0091	0.0067	-0.0015	0.0082	5.6
-0.0046	0.006	0.0052	0.0217	5.5
0.0052	0.0067	0.003	0.0225	5.4
0.0105	0.012	-0.0008	0.0195	5.6
0.0082	0.009	-0.0038	0.018	5.5
0.0015	0.0007	-0.003	-0.006	5.8
0.0022	0.0015	-0.0015	-0.0263	5.4
0.0037	0.0015	-0.0053	-0.0248	5.8
0.0045	0.0052	-0.0075	-0.03	5.5
0.0052	0.006	-0.0128	-0.0113	5.7
0.003	-0.0015	-0.0181	0.012	5.5
0.0045	-0.0038	-0.0188	0.003	5.7
0.003	-0.0046	-0.021	0.0052	5.4
0.0052	-0.003	-0.0225	0.0135	5.7
0.0052	-0.006	-0.021	0.0195	5.5
0.0007	-0.006	-0.0233	0.0217	5.6
-0.0023	-0.0046	-0.0278	0.0202	5.5
-0.0038	-0.0053	-0.0293	0.0232	5.7
-0.0068	-0.0083	-0.0188	0.018	5.8
-0.0098	-0.015	-0.0053	-0.0135	5.6
-0.0135	-0.0128	-0.003	-0.0653	5.8
-0.0143	-0.0015	-0.0038	-0.0503	5.6
-0.0091	0.0075	-0.006	-0.0023	5.8
-0.0046	0.0075	-0.003	-0.012	5.7
-0.0046	0.0067	0.0022	-0.0015	5.8
0.0007	0.0075	0	0.009	5.8
-0.0015	0.006	-0.0038	0.0015	5.9
-0.0046	0.0067	-0.0105	0.0112	5.8
-0.003	0.0067	-0.0098	0.0075	5.9
-0.0053	0.0067	0.003	0.012	5.8
-0.0038	0.0105	0.0157	0.0127	6
0.0015	0.009	0.021	0.0105	5.8
0.006	0.0045	0.0187	0.0112	6
0.0052	-0.0008	0.0232	0.006	5.9
0.0052	-0.003	0.0262	0.0082	6
0.0052	-0.0038	0.027	0.0097	6.1
0.0082	-0.0068	0.0315	0.018	6.1
0.0112	-0.0083	0.027	0.0277	6.1
0.012	-0.0068	0.021	0.0277	6.2
0.012	-0.0053	0.0202	0.0217	6.2
0.012	-0.0053	0.021	0.015	6.3
0.0127	-0.0083	0.0202	0	6.2
0.0127	-0.0083	0.021	-0.0465	6.2
0.0127	-0.0015	0.0165	-0.0923	6.1
0.009	0.009	0.0187	-0.0698	6.4
0.0037	0.0142	0.0255	-0.0173	6.2
-0.003	0.0112	0.0292	0.015	6.4
-0.0105	0.0127	0.0292	0.021	6.5
-0.0158	0.015	0.0247	0.018	6.5
-0.0188	0.012	0.018	0.0127	6.5
-0.0233	0.0105	0.0127	0.0015	6.4
-0.0173	0.0127	0.0157	0.0082	6.6
-0.0046	0.012	0.0105	0.0082	6.5
0.0007	0.0075	0.0015	0.0067	6.7
0.0045	0.009	-0.003	0.0112	6.5
0.0015	0.0067	-0.0105	0.012	6.7
-0.003	0.0037	-0.0091	0.0112	6.4
-0.0046	0.0015	-0.0091	0.009	6.8
-0.0053	0.0015	-0.0098	0.0277	6.5
-0.006	-0.003	-0.0091	0.051	6.7
-0.0083	-0.0105	-0.0105	0.0352	6.4
-0.0068	-0.0008	-0.0128	-0.0256	6.7
-0.0053	0.009	-0.0181	-0.0083	6.7
-0.0053	0.0067	-0.0188	0.033	6.7
-0.006	0.0015	-0.0165	-0.0233	6.6
-0.006	-0.0195	-0.0158	-0.0691	6.5
-0.0023	-0.0368	-0.0158	-0.0293	6.9
0	-0.033	-0.0143	0.0577	6.7
0	-0.0256	-0.0143	0.0075	6.7
-0.0023	-0.0075	-0.0158	-0.0735	6.6
-0.0015	0.0255	-0.021	-0.0098	6.7
0	0.0292	-0.0218	0.012	6.5
-0.0008	-0.003	-0.0158	0.0112	6.9
0.0015	-0.0278	-0.0173	0.051	6.7
-0.003	-0.024	-0.0143	-0.0256	6.8
-0.0046	-0.0068	-0.0105	-0.0668	6.7
-0.0015	-0.0165	-0.0135	-0.0285	6.8
0.0015	-0.0091	-0.0143	-0.0623	6.7
0.003	0.0045	-0.0105	0.0255	6.8
0.0045	0.0067	-0.0008	0.0585	6.8
0.0082	0.0097	0.0045	-0.003	6.9
0.003	0.0105	0.003	-0.015	6.9
0.0015	0.033	-0.003	0.0052	6.7
0.0007	0.0307	-0.0015	0.072	7
0	0.0157	-0.003	0.0345	6.7
0.0052	0.0007	-0.0083	0.0652	7
0.0127	-0.0225	0.0007	0.1065	6.8
0.0082	-0.048	0.0067	0.0405	6.9
0.003	-0.0563	0.009	-0.1365	6.7
0.0045	-0.012	0.0105	-0.2438	6.9
0.006	0.0142	0.003	-0.0691	6.9
0.0075	0.0292	-0.0053	0.027	6.8
0.0105	0.036	-0.0098	0.0442	6.7
0.0075	0.0052	-0.0008	0.0232	6.7
0.0015	-0.0038	-0.0015	-0.0638	6.8
0.0007	0.006	-0.0083	-0.0518	6.8
-0.0008	0.0075	-0.0046	-0.0015	6.9
-0.003	0.0075	-0.0053	0.0382	6.8
-0.0053	0.0075	-0.0038	0.0345	7
-0.0023	0.009	-0.0046	-0.0023	6.8
0.0015	0.0195	-0.0053	-0.0173	6.8
0.0045	0.027	-0.0008	0.0022	6.9
0.0082	0.0232	0.0015	0.024	6.8
0.006	0.0067	0.0052	0.042	6.9
0.006	-0.012	0.0075	0.0517	6.7
0.0022	-0.0233	0.0052	0.0315	6.9
-0.0015	-0.0203	0.0045	-0.0195	6.8
-0.0015	-0.003	0.0045	-0.0233	6.7
-0.0008	0.0127	0.0022	0.0322	6.7
0	0.027	0.0052	-0.0083	6.9
-0.0023	0.0322	0.006	-0.0511	6.8
0.0015	0.03	0.0015	0.0097	6.7
0.006	0.0105	0.003	0.0345	6.7
0.0082	-0.0308	0.0015	0.0525	6.8
0.0127	-0.0585	-0.0008	0.0787	6.7
0.0127	-0.0548	0.0082	0.048	6.6
0.009	-0.0436	0.0127	-0.0308	6.7
0.0082	-0.0293	0.0105	-0.0788	6.6
0.0082	-0.0128	0.012	-0.078	6.7
0.009	0.0052	0.0112	-0.0346	6.5
0.0082	0.0202	0.0105	0.027	6.7
0.0067	0.0217	0.0127	-0.0008	6.4
0.0082	0.0165	0.0097	0.0067	6.6
0.0082	0.012	0.0022	-0.0113	6.4
0.009	0.018	-0.0023	-0.039	6.7
0.009	0.015	-0.0053	0.009	6.4
0.0082	0.0135	-0.0053	-0.0038	6.5
0.0075	0.024	-0.0023	0.0375	6.4
0.0052	0.0142	-0.0015	0.0472	6.5
0.003	0.006	-0.0008	0.0495	6.4
0.0015	-0.0015	0.006	0.075	6.4
0.0007	-0.0091	0.012	0.0705	6.6
-0.003	-0.0256	0.0127	0.0427	6.4
-0.0008	-0.0188	0.0142	-0.0818	6.3
0.0015	0	0.0127	-0.1021	6.3
0.003	-0.003	0.0045	-0.0998	6.3
0.0075	0.024	-0.0053	-0.0713	6.3
0.0082	0.0172	-0.003	-0.0038	6.2
0.0082	-0.0068	-0.0015	-0.0285	6.3
0.0052	-0.0046	-0.0053	0.0082	6.1
0.0045	0.003	-0.003	0.024	6.4
0.003	0.0165	-0.003	0.0405	6.2
0.0022	0.0142	-0.0046	0.06	6.2
0.003	0.018	-0.0075	0.0345	6.1
0.0007	0.0007	-0.0098	0.0322	6.1
-0.0008	-0.0158	-0.0113	-0.0105	6.1
-0.0038	-0.015	-0.0135	-0.0555	6
-0.0053	-0.0046	-0.0128	-0.0383	6.1
-0.0046	0	-0.0105	0.0397	5.9
-0.0053	-0.0023	-0.0083	0.0622	6.1
-0.006	0.015	-0.0053	0.0487	5.9
-0.0075	0.0187	-0.003	0.0142	6.1
-0.0053	0.0037	-0.0008	-0.0173	5.8
-0.0053	-0.0218	0.0037	-0.048	6.1
-0.0046	-0.0181	0.0015	-0.117	5.8
0.0015	-0.0075	-0.0046	-0.0368	6
0.0045	-0.0233	-0.0091	0.0427	5.7
0.0067	-0.0015	-0.0158	0.0382	5.8
0.003	0.0165	-0.0128	0.0547	5.8
0.0015	0.0052	-0.0083	0.0255	5.8
-0.0008	0.0052	-0.0068	0.012	5.6
-0.0038	0.0015	-0.0046	0.0157	5.6
-0.0046	-0.0075	-0.0083	0.009	5.8
-0.0038	-0.0105	-0.0105	-0.0165	5.6
-0.0046	-0.0015	-0.0068	-0.0225	5.9
-0.0053	0.003	-0.0008	-0.015	5.6
-0.0075	-0.0008	-0.0046	-0.0398	5.8
-0.0075	0.0037	-0.0038	-0.021	5.6
-0.0046	0.0045	0.003	0.0045	5.8
-0.0038	-0.0008	0.0015	0.0112	5.5
-0.0053	0.0045	0.003	0.0165	5.8
-0.0053	0.0112	0.009	0.0157	5.6
-0.006	0.0105	0.0135	0.024	5.8
-0.0023	0.0052	0.0165	0.0315	5.6
-0.0015	-0.0015	0.0195	0.0232	5.6
-0.0046	-0.003	0.0202	-0.0188	5.5
-0.0053	0	0.0187	-0.0256	5.7
-0.0053	-0.0083	0.0142	0.0097	5.6
-0.0046	-0.006	0.009	0.012	5.5
-0.0023	0.0045	0.0067	0.0307	5.7
0.003	0.0045	0.009	0.0307	5.3
0.0015	0.0037	0.009	-0.039	5.7
-0.0008	0.0127	0.0082	-0.0465	5.4
-0.0008	0.0165	0.0067	0.0157	5.6
-0.0015	-0.0008	0.0082	0.033	5.5
-0.0015	-0.003	0.0082	0.009	5.6
-0.0038	0.0052	0.0067	-0.0158	5.5
-0.0046	0.0202	0.009	-0.0383	5.7
-0.0053	0.0247	0.0045	-0.024	5.5
-0.0038	0.012	0	0.0142	5.8
-0.0008	0.0007	0.0007	0.0285	5.6
-0.0046	-0.0143	0.0007	-0.003	5.6
-0.0068	-0.0248	-0.0015	-0.0525	5.6
-0.0113	-0.0218	-0.0015	-0.063	5.6
-0.0105	-0.006	-0.0015	-0.057	5.8
-0.0091	0.0015	-0.0008	-0.0346	5.6
-0.0083	0.0097	-0.0008	0.0165	5.8
-0.0068	0.0172	-0.0068	0.0217	5.5
-0.0075	0.0165	-0.0053	0.0172	5.8
-0.0046	0.0105	-0.0008	0.0247	5.7
-0.0015	0.0015	0	0.015	5.7
-0.0008	0.015	-0.0008	0.0067	5.8
0.003	0.009	-0.0083	0.027	5.8
0.0045	-0.024	-0.0135	0.0825	5.8
0.0037	-0.0443	-0.0105	0.1365	5.8
0.003	-0.078	0.003	0.102	5.8
-0.0008	-0.0728	0.0135	-0.0458	5.8
0.0007	-0.0008	0.009	-0.0743	5.8
0.0052	0.0285	0	-0.0188	5.8
0.0007	0.0405	-0.003	0.0007	5.8
0.0022	0.0502	-0.0075	0.0967	5.8
0.003	0.012	-0.0053	0.1185	5.9
-0.0015	-0.027	0.0037	-0.0413	5.8
-0.0038	-0.012	0.0052	-0.2078	5.8
-0.0008	0.0255	-0.003	-0.1065	5.8
0.0015	0.0127	-0.0083	0.0135	5.8
0.0015	0.0067	-0.0068	-0.0083	5.8
0.0007	0.012	-0.0091	0.057	5.9
-0.0008	0.0045	-0.0091	0.0255	5.8
-0.0008	-0.0038	-0.0053	0.0015	5.9
0	0.003	-0.0068	-0.039	5.9
-0.0008	0.039	-0.0083	-0.0436	5.8
-0.0015	0.033	-0.0083	-0.0181	5.8
-0.003	0.0382	-0.0083	-0.0533	6
-0.003	0.0352	-0.0083	0.0765	5.9
-0.0068	-0.0173	-0.0053	0.0097	5.9
-0.0053	-0.0458	-0.0046	-0.096	6
-0.0015	-0.0653	-0.0046	-0.033	6
0.0007	-0.0653	-0.0046	0.0142	5.9
0.003	-0.045	-0.003	0.012	6
0.0045	-0.012	-0.0008	-0.0405	6.1
0.0045	0.0052	-0.0015	0.018	6.1
0.0045	0.012	-0.0023	0.0592	5.9
0.0045	0.0052	-0.006	0.0307	6
0.0052	0.0007	-0.0091	0.0255	5.8
0.0045	0.0105	-0.0105	0.0412	6.1
0.003	0.0157	-0.0075	0.057	5.9
0.0007	0.021	0.003	0.024	6.1
-0.0008	0.009	0.0052	-0.081	5.9
0.003	0.0172	-0.0015	-0.0788	6
0.0052	0.0202	-0.0053	-0.0008	6
0.003	0.0157	-0.0091	-0.0375	5.9
0.0037	0.0007	-0.012	-0.0068	6
0.0067	-0.015	-0.0113	-0.0105	6
0.0037	-0.0023	-0.0091	-0.0181	6
0.0045	0.0127	-0.0105	0.0495	5.9
0.006	0.0217	-0.0091	0.12	6.2
0.0067	0.0022	-0.0068	0.2062	6.1
0.0052	-0.0143	0	0.159	6.3
0.0007	-0.0203	0.009	0.048	5.9
-0.0038	-0.0181	0.018	-0.09	6.1
-0.0038	-0.0203	0.0202	-0.1703	5.8
-0.0008	-0.0113	0.0225	-0.1711	6.1
-0.0008	0.0135	0.021	-0.0878	5.8
-0.0008	0.0135	0.0112	0.0555	5.9
-0.0008	0.0195	0.0045	0.0892	6.1
-0.0008	0.0375	-0.0038	0.1515	6
-0.0008	0.0345	-0.003	0.0705	6.1
-0.006	0.009	0.0045	-0.15	5.9
-0.006	-0.0346	0.006	-0.216	6.1
-0.006	-0.0563	0.009	-0.1515	6
-0.0046	-0.0436	0.0045	-0.0683	6.1
0.0015	-0.024	-0.0015	-0.0323	5.9
0.0037	-0.0233	-0.0038	0.06	6.3
0.0045	-0.0195	-0.0046	0.0907	6
0.0037	0.012	-0.003	0.045	6.3
0.0022	0.021	-0.003	0.0315	5.9
0.0052	0.0195	-0.003	0.0045	6.3
0.0082	0.0225	-0.0098	0.0112	5.9
0.009	0.0007	-0.015	0.0022	6.1
0.0067	-0.012	-0.0068	-0.054	6
0.003	0.0082	0.0022	-0.0443	6.2
0.0015	0.0435	0.0015	-0.0203	6.1
0.003	0.0615	0.0052	0.003	6
0.003	0.0307	0.0067	0.0375	6.2
-0.0008	0.0157	0.0082	0.0397	6
-0.0038	0.009	0.0105	0.108	6.4
-0.0053	-0.0173	0.0015	0.15	6
-0.0015	-0.0323	-0.0046	0.159	6.3
-0.0008	-0.057	0.0045	0.1207	6
-0.0015	-0.0518	0.012	-0.0578	6.3
0.003	0.0015	0.0127	-0.2011	6.1
0.0052	0.0337	0.012	-0.1875	6.2
0.006	0.015	0.0067	-0.0945	6.1
0.0052	0.024	0.0015	-0.0578	6.4
0.0052	0.0345	-0.0053	-0.0263	6.2
0.0067	0.0202	-0.0091	0.012	6.2
0.0067	0.0105	-0.0068	0.0405	6.2
0.0067	-0.0008	-0.0083	0.054	6.3
0.0082	0.0052	-0.0091	0.0502	6.2
0.0082	0.018	-0.0105	0.0285	6.1
0.0067	0.0225	-0.015	-0.03	6.3
0.0082	0.0157	-0.0158	-0.0361	6.1
0.0067	0.0052	-0.0105	-0.033	6.4
0.0045	-0.0203	-0.0053	-0.0181	6.2
0.0037	-0.0165	-0.0046	0.0097	6.4
0.0045	-0.0068	0	-0.0015	6.3
0.0045	-0.0091	0.0045	0.0195	6.3
0.0022	-0.0091	0.009	0.0187	6.3
0.0015	-0.0181	0.0097	0.015	6.3
0.003	-0.0105	0.012	0.024	6.6
0.0052	-0.0053	0.0142	0.0247	6.4
0.0067	0.0105	0.009	0.0592	6.4
0.0052	0.0292	0.003	0.0892	6.4
0.0052	0.0277	-0.003	0.1042	6.6
0.0045	0.0007	-0.0046	0.0915	6.5
0.0015	-0.0293	-0.0046	-0.0083	6.4
-0.0008	-0.0436	-0.0008	-0.165	6.4
-0.0008	-0.0278	0.0045	-0.1373	6.5
-0.0008	0.0292	0.0022	0.0045	6.7
0.0015	0.0532	-0.0015	0.0967	6.6
0.0015	0.027	0.003	0.1995	6.7
0.0015	-0.0128	0.0022	0.1065	6.6
0.003	-0.0533	0.0015	-0.0833	6.9
0.0022	-0.0825	0.009	-0.1021	6.6
0.0045	-0.093	0.009	-0.1538	6.7
0.0067	-0.0443	0.0052	-0.2265	6.7
0.0037	0.0337	0.003	-0.0818	7
0.0037	0.0622	0.0022	0.0082	6.9
-0.0008	0.0577	0.006	-0.0233	6.9
-0.0015	0.0427	0.003	0.0165	6.9
-0.0015	0.0322	0	0.0292	6.8
-0.0046	0.015	-0.0046	0.0585	7
-0.0038	-0.0173	-0.012	0.0615	6.7
-0.0023	-0.0308	-0.012	0.09	6.9
-0.0038	-0.0563	-0.0068	0.0795	6.9
-0.0038	-0.0383	-0.0046	-0.0518	7.2
-0.003	0.036	-0.0038	-0.006	6.9
-0.0053	0.0442	-0.0008	0.0067	7.2
-0.0083	0.0345	-0.003	0.0315	7
-0.0046	0.0165	-0.0038	0.1215	7.2
-0.0023	-0.0053	0.0015	0.0727	7
-0.0015	-0.0293	0.003	0.0877	7.2
-0.003	-0.0428	0.0105	-0.0706	7
-0.0068	0.0157	0.0195	-0.0555	7.2
-0.0083	0.0157	0.0232	0.0367	7.1
-0.0083	0.0442	0.027	-0.2228	7.1
-0.0068	0.0727	0.0127	-0.1283	7.1
-0.006	0.0217	0.0067	0.0112	7.1
-0.0046	0.0067	0.009	-0.0675	7.2
-0.0015	-0.003	-0.0053	-0.0203	7.1
0.0007	0.0045	-0.0098	-0.0383	7.3
0.003	-0.006	-0.0091	-0.0488	7.2
0.003	-0.0068	-0.0091	0.0172	7.3
0.0067	-0.0128	-0.0083	0.045	7.2
0.009	-0.0256	-0.0098	0.0727	7.3
0.0105	-0.0105	-0.0083	0.057	7.4
0.0097	0.0045	-0.006	0.0345	7.4
0.0067	0.018	-0.0015	-0.015	7.6
0.003	0.0142	-0.0008	-0.0323	7.6
0.003	0.009	-0.0023	0.0592	7.5
0.0007	-0.0008	0.0015	0.0555	7.7
-0.003	0.0135	-0.003	0.0952	7.6
-0.0015	0.0082	-0.0053	0.1492	7.8
-0.003	-0.015	-0.0053	0.0585	7.6
-0.0046	-0.0008	-0.0046	-0.0615	7.7
-0.0046	0.0037	0.0007	-0.1155	7.7
-0.0053	-0.0038	0.003	-0.0143	7.8
-0.0023	-0.0075	0.006	-0.0015	7.7
-0.0023	0.0015	0.0105	-0.0323	7.9
-0.003	0.009	0.0082	-0.0091	7.7
-0.003	-0.0143	0.0045	-0.0518	8
-0.0023	-0.0405	0.0067	-0.075	7.8
-0.0015	-0.0398	0.006	-0.0473	8.1
-0.0008	-0.0353	0.0052	0.0442	7.9
-0.0008	-0.0263	0.0067	0.0232	8.1
-0.0008	-0.0203	0.0052	-0.0135	8.1
-0.0015	-0.015	0.0045	0.006	8.1
-0.0023	-0.0053	0.0045	-0.066	8.1
-0.0046	0.0105	0.0015	-0.0443	8.1
-0.003	0.027	0.0015	0.0165	8.1
-0.003	0.0195	0.0015	0.0105	8.1
-0.0008	0.012	-0.0015	0.0187	8.4
-0.0008	0.0082	-0.0015	0.0165	8.1
0.0007	0.009	-0.0015	0.0157	8.5
0.0015	0.012	0.0015	0.027	8.2
0.003	0.0157	0.0015	0.042	8.6
0.003	0.0225	0.0007	0.0592	8.4
0.0015	0.0052	0.0007	0.0345	8.6
0.0007	-0.0113	-0.0038	-0.0398	8.5
0.003	-0.0105	-0.0046	-0.024	8.7
0.0037	-0.027	-0.003	0.012	8.5
0.0015	-0.015	-0.0075	-0.0158	8.5
0.0015	0.009	-0.0105	0.0202	8.7
0.0015	0.0045	-0.012	0.0217	8.6
0.0015	0.0127	-0.0128	0.009	8.8
0.003	0.0045	-0.0113	0.0232	8.6
0.0037	0.003	-0.0128	0.0067	8.9
0.0037	-0.0015	-0.0128	0.0127	8.8
0.0052	-0.0075	-0.0105	0.0015	9
0.0052	-0.003	-0.0068	0.0007	9
0.0007	-0.0068	-0.006	0.0015	9
-0.0015	0	-0.0068	-0.003	9
-0.003	-0.0008	-0.0053	0.0007	9.1
-0.0046	0.0007	-0.0015	-0.006	9.2
-0.0046	0.0045	-0.0008	-0.0008	9.1
-0.0046	0.0127	-0.0008	-0.0015	9.3
-0.006	0.0135	0.003	-0.0008	9.3
-0.006	0.0067	0.0067	-0.0023	9.4
-0.0038	0.0015	0.0075	0.0015	9.4
0	0.0015	0.0067	-0.0023	9.3
0.0015	0.0157	0.0075	0	9.6
0.003	0.0127	0.009	0.0105	9.6
0.0067	0.0082	0.0067	0.0015	9.5
0.0075	0.0067	0.0097	-0.0015	9.8
0.0075	0.006	0.012	-0.0075	9.9
0.0067	0.0105	0.0135	-0.0098	9.8
0.0045	0.0105	0.0202	-0.0083	9.8
0.0007	0.0075	0.0195	-0.0105	9.9
-0.0008	-0.0008	0.018	-0.0135	9.9
-0.0008	-0.0046	0.0172	-0.0158	9.9
-0.0008	-0.0038	0.0112	-0.0098	10.2
0	-0.0053	0.0075	-0.0105	9.9
0.0015	-0.0113	0.0067	-0.0143	10.2
0.003	-0.0105	0.0052	-0.0158	10.1
0.0052	-0.0098	0.003	-0.0143	10.2
0.003	-0.0233	0.0007	-0.0098	10.3
0.0022	-0.024	-0.0053	0.0045	10.2
0.0015	-0.0068	-0.0083	0.027	10.4
0	0.0052	-0.0068	0.0427	10.3
0.0007	0.012	-0.003	0.0465	10.6
0.0052	0.015	-0.003	0.009	10.4
0.0067	0.0075	-0.0038	-0.0256	10.8
0.006	0.0052	-0.003	0.0015	10.5
0.009	0.0142	-0.0053	0.0277	11
0.0105	0.0255	-0.003	0.0405	10.7
0.012	0.024	-0.0015	0.0667	10.9
0.012	0.012	0.0007	0.0787	10.9
0.009	-0.006	0.003	0.0315	11.1
0.0067	-0.0256	0.0082	-0.0593	11
0.0022	-0.0413	0.009	-0.1238	11
0	-0.0308	0.0067	-0.126	11.2
-0.0046	-0.0015	0.0067	-0.0615	11.2
-0.0068	-0.0008	0.009	-0.0323	11.3
-0.0083	0.003	0.0097	-0.0165	11.2
-0.0105	0.0045	0.0105	-0.0008	11.8
-0.012	0.0015	0.0105	-0.0158	11.4
-0.0128	0.0097	0.0067	0.009	11.7
-0.012	0.012	0.0052	0.0225	11.6
-0.0098	0.0195	0.0052	0.0277	11.8
-0.0091	0.018	0.0015	0.0307	11.7
-0.0105	0.0052	-0.0008	0.0015	12
-0.0098	-0.0083	-0.003	-0.0203	11.9
-0.0083	-0.0143	-0.0046	-0.0128	12.1
-0.0068	-0.0105	-0.0053	0.0127	12.1
-0.0053	-0.0158	-0.0023	0.0052	12.1
-0.0053	-0.0225	0.003	-0.0015	12.1
-0.0068	-0.0053	0.0007	0.0217	12.3
-0.006	0.0202	-0.0053	0.0337	12.3
-0.0068	0.0247	-0.0083	0.0232	12.4
-0.0068	0.0195	-0.0098	-0.0091	12.6
-0.0068	0.0067	-0.0195	-0.042	12.6
-0.0046	-0.0015	-0.024	0.0052	12.8
-0.0038	0.0022	-0.021	0.0255	12.8
-0.003	0.0052	-0.0188	0.0127	12.9
0	-0.0233	-0.015	0.0442	13
0.0045	-0.0293	-0.015	-0.0143	13
0.0052	-0.0046	-0.0098	-0.0091	13.2
0.0052	-0.006	-0.0083	0.0142	13.2
0.003	0.0045	-0.0091	-0.0068	13.4
0.0022	-0.0046	-0.0091	0.0142	13.5
0.003	-0.0068	-0.0113	-0.0105	13.7
0.0015	0.003	-0.0105	-0.0008	13.8
0.0037	0.0015	-0.0105	0.0045	13.9
0.0045	0.0127	-0.0091	0.0007	13.9
0.0045	0.009	-0.0068	0.0052	14
0.003	0.0105	-0.0068	-0.006	14.1
0.0015	0.0082	-0.0068	0.0022	14.2
0.0045	0.0082	-0.006	-0.0038	14.3
0.0067	0.0075	-0.0046	-0.0008	14.4
0.0082	0.0052	-0.0015	-0.0008	14.7
0.0105	0.0082	-0.0046	0.0015	14.5
0.0127	0.0052	-0.0083	0.0015	14.8
0.0135	0.0082	-0.0091	-0.0015	14.7
0.015	0.006	-0.0105	0.0015	15
0.0157	0.0067	-0.012	-0.0015	14.9
0.018	0.0052	-0.0105	0.0007	15.3
0.0195	0.0045	-0.0091	-0.0008	15.2
0.018	0.0052	-0.0068	0.0007	15.3
0.0165	0.0075	-0.0046	0.0007	15.7
0.0142	0.009	-0.0038	0.0037	15.7
0.0127	0.0067	-0.0046	0.0067	15.8
0.012	0.0052	-0.0053	0.0037	15.7
0.0067	0.003	-0.0023	0.0067	16.2
0.0007	0.003	0.0007	0.0015	15.9
-0.003	0.0037	0.0037	0	16.2
-0.0053	0.0082	0.0052	-0.003	16.2
-0.0068	0.0105	0.0052	-0.0135	16.4
-0.0091	0.0067	0.003	-0.0128	16.6
-0.0083	0.0052	0.0052	-0.0053	16.7
-0.0075	0.006	0.009	-0.003	16.6
-0.0068	0.0075	0.012	-0.003	16.8
-0.0068	0.0067	0.0157	-0.0046	17
-0.0098	0.0037	0.018	-0.006	17
-0.012	0.003	0.0195	-0.0046	17.2
-0.0098	0.0037	0.0202	-0.0053	17.2
-0.0068	0.0045	0.0195	-0.0038	17.5
-0.0075	0.0045	0.018	-0.0046	17.6
-0.0068	0.0052	0.0157	-0.0015	17.7
-0.0068	0.0045	0.0142	0.0022	17.7
-0.006	0.0037	0.0142	0.0037	17.9
-0.006	0.0045	0.0142	0.0045	18
-0.006	0.003	0.0157	0.0015	18.2
-0.0053	0.0015	0.0157	0.0007	18.3
-0.0015	0.0007	0.0127	-0.0008	18.4
0.0052	-0.003	0.0127	0.003	18.6
0.0067	-0.0068	0.0112	0.0202	18.5
0.0082	-0.0098	0.012	0.0052	18.9
0.0105	-0.0053	0.012	-0.0173	18.7
0.0142	0.0045	0.0105	0.0037	19.3
0.018	0.0045	0.0105	0.0067	19.3
0.0195	0.0007	0.009	0.0015	19.4
0.0202	-0.0008	0.0105	0.0097	19.5
0.0217	-0.006	0.0075	0.0022	19.6
0.0225	-0.0158	0.0045	0	19.9
0.0217	-0.0181	0.0037	-0.0046	20
0.0187	-0.0173	-0.0008	-0.0046	20.3
0.0142	-0.0105	-0.0015	-0.0023	20.2
0.012	-0.0046	-0.0023	-0.003	20.7
0.009	-0.003	-0.0046	0.003	20.5
0.0052	0.0007	-0.0053	0.003	21
0.0015	-0.0008	-0.0046	0.0022	20.9
-0.0023	-0.0015	-0.003	0	21.2
-0.0046	-0.0015	-0.0008	-0.0008	21.3
-0.0068	-0.0046	0	-0.0015	21.8
-0.0091	-0.0015	0.0015	-0.003	21.8
-0.012	-0.0023	0.0007	-0.0015	22
-0.015	-0.0053	-0.0008	-0.003	22.3
-0.0158	-0.0038	-0.003	-0.0015	22.6
-0.0143	-0.0008	-0.0053	-0.0015	22.7
-0.0143	0.0015	-0.0053	0.003	22.7
-0.0158	0.0045	-0.0091	0.0105	23.1
-0.0128	0.0052	-0.0091	0.0135	23.1
-0.0105	0.0015	-0.0083	0.012	23.5
-0.0075	-0.0008	-0.0105	-0.0008	23.4
-0.0075	0	-0.012	-0.0053	23.8
-0.006	-0.0015	-0.012	-0.0015	23.9
-0.0046	-0.0015	-0.0105	0.006	24.3
-0.003	-0.0023	-0.0091	0.0187	24.4
-0.0046	-0.0008	-0.0068	0.0142	24.8
-0.0075	0.0015	-0.003	-0.0053	24.9
-0.012	-0.0015	0.0007	0.0007	25.3
-0.0135	-0.0015	-0.0023	0.0037	25.5
-0.0128	-0.0015	-0.0053	-0.0023	25.7
-0.0128	-0.0015	-0.0046	0.0015	26
-0.0105	-0.0008	-0.0046	-0.0008	26.1
-0.0075	-0.0008	-0.0015	0.0015	26.5
-0.0053	0.0007	-0.003	0.0022	26.5
-0.003	0.0007	-0.0038	0.0052	26.9
0.0015	0.0007	-0.0053	0.0082	27
0.0052	0.0007	-0.0053	0.0195	27.5
0.0052	-0.0015	0	0.0442	27.6
0.006	0	0.0007	0.0487	27.9
0.0052	0.0045	-0.0023	0.0382	28.2
0.0037	0.003	-0.0075	0.0187	28.3
0.0015	-0.0008	-0.0158	-0.027	28.8
0	0	-0.024	-0.0818	28.8
0.0015	0.009	-0.033	-0.0915	29.4
0.0045	0.0097	-0.0398	-0.0436	29.6
0.0067	0.0067	-0.045	-0.0135	29.7
0.0067	0.0105	-0.0503	-0.0158	30.1
0.0045	0.0105	-0.0495	-0.0091	30.5
0.0045	0.0105	-0.0458	-0.0008	30.6
0.0052	0.0022	-0.048	0.0052	30.8
0.0052	-0.0053	-0.048	0.0135	31.3
0.003	-0.0053	-0.0443	0.0045	31.5
0.0052	-0.0091	-0.045	-0.0091	31.9
0.006	-0.0113	-0.0443	-0.0038	31.9
0.0052	-0.0075	-0.042	0.0045	32.6
0.0052	-0.0038	-0.033	0.0067	32.5
0.0015	-0.0068	-0.0218	0.009	33.2
0.0007	-0.0053	-0.0135	0.0082	33.2
0.003	-0.0068	-0.0015	0.0105	33.7
0.0052	-0.0015	0.0157	0.0142	33.7
0.0067	0.006	0.033	0.0232	34.1
0.0045	0.0082	0.0487	0.0292	34.5
0.003	0.0082	0.063	0.0247	34.8
0.003	0.0067	0.0735	0.0015	35
0.0007	0.0022	0.0795	-0.0128	35.1
0	-0.0098	0.0802	-0.0105	35.6
-0.0015	-0.0158	0.0802	-0.048	35.7
-0.003	-0.0015	0.075	-0.0428	36.3
-0.0046	0.012	0.063	-0.0008	36.3
-0.003	0.0127	0.0525	-0.0046	36.8
-0.0008	0.0097	0.042	0.018	36.8
0.0022	0.0052	0.0292	0.0045	37.3
0.003	0.0052	0.018	-0.0083	37.6
0.0022	0.003	0.0097	0.0165	37.9
0.0045	0.0022	0.0037	-0.0008	38.2
0.0045	0.0022	-0.006	0.0067	38.4
0.0052	-0.0008	-0.0173	0.0112	38.6
0.003	-0.0015	-0.0248	0.0172	39.1
0.0022	-0.003	-0.03	0.0195	39.3
0	-0.0038	-0.0278	-0.0143	39.6
-0.0008	-0.0023	-0.0263	-0.03	40
-0.0008	0.0037	-0.0293	-0.0128	40
0.0022	0.0022	-0.033	0.0052	40.5
0.0037	0.0007	-0.0308	0.0015	40.6
0.003	0.0022	-0.0233	0.0082	41
0.003	0	-0.0188	-0.003	41.3
0.0022	-0.0015	-0.0143	0.003	41.7
0.0015	-0.0023	-0.0075	0.012	42
0	-0.0015	-0.0008	0.0015	42.3
-0.0008	-0.003	0.0007	0.0052	42.7
-0.003	-0.003	0.0052	-0.0015	42.8
-0.0068	-0.0038	0.009	-0.0015	43.3
-0.0083	-0.0053	0.0127	-0.0068	43.6
-0.0091	-0.003	0.0187	0.0127	43.9
-0.0075	-0.0008	0.0202	0.0337	44.2
-0.0068	-0.0068	0.0187	0.0382	44.6
-0.0068	-0.012	0.0157	0.0405	44.9
-0.0038	-0.006	0.0142	0.0142	45
-0.0008	-0.0015	0.0135	-0.0158	45.4
-0.003	0.0037	0.0105	-0.0165	45.6
-0.003	0.0127	0.0105	0.009	46.1
-0.003	0.0105	0.009	0.0015	46.2
-0.0046	0.003	0.0022	-0.0015	46.5
-0.0068	-0.0098	-0.003	-0.0046	46.7
-0.0083	-0.0128	-0.0083	-0.0128	47.1
-0.0098	-0.0046	-0.0083	0.0052	47.2
-0.0091	-0.0046	-0.0083	0.0037	47.6
-0.0053	-0.0046	-0.0105	0.0075	47.8
-0.003	-0.0046	-0.0128	0.0045	48.1
-0.0008	-0.003	-0.012	0.0015	48.2
-0.003	-0.0015	-0.0143	0.0067	48.6
-0.003	-0.0015	-0.0158	0	48.8
-0.0038	0.0015	-0.0135	-0.0008	49
-0.0038	0.0007	-0.0128	-0.0068	49.5
-0.0015	0.0007	-0.012	-0.0046	49.6
0.0007	-0.0046	-0.0105	-0.0023	50
0.0037	-0.0098	-0.0091	0.015	50.1
0.0067	-0.0098	-0.0068	0.0247	50.5
0.0067	-0.0053	-0.0053	0.003	50.7
0.0075	-0.003	-0.003	-0.0038	51
0.009	-0.0053	-0.003	0.0052	51.1
0.0105	-0.0091	-0.0015	0.015	51.4
0.0112	-0.0098	-0.0008	0.027	51.7
0.012	-0.0068	-0.0023	0.0165	51.9
0.0135	-0.0053	0	-0.0046	51.9
0.0127	-0.0053	0.0015	-0.0203	52.4
0.0105	-0.0023	0.006	-0.027	52.5
0.009	-0.003	0.009	-0.0203	52.7
0.006	-0.003	0.0067	-0.003	52.9
0.003	0.0022	0.0067	0.0105	53.1
0.0045	0.0052	0.0067	-0.0008	53.3
0.0052	0.0067	0.006	0.0007	53.6
0.0037	0.009	0.0045	0.0015	53.6
0.003	0.0075	0.006	-0.0053	53.9
0.003	0.0067	0.009	0.0015	54.1
0.0037	0.0067	0.0105	-0.0015	54.3
-0.0008	0.0075	0.0112	0.0082	54.3
-0.0023	0.0067	0.012	0.012	54.9
0.0007	0.0067	0.012	0.0187	54.7
0.0015	0.0052	0.0105	0.0187	55
0.0015	0.0052	0.009	0.0007	55.2
0.003	0.0075	0.006	0.0052	55.4
0.0052	0.0052	0.0045	-0.0075	55.5
0.006	0.0045	0.003	-0.0488	55.7
0.0097	0.0067	-0.0008	-0.042	56
0.0135	0.0097	0.0007	-0.0105	56
0.0157	0.0105	0.003	-0.003	56.3
0.0142	0.009	0.0037	0.003	56.4
0.012	0.0082	0.0007	0.0015	56.7
0.012	0.0075	0.0007	0.0037	56.7
0.0105	0.0052	-0.0008	0.0075	57
0.0097	0.003	0	0.0052	57
0.0097	0.003	0.003	0.0082	57.5
0.0097	0.0037	0.0037	0.0052	57.4
0.009	0.0037	0.006	0.0067	57.8
0.0082	0.003	0.0067	0.0052	57.8
0.0045	0.003	0.0022	0.0067	58
0.0007	0.003	-0.003	0.0082	58.2
-0.0015	0.0045	-0.0015	0.0075	58.4
-0.0008	0.0052	0.0052	0.0067	58.5
0.0015	0.0067	0.018	0.0052	58.6
0.0022	0.0067	0.0315	0.0052	58.9
0.0082	0.0067	0.03	0.0022	59
0.0097	0.0052	0.018	0.0015	59.3
0.0097	0.003	0.009	0.0007	59.4
0.0082	0.0037	0.009	-0.0008	59.5
0.0082	0.0045	0.0105	-0.0008	59.7
0.0082	0.0037	0.0105	-0.0008	59.9
0.0007	0.0037	0.009	0	60
-0.006	0.003	0.0075	0.0007	60
-0.012	0.003	0.009	0.0022	60.3
-0.0165	0.0052	0.0105	0.0045	60.4
-0.0188	0.0045	0.0142	0.0045	60.7
-0.0233	0.003	0.0195	0.0007	60.6
-0.0256	0.0022	0.024	0.0007	61.1
-0.0233	0.0015	0.0277	0.0007	61.2
-0.0203	0.0015	0.0292	0.0015	61.2
-0.0225	0	0.0292	0	61.4
-0.0218	-0.0015	0.0277	-0.0046	61.6
-0.0195	-0.003	0.0195	-0.0053	61.6
-0.0195	-0.0015	0.0067	-0.0068	61.7
-0.0181	-0.0015	-0.0105	-0.0046	61.9
-0.0105	-0.0008	-0.0248	-0.003	61.9
-0.0075	-0.0015	-0.0346	-0.0008	62.1
-0.0053	-0.003	-0.0398	0.0015	62.1
-0.0015	-0.003	-0.0465	0.0037	62.5
-0.0008	-0.0023	-0.0495	0.0045	62.2
-0.0015	0	-0.0495	0.0015	62.6
-0.0038	0.0007	-0.042	0.0007	62.7
-0.0083	-0.0015	-0.033	0.003	62.7
-0.0113	0	-0.0308	0.003	62.9
-0.0105	-0.0015	-0.0308	0.0022	62.9
-0.0091	-0.0023	-0.0308	0.0007	63.1
-0.0083	-0.0015	-0.027	0.0007	63
-0.006	-0.0008	-0.024	0.0007	63.2
-0.006	-0.0008	-0.0256	-0.0008	63
-0.0053	-0.0015	-0.0248	0.0007	63.4
-0.0038	-0.0015	-0.0233	0.0007	63.2
0.0015	-0.0008	-0.024	0.0015	63.4
0.0052	0.0007	-0.024	-0.0008	63.4
0.006	0.0015	-0.0293	-0.0008	63.6
0.0067	0.003	-0.0308	0	63.4
0.0082	0.0037	-0.0308	0.0015	63.6
0.0142	0.0015	-0.03	0.003	63.5
0.0202	0.0007	-0.0218	0.003	63.6
0.0232	0.0007	-0.0158	0.0067	63.7
0.0247	-0.0008	-0.0143	0.0105	63.7
0.0232	-0.0008	-0.0143	0.0105	63.7
0.018	0	-0.0083	0.0082	63.7
0.0172	-0.0015	-0.0015	0.003	63.9
0.0172	-0.0015	0.0037	-0.0128	63.6
0.0157	-0.0046	0.0097	-0.0285	64
0.0157	-0.0023	0.0142	-0.0203	63.7
0.0127	0.003	0.0187	-0.003	64
0.0127	0.0037	0.0202	-0.003	63.8
0.012	0.0007	0.0165	-0.003	63.9
0.0082	-0.0015	0.012	-0.0015	63.8
0.0052	-0.0023	0.0067	-0.0015	63.8
0.0007	-0.0008	0.0045	0	63.7
-0.0038	-0.0008	0.0045	0.0015	63.8
-0.0053	0.0015	0.0082	0.003	63.7
-0.006	0.003	0.0195	0.0015	63.7
-0.0046	0.006	0.0307	-0.0023	63.5
-0.003	0.0067	0.0352	-0.0015	63.6
-0.0038	0.0045	0.033	0.0007	63.8
-0.0008	0.0015	0.0255	0.0022	63.4
0.0015	-0.0023	0.0195	0.0067	63.4
0	-0.006	0.0202	0.0127	63.4
-0.0038	-0.0105	0.0225	0.0142	63.3
-0.0091	-0.0083	0.0232	-0.0015	63.3
-0.0075	-0.0046	0.0165	-0.0188	63.1
-0.0038	-0.003	0.0105	-0.0068	63.1
0.0015	-0.0015	0.0067	0.0037	62.9
0.006	-0.0038	0.006	0	62.9
0.009	-0.0038	0.0052	0.003	62.7
0.009	-0.0008	0.0067	0.0045	62.7
0.0052	0	0.0112	0.0045	62.5
0.0052	0.0007	0.0112	0.003	62.5
0.0052	0	0.0067	0.0022	62.3
0.0037	-0.0008	0.0007	0	62.3
0.0015	0.0007	0.0015	-0.0015	62
-0.0053	0.0022	0.0082	-0.0008	61.9
-0.0091	0.0015	0.012	0.0015	61.8
-0.012	0.0007	0.009	0.0045	61.7
-0.0135	0	0.0015	0.0067	61.6
-0.0098	0.0007	-0.0046	0.0142	61.3
-0.0083	0	-0.0105	0.0142	61.2
-0.0046	-0.0008	-0.015	0.0127	61.1
0.0007	0.0022	-0.0256	0.0232	61.1
0.0015	0.0037	-0.0315	0.0195	60.8
-0.0068	0.003	-0.0233	-0.0053	60.7
-0.0173	-0.0038	-0.0105	-0.0256	60.5
-0.0188	-0.0068	-0.0053	-0.0368	60.4
-0.0143	-0.0053	-0.0053	-0.033	60.2
-0.0091	-0.0113	-0.003	-0.0181	60
-0.0053	-0.0105	-0.003	0.0037	59.9
-0.0046	-0.0053	-0.0046	-0.003	59.6
-0.0038	0.003	-0.0046	-0.0181	59.7
-0.003	0.0112	-0.006	-0.015	59.3
-0.003	0.0112	-0.0053	-0.0338	59.3
-0.0023	0.0075	-0.0068	-0.0428	58.9
0.0015	0.0015	-0.012	-0.0308	58.8
0.0052	0.006	-0.015	-0.0113	58.7
0.0082	0.0127	-0.0128	0.009	58.3
0.0105	0.0165	-0.0068	0.0255	58.2
0.0135	0.009	-0.0008	0.0322	57.9
0.015	-0.003	0.0045	0.0217	58
0.0135	-0.006	0.0052	-0.0053	57.6
0.0105	-0.006	0.0015	-0.0128	57.3
0.0097	0.0007	-0.0015	0.009	57.4
0.0105	0.0015	-0.003	0.0292	57
0.009	0.003	-0.0046	0.0405	56.9
0.009	0.0015	-0.003	0.0285	56.7
0.006	0.0007	0.0045	0.0157	56.5
-0.0008	0.003	0.0157	0.0112	56.2
-0.0053	0.0007	0.024	0.0082	56.1
-0.0105	-0.0008	0.0277	0.0037	55.7
-0.015	-0.0015	0.0232	-0.0083	55.7
-0.0203	-0.0023	0.0195	-0.006	55.3
-0.0248	-0.0015	0.012	0.0082	55.2
-0.021	-0.0015	0.0022	0.009	54.8
-0.0181	-0.0015	-0.0083	0.0007	54.6
-0.0158	0.0015	-0.0188	-0.003	54.2
-0.0128	0.0007	-0.027	-0.0188	54.2
-0.0091	0.003	-0.0293	-0.0195	53.8
-0.0068	0.0082	-0.0248	-0.0053	53.6
-0.0038	0.0082	-0.0233	-0.0015	53.5
0.0007	0.0052	-0.021	0.0045	53.1
0.003	0.006	-0.0143	0	52.9
0.0007	0.0052	-0.0015	-0.0015	52.7
0.0015	0.0037	0.012	0.0007	52.7
0.0075	0.003	0.0135	-0.0015	52.1
0.0165	0.0037	-0.0098	-0.0008	52.1
0.039	0.0022	-0.0098	-0.0008	51.6
0.0787	0.003	0.0765	-0.0015	51.6
0.087	0.003	0.1057	-0.0015	51.2
0.0675	0.0015	0.0547	-0.0008	51
0.0487	0.0007	0.0232	-0.0015	50.6
0.024	-0.0008	-0.0278	-0.0046	50.4
0.0022	-0.0023	-0.0368	-0.0046	50
-0.012	-0.0015	-0.0173	-0.0046	50
-0.0188	-0.0008	-0.0046	-0.0008	49.7
-0.0233	-0.0008	0.0105	0.0067	49.4
-0.0315	0.0007	0.006	0.0157	49.1
-0.0375	0.0007	0.0007	0.0157	48.7
-0.0458	0.0037	-0.0158	0.0097	48.6
-0.0428	0.0067	-0.027	-0.0091	48.1
-0.0315	0.0075	-0.0353	-0.0428	47.9
-0.021	0.0015	-0.0353	-0.0585	47.6
-0.0105	-0.0038	-0.0225	-0.0203	47.4
-0.0008	-0.0135	-0.0195	0.0315	47
0.006	-0.0233	-0.012	0.0277	46.6
0.009	-0.0098	-0.0091	0.0052	46.4
0.0105	0	-0.0068	0.0142	45.9
0.012	0	-0.0083	0.0217	45.7
0.012	0.0045	-0.006	0.009	45.4
0.0082	0.0022	-0.0046	-0.0015	45
0.0045	0.0015	0.0007	0.0045	44.8
0.0007	0.006	0.0037	0.0105	44.5
0.0015	0.0097	0.0015	0.0052	44.1
-0.0008	0.0075	0.0037	0.0007	43.9
-0.0046	0.0105	-0.0015	-0.0128	43.5
-0.0083	0.012	-0.0008	-0.0091	43.1
-0.0083	0.0052	0.0015	0.0277	42.8
-0.0053	-0.0008	-0.0008	0.0405	42.4
-0.0046	0	0	0.0255	42.1
-0.0008	0.006	0.0045	0.0045	41.6
0.0052	0.003	0.0067	-0.0233	41.4
0.009	0.0067	0.0045	-0.0188	40.9
0.0135	0.0105	0.0007	-0.0083	40.9
0.0165	0.0082	-0.0008	-0.0248	40.2
0.0165	0.0097	-0.0008	-0.012	40.1
0.0172	0.0052	-0.0053	0.009	39.6
0.0165	-0.003	-0.0098	0.0105	39.2
0.0142	-0.0128	-0.006	0.0165	38.9
0.0127	-0.0143	-0.0053	0.0157	38.5
0.0067	-0.012	-0.0046	-0.0105	38.3
0.0015	-0.0188	-0.0008	-0.0458	37.8
0.0015	-0.0181	0.0045	-0.027	37.7
0.0037	-0.0068	0.0022	0.0015	37.2
0.0052	0.0007	-0.0023	0.0105	36.9
0.0037	0.009	0.0007	0.0105	36.4
0.0007	0.0142	0.006	-0.0353	36.2
0	0.0067	0.0097	-0.0346	35.6
0.003	0.0082	0.012	0.0045	35.6
0.0037	0.0075	0.0142	0.009	35
0.0007	0.0045	0.0157	0.012	34.9
0	0.0052	0.0165	0.018	34.5
0.0022	0.003	0.015	0.018	34.2
0.0045	0.0052	0.012	0.015	33.7
0.0045	0.0045	0.0127	0.009	33.5
0.0045	0.0037	0.018	0.0015	33.2
0.003	-0.0015	0.0232	-0.012	32.8
0.003	-0.0053	0.027	-0.0015	32.7
0.0045	-0.0091	0.0285	0.0285	32.1
0.0007	-0.012	0.0232	0.0187	31.9
-0.0023	-0.003	0.0127	0.0007	31.4
-0.0068	0.009	0.0075	0.0112	31.3
-0.012	0.0187	0.0105	0.0105	30.8
-0.0143	0.0232	0.0165	0.0052	30.6
-0.0143	0.0217	0.009	-0.0075	30.2
-0.0105	0.0127	-0.0008	-0.0248	30
-0.0068	-0.0038	-0.0015	-0.0143	29.7
0	-0.0263	0.0022	0.0165	29.4
-0.0008	-0.0495	0.012	0.0255	29
-0.0046	-0.0443	0.0105	0.0225	28.8
-0.0046	-0.0368	0.012	0.0442	28.3
-0.0068	-0.0361	0.0105	0.048	28
-0.0053	-0.0181	0.0015	0.012	27.8
-0.0023	0.0015	-0.0008	-0.003	27.3
-0.0015	0.012	-0.0046	0.0015	27.1
-0.003	0.0165	-0.0098	-0.003	26.6
-0.003	0.0165	-0.0105	-0.0015	26.5
-0.0015	0.0142	-0.0105	-0.0015	26.1
-0.0038	0.0127	-0.0068	0.0045	25.8
-0.0083	0.0075	-0.003	0.0075	25.7
-0.0091	-0.0015	-0.0008	0.0142	25.2
-0.0068	-0.0105	-0.006	0.0292	25
-0.0038	-0.0015	-0.0083	0.0067	24.5
-0.0008	0.0157	-0.0038	-0.0105	24.2
0.0007	0.0187	-0.0008	-0.0248	24.1
0.0067	0.0157	0.003	-0.0428	23.7
0.009	0.0187	0.0015	-0.006	23.4
0.012	0.027	-0.0038	-0.0053	23
0.012	0.0285	-0.0105	-0.0413	22.6
0.0067	0.0217	-0.0143	-0.039	22.3
0.0015	0.0112	-0.0128	-0.0683	22.1
-0.0008	0.0202	-0.0128	-0.0863	21.9
0.0007	0.0412	-0.0165	-0.0413	21.5
-0.0008	0.0375	-0.0128	-0.0008	21.1
-0.0015	0.0165	-0.0068	0.0052	21.1
0.0007	-0.0053	-0.0023	-0.0105	20.5
0.0037	-0.024	0.0007	0.0262	20.4
0.0052	-0.048	0.0007	0.093	20.1
0.0052	-0.0563	-0.0015	0.0532	19.8
0.0075	-0.042	-0.0091	0.0135	19.4
0.006	-0.033	-0.015	0.0165	19.2
0.0067	-0.0158	-0.0181	0.0105	18.8
0.006	-0.0053	-0.0203	0.0315	18.6
0.0037	-0.003	-0.0195	0.0165	18.4
0.003	0.0067	-0.0195	-0.0173	18
0.0015	0.009	-0.0218	-0.0135	17.9
0.0007	0.0097	-0.0233	0.0037	17.6
-0.0008	0.0142	-0.0218	0.0015	17.3
-0.0008	0.018	-0.0188	-0.0075	17
-0.003	0.0195	-0.0195	-0.0075	16.8
-0.0015	0.0157	-0.0256	-0.0038	16.4
0.0015	0.0082	-0.027	-0.0053	16.2
-0.0023	0.0067	-0.0181	-0.0008	16
-0.0023	0.0037	-0.006	0.036	15.7
-0.0008	-0.0128	0.0037	0.0285	15.7
-0.0008	-0.0278	0.0075	0.0105	15.2
-0.0008	-0.0315	0.009	-0.0083	15
-0.0008	-0.0195	0.012	-0.0518	14.8
-0.003	-0.0015	0.0157	-0.0405	14.6
-0.0053	0.015	0.0135	0.012	14.4
-0.0015	0.0255	0.0097	0.0382	14.1
0.0015	0.0202	0.009	0.036	13.9
0.0007	0.015	0.009	0.054	13.6
-0.0008	0.0037	0.009	0.039	13.5
-0.0015	-0.0046	0.0097	-0.0338	13.1
-0.003	-0.0053	0.0127	-0.0555	13.1
-0.0046	-0.0105	0.0112	-0.0203	12.7
-0.003	-0.0188	0.0045	-0.0181	12.8
-0.0008	-0.0203	0.0015	-0.042	12.3
-0.0023	-0.0068	-0.0015	-0.0233	12.3
-0.0046	0.0015	-0.0046	-0.012	11.9
-0.0038	0.0037	-0.0015	-0.003	12.1
0	0.0067	0.0007	0.0127	11.7
0.003	0.0037	0.0045	0.012	11.5
0.0052	0.003	0.009	0.0142	11.2
0.0067	0.0045	0.0075	0.0127	11.1
0.0105	0.003	-0.0015	0.0105	11.1
0.012	0.0015	-0.0038	0.012	10.7
0.0105	0.0015	0.0007	0.0097	10.7
0.009	0.0007	0.0045	0.0105	10.4
0.0067	-0.0008	0.0067	0.0082	10.4
0.0075	0.0015	0.0052	0.0082	10.1
0.0082	0.0015	0.0007	0.0082	10.1
0.0052	0.0015	-0.0128	0.0067	9.8
0.0022	0.0015	-0.0203	0.0082	9.6
0.0045	0.003	-0.0203	0.0067	9.3
0.0037	0.0015	-0.0128	0.0052	9.2
0.0015	0.0015	0.0052	0.003	9.1
0.0015	0	0.0135	0.0007	9
0	-0.003	0.0157	-0.003	8.7
-0.0008	-0.003	0.015	-0.0038	8.5
-0.0015	-0.003	0.0097	-0.0015	8.4
-0.0053	-0.0015	0.0037	-0.0023	8.1
-0.0105	-0.003	0.003	-0.0046	8.2
-0.0128	-0.0046	0.0045	-0.0046	8
-0.0203	-0.0046	0.0037	-0.006	7.8
-0.024	-0.0015	0.0037	-0.0023	7.6
-0.0165	0.0007	0.009	0.0007	7.6
-0.0083	0.0015	0.0195	0.0007	7.5
-0.0008	0.0052	0.0352	0.003	7.4
0.0067	0.0067	0.0457	0.003	7.2
0.0082	0.0097	0.0502	0.0045	7.2
0.0052	0.0127	0.051	0.0045	7
0.0037	0.0127	0.0405	0.0045	6.8
0.0045	0.012	0.036	0.0015	6.9
0.0075	0.0097	0.051	-0.003	6.7
0.0007	0.009	0.063	-0.0038	6.7
-0.0135	0.0082	0.0532	-0.003	6.4
-0.021	0.0067	0.0457	-0.003	6.4
-0.027	0.0052	0.0442	-0.0038	6.3
-0.0308	0.0045	0.0465	-0.0068	6.3
-0.0233	0.0045	0.0465	-0.0083	6.3
-0.0075	0.003	0.0495	-0.0046	6.1
0.0195	0	0.054	-0.003	6.1
0.0352	0.0007	0.0412	-0.003	5.8
0.0442	0	0.0157	-0.0008	5.8
0.0397	-0.0038	-0.0218	0.0022	5.7
0.0375	-0.0068	-0.0713	0.003	5.8
0.0405	-0.0091	-0.1275	0.0015	5.4
0.042	-0.012	-0.1463	-0.0075	5.8
0.0675	-0.0143	-0.0691	-0.0203	5.3
0.087	-0.0113	0.03	-0.0165	5.4
0.099	-0.0046	0.0937	-0.0105	5.3
0.087	-0.0008	0.1057	-0.0053	5.2
0.0562	0.0015	0.0532	0.0082	5.2
0.0225	0.003	-0.0105	0.0142	4.9
-0.0181	0.0015	-0.0825	0.0202	5
-0.0495	0.0007	-0.1478	0.024	4.6
-0.0803	0.003	-0.177	0.0157	4.9
-0.096	0.006	-0.1575	0.0067	4.7
-0.1006	0.003	-0.1088	-0.0143	4.9
-0.1013	-0.0008	-0.0683	-0.0285	4.5
-0.093	0.0007	-0.0495	0	4.7
-0.0856	0.0015	-0.06	0.0315	4.5
-0.0758	-0.0015	-0.0968	0.0292	4.6
-0.0683	-0.0113	-0.1388	0.0075	4.4
-0.0615	-0.0165	-0.1613	-0.024	4.6
-0.0503	-0.0098	-0.1545	-0.0518	4.5
-0.0436	-0.0053	-0.126	-0.0743	4.5
-0.0398	0	-0.0878	-0.0638	4.5
-0.0413	0.0082	-0.0495	-0.0195	4.3
-0.0405	0.0157	-0.0405	0.0202	4.4
-0.0308	0.0082	-0.0278	0.0165	4.2
-0.0165	-0.0023	0.003	-0.0023	4.7
0.0015	0.0022	0.0285	0.0015	4.1
0.0187	-0.0008	0.0555	-0.0098	4.4
0.0307	0.0007	0.0765	-0.0075	4.2
0.039	0.0067	0.105	-0.0143	4.4
0.0442	0.0082	0.1335	-0.0158	4.1
0.0502	0.0127	0.1462	0.0345	4.4
0.0547	0.0187	0.156	0.0495	4.3
0.0555	0.024	0.1537	0.036	4.2
0.0532	0.0195	0.1447	0.0427	4.2
0.051	0.0165	0.1237	0.0502	4.3
0.0472	0.012	0.0952	0.0502	4.2
0.042	-0.0105	0.084	0.0607	4.4
0.0315	-0.0443	0.0705	0.036	4.2
0.024	-0.0713	0.0675	-0.0735	4.3
0.0157	-0.0495	0.0712	-0.111	4.4
0.0015	-0.0068	0.0675	-0.0578	4.3
-0.0068	-0.0038	0.057	-0.0525	4.3
-0.015	-0.0098	0.036	-0.0308	4.4
-0.024	-0.0083	0.0202	-0.0113	4.4
-0.024	-0.0046	0.0045	-0.0488	4.4
-0.0128	0.0172	-0.0195	-0.0188	4.4
0.0007	0.033	-0.0368	0.021	4.6
0.018	0.0337	-0.0458	0.0157	4.5
0.0262	0.0315	-0.0563	0.0397	4.6
0.0262	0.018	-0.0593	0.0202	4.6
0.0315	0.0112	-0.0563	-0.0181	4.5
0.033	0.0255	-0.0563	-0.0135	4.6
0.0307	0.0345	-0.0578	0.0097	4.7
0.0322	0.0352	-0.0593	0.051	4.7
0.0367	0.027	-0.048	0.0352	4.7
0.0375	0.0052	-0.039	0.0225	4.9
0.0345	-0.0256	-0.0353	0.0322	4.7
0.0255	-0.0615	-0.0195	-0.0053	5
0.015	-0.0953	0.0045	-0.0458	4.8
0.0097	-0.1006	0.0247	-0.0638	5
0.0082	-0.0728	0.0322	-0.0465	4.9
0.0127	-0.0353	0.0292	-0.0428	5.2
0.0195	0.015	0.024	0.0067	5.1
0.0225	0.054	0.0135	0.0547	5.3
0.0247	0.0667	0.0105	0.0465	5.3
0.024	0.069	0.0172	0.0465	5.4
0.018	0.0532	0.0165	0.0195	5.4
0.0135	0.0405	0.0015	0.0292	5.5
0.009	0.0292	-0.0098	0.0067	5.4
0.0045	0.0382	-0.0091	-0.0203	5.5
0.0015	0.0615	-0.0195	0.03	5.7
-0.003	0.06	-0.0256	0.0667	5.8
-0.0046	0.0427	-0.0188	0.0855	5.8
-0.0046	0.0217	-0.012	0.1027	5.7
-0.0053	0.003	-0.0068	0.1102	5.8
-0.0105	-0.0195	-0.0158	0.0697	5.9
-0.0165	-0.0428	-0.0188	0.0082	5.8
-0.0158	-0.045	-0.0203	-0.0691	5.8
-0.0128	-0.0368	-0.0353	-0.1313	5.8
-0.0173	-0.0503	-0.042	-0.1238	5.9
-0.024	-0.0638	-0.0353	-0.09	5.5
-0.027	-0.0698	-0.0225	-0.0511	5.8
-0.0285	-0.0691	-0.0098	-0.0405	5.8
-0.0263	-0.027	0.0045	-0.0938	5.5
-0.0195	0.0082	0.0172	-0.1118	5.6
-0.012	0.027	0.0247	-0.057	5.7
-0.0075	0.0412	0.0292	-0.0203	5.6
-0.0083	0.042	0.0255	0.027	5.6
-0.0113	0.027	0.009	0.0607	5.7
-0.0181	0.0082	-0.0091	0.0405	5.5
-0.0203	0.003	0.0045	0.0127	5.6
-0.0158	-0.0008	0.027	0.012	5.4
-0.0128	-0.0038	0.0277	0.0262	5.5
-0.0113	-0.0038	0.0292	0.0112	5.2
-0.0105	0.0015	0.0217	-0.0023	5.3
-0.015	0.0015	0.0142	-0.0008	5.3
-0.021	-0.0008	0.0052	0.0157	5.5
-0.0233	0.0067	-0.0023	0.0217	5.3
-0.0143	0.0225	-0.0023	0.0112	5.3
-0.0046	0.0345	-0.0128	0.0727	5.3
0.0022	0.027	-0.027	0.0922	5.3
0.003	0.0097	-0.0278	-0.0158	5.4
-0.0015	0.0045	-0.0091	0	5.3
-0.0008	-0.0263	0.0067	0.0292	5.4
0.0007	-0.0585	0.0052	0.0105	5.4
-0.0008	-0.0533	0.0015	-0.0068	5.4
-0.003	-0.0315	-0.0046	-0.0638	5.4
-0.0038	-0.006	-0.012	0.0577	5.6
-0.006	-0.0105	-0.0091	0.0697	5.4
-0.0068	-0.003	-0.0023	0.0015	5.7
-0.0038	0.0247	-0.0046	0.0367	5.6
-0.0038	0.0217	-0.0135	-0.0083	5.7
-0.0053	0.012	-0.0256	0.003	5.8
0	0.0082	-0.039	-0.027	6
0.0015	0.0082	-0.0383	-0.0315	6.1
-0.0158	0.0105	-0.0308	0.0097	6.2
-0.0233	0.0037	-0.021	0.018	6.4
-0.0218	-0.0165	-0.0165	0.0165	6.4
-0.0143	-0.024	-0.024	-0.0256	6.6
-0.0015	-0.0068	-0.027	0.0067	6.7
0.0127	-0.003	-0.0346	0.0202	6.9
0.0285	0.0007	-0.042	-0.0158	7
0.0255	0.0142	-0.0495	-0.075	7.1
0.0292	0.0292	-0.0555	-0.0256	7.4
0.0345	0.012	-0.0495	0.069	7.4
0.0352	-0.0465	-0.0511	0.0217	7.7
0.0307	-0.0608	-0.0525	-0.0893	7.7
0.0255	-0.0248	-0.0323	-0.0788	8.1
0.0217	0.0127	-0.033	0.0285	8
0.0157	0.0457	-0.0975	-0.0346	8.3
0.0345	0.0585	-0.1028	-0.0585	8.6
0.075	0.0742	0.033	0.0232	8.7
0.0765	0.069	0.06	0.0487	8.8
0.0442	0.0247	-0.0105	0.0427	8.7
0.0165	0.0007	0.0202	0.0735	9.1
-0.0293	-0.0278	0.027	0.1125	9.2
-0.0578	-0.0398	0.0322	0.0292	9.4
-0.0653	-0.0278	0.0637	-0.0368	9.3
-0.0683	-0.0218	0.0795	-0.0285	9.6
-0.0706	-0.0046	0.087	-0.0428	9.4
-0.0773	0.0037	0.0772	-0.0765	10
-0.0668	0.027	0.069	-0.039	9.8
-0.0593	0.0337	0.0525	-0.0105	10
-0.0518	0.0165	0.0427	-0.0278	10
-0.045	0.0262	0.0465	-0.0323	10.3
-0.033	0.024	0.0592	-0.0308	10
-0.0181	0.0195	0.078	0.0015	10.3
-0.012	0.0337	0.0832	-0.066	10.2
0.0015	0.042	0.078	-0.0458	10.4
0.0127	0.0277	0.0675	0.0892	10.5
0.0232	-0.0143	0.0615	0.1275	10.4
0.0277	-0.0346	0.0547	0.1327	10.7
0.0255	-0.0338	0.0592	0.075	10.7
0.021	-0.0495	0.0652	0.015	10.8
0.015	-0.054	0.0607	-0.039	10.7
0.012	-0.0465	0.039	-0.0518	10.9
0.0142	-0.0098	0.018	-0.042	10.8
0.0112	0.0247	0.009	-0.1328	10.9
0.0075	0.0097	-0.012	-0.105	11
0.0105	-0.0203	-0.0248	-0.0458	10.9
0.0112	-0.0143	-0.0293	-0.0706	11.2
0.0127	0.0112	-0.0353	-0.027	11.2
0.0097	0.018	-0.027	0.0382	11.2
0.0067	0.0142	-0.0233	0.1042	11.3
0.0112	-0.0075	-0.0218	0.0922	11.4
0.012	-0.0518	-0.024	0.0555	11.5
0.0097	-0.09	-0.0188	0.0532	11.5
0.0082	-0.0968	-0.0008	-0.0233	11.6
0.0045	-0.0863	0.0105	-0.123	11.5
0.0015	-0.0225	0.0075	-0.0848	11.7
0.003	0.0157	0.0045	0.0322	11.6
0.0022	0.0187	0.003	-0.0135	11.7
0.0007	0.0465	-0.003	-0.0128	11.6
-0.0023	0.0322	0.0007	0.0517	11.8
-0.0053	0.0397	0.0007	0.036	11.7
-0.003	0.0495	-0.021	0.0255	11.8
0.003	0.0495	-0.0263	0.0045	11.8
0.0045	0.0555	-0.0158	-0.0105	11.8
0.003	0.0382	-0.0233	-0.0398	11.6
0.006	0.012	-0.0218	0.027	11.6
0.0097	-0.0158	-0.0038	0.0772	11.5
0.0127	-0.0248	0.0052	0.0532	11.3
0.0127	-0.0188	0.0097	0.0465	11.3
0.0142	-0.0046	0.0007	-0.0015	11
0.0067	0.0105	-0.006	-0.0008	11.2
-0.003	0.0367	-0.012	-0.024	10.7
-0.0008	0.039	-0.0293	-0.006	10.8
0.0052	0.0352	-0.0203	0.036	10.5
0.009	0.033	-0.0046	0.0037	10.5
0.015	0.018	0.0015	0.018	10.2
0.0172	0.0052	0.0045	0.039	10.2
0.0127	-0.0203	0.003	0.0465	10.2
0.0067	-0.0263	0.009	0.0097	9.9
0.0007	-0.0075	0.0105	0.0052	9.8
0.0052	-0.0046	-0.0046	0.0472	9.6
0.009	-0.0038	-0.0233	0.0232	9.4
0.0127	-0.0075	-0.0256	0.0315	9
0.0202	-0.0158	-0.024	0.0435	9
0.015	-0.0128	-0.0256	-0.0495	8.8
0.0067	-0.015	-0.0173	-0.0885	8.6
-0.0008	-0.0128	-0.003	-0.0503	8.5
-0.0113	0.009	-0.0023	-0.0706	8.5
-0.0188	0.0045	-0.0225	-0.0675	8.3
-0.0315	-0.0083	-0.0293	0.0367	8.3
-0.0375	0.0022	-0.0323	0.0705	8.1
-0.0353	0.0067	-0.0353	0.0862	7.8
-0.0361	0.0045	-0.0308	0.0825	7.9
-0.03	0.0127	-0.0278	0.0217	7.6
-0.0233	-0.0038	-0.021	0.1117	7.9
-0.0173	-0.0653	-0.0188	-0.0105	7.5
-0.0105	-0.048	-0.0188	-0.1658	7.4
-0.0075	-0.0098	-0.012	-0.0653	7.4
-0.0105	0.0015	-0.0083	-0.1298	7.4
-0.0135	0.0142	-0.0113	-0.1065	7.4
-0.0143	-0.027	-0.0008	-0.0525	7.3
-0.0158	-0.0105	0.0142	-0.0608	7.6
-0.0091	0.0495	0.0165	0.0952	7.4
0.0015	0.057	0.0067	0.108	7.6
0.0127	0.0615	-0.0068	0.0255	7.4
0.0187	0.0675	-0.0165	-0.0615	7.6
0.0225	0.0277	-0.0233	-0.075	7.4
0.027	-0.0023	-0.024	-0.09	7.6
0.0255	0.012	-0.0361	-0.0953	7.4
0.021	0.0187	-0.0368	0.036	7.9
0.0202	0.0172	-0.0308	0.0315	7.9
0.0202	0.0142	-0.0338	0.0465	8.1
0.0142	0.0082	-0.0315	0.0442	8.1
0.0127	0.0075	-0.0368	0.0105	8.2
0.0142	0.0135	-0.0346	0.0112	8.3
0.0105	0.0082	-0.027	-0.0353	8.3
0.0052	-0.0053	-0.0225	0.0045	8.6
0	-0.0098	-0.0173	0.0652	8.6
-0.0068	-0.027	-0.0128	0.1372	8.8
-0.0128	-0.0465	-0.0083	0.1507	8.8
-0.0165	-0.0503	-0.012	0.0352	8.9
-0.0181	-0.0443	-0.0128	-0.0773	9
-0.0203	-0.0203	-0.0165	-0.0735	8.9
-0.0256	-0.0053	-0.0165	-0.0428	9
-0.0233	-0.0158	-0.0143	-0.0383	9.1
-0.0143	-0.0353	-0.0233	-0.0098	9
-0.0046	-0.0518	-0.0338	-0.0218	9.1
0.0015	-0.042	-0.0398	-0.024	9.1
0.003	-0.0188	-0.0353	0.0067	9.3
0.0045	-0.003	-0.0353	0.0277	9.3
0.009	0.0172	-0.027	0.0285	9.2
0.0135	0.0285	-0.0188	0.03	9.2
0.0157	0.0232	-0.0181	0.018	9.1
0.0165	0.0127	-0.0158	0.0022	9
0.018	0.0052	-0.0105	-0.0015	9.1
0.0232	0.0052	0.0082	-0.0075	9.3
0.0277	-0.0008	0.033	-0.0046	9.1
0.0307	-0.003	0.06	-0.0188	9
0.0307	0.003	0.0787	-0.0075	9.1
0.0292	-0.0008	0.09	0.0097	9
0.0255	0.0015	0.099	-0.0091	9.2
0.0217	0.012	0.1042	-0.003	8.9
0.018	0.0157	0.1087	0.0037	9.3
0.012	0.0142	0.1005	-0.0203	8.9
0.012	0.0135	0.0967	-0.0181	9
0.0172	0.0157	0.1012	0.0045	8.9
0.0187	0.0195	0.1035	-0.0091	8.6
0.0195	0.0292	0.1117	-0.003	8.9
0.0232	0.0217	0.1095	0.0262	8.7
0.0262	-0.003	0.1035	0.0382	8.8
0.0292	-0.033	0.0952	0.0225	8.5
0.0292	-0.0495	0.078	-0.0188	8.8
0.0195	-0.0503	0.0727	-0.006	8.5
0.0097	-0.0495	0.0652	0.0772	8.7
0.003	-0.0195	0.0495	0.0937	8.6
-0.0008	0.0157	0.0375	0.069	8.7
0.0015	0.0127	0.018	0.0517	8.4
0.0007	0.012	0.0067	0.021	8.6
0.0015	0.012	0.0135	0.0667	8.3
-0.0008	-0.0083	0.018	0.0892	8.5
-0.0091	-0.0428	0.0262	-0.0323	8.1
-0.0181	-0.0368	0.0345	-0.3323	8
-0.0263	0.0307	0.0375	-0.3083	8.1
-0.033	0.0435	0.021	-0.0555	7.8
-0.03	0.039	-0.0075	-0.075	7.9
-0.0256	0.06	-0.024	0.069	7.6
-0.0195	0.0532	-0.0428	0.1492	7.8
-0.012	0.024	-0.0593	0.09	7.6
-0.0083	-0.0225	-0.063	0.0742	7.6
-0.0068	-0.0383	-0.06	-0.003	7.3
-0.0098	-0.0203	-0.0315	-0.0256	7.3
-0.012	0.015	-0.012	-0.033	7.2
-0.012	0.0262	-0.0128	-0.0181	7.2
-0.0105	0.0217	-0.0181	-0.0915	6.9
-0.0083	0.0292	-0.0293	-0.039	7
-0.0068	0.0052	-0.0383	0.0277	6.8
-0.0083	-0.0038	-0.0436	-0.0135	6.7
-0.0105	-0.0038	-0.048	0.0277	6.7
-0.0105	-0.0075	-0.0443	0.003	6.7
-0.0105	-0.0091	-0.0405	0.033	6.7
-0.012	-0.0188	-0.0353	0.024	6.5
-0.015	-0.0143	-0.033	-0.0091	6.4
-0.021	-0.024	-0.033	0.0255	6.3
-0.027	-0.0346	-0.0308	-0.021	6.2
-0.0225	-0.003	-0.0285	-0.0203	6.2
-0.0135	0.0195	-0.0308	0.0637	6
-0.0053	0.0247	-0.0361	0.0892	6
0.0037	0.033	-0.0308	0.0675	5.8
0.0045	0.018	-0.0225	-0.0083	5.9
0.0015	0.0127	-0.024	-0.0915	5.7
0.0067	-0.0068	-0.0256	0.009	5.8
0.0045	-0.0293	-0.0248	0.027	5.4
0	-0.0105	-0.027	-0.012	5.6
-0.0023	0.0105	-0.021	0.0315	5.5
-0.0075	0.015	-0.0173	-0.0015	5.5
-0.0083	0.0127	-0.0256	-0.003	5.7
-0.0105	0.0157	-0.0308	-0.039	5.4
-0.0083	0.0082	-0.0278	-0.0256	5.6
-0.0015	-0.0008	-0.0195	0.012	5.4
0.0007	-0.0068	-0.0128	-0.0128	5.6
0	-0.006	-0.0091	-0.0015	5.3
0.003	-0.0008	-0.0053	-0.0278	5.5
0.003	-0.0015	-0.006	-0.0143	5.4
0.0045	0.0015	-0.0068	0.003	5.5
0.006	0.0082	-0.0113	-0.0098	5.4
0.009	0.0195	-0.0165	-0.003	5.6
0.009	0.0262	-0.021	-0.0083	5.4
0.0075	0.0262	-0.0285	-0.0046	5.4
0.0097	0.0195	-0.0361	0.042	5.5
0.009	0.0105	-0.0323	0.0892	5.5
0.0075	-0.0023	-0.0233	0.027	5.5
0.0037	-0.0338	-0.0143	0.0307	5.5
0.0015	-0.075	-0.0053	0.1042	5.6
0.003	-0.0863	0	0.0067	5.5
0.0067	-0.0375	0.0007	-0.0555	5.5
0.0105	-0.0083	0.0015	-0.0315	5.7
0.0142	0.0195	-0.003	-0.0263	5.8
0.0172	0.0465	-0.0135	0.0232	5.7
0.0187	0.018	-0.0128	0.018	5.6
0.0172	0.0037	-0.0098	-0.0728	5.8
0.0142	0.0165	-0.0015	-0.1635	5.7
0.012	0.033	0.003	-0.1313	6
0.0105	0.0345	-0.0046	-0.0323	5.6
0.0082	0.0232	-0.0128	0.0187	5.9
0.0052	0.0172	-0.0165	0.0315	5.8
0.003	0.018	-0.024	0.0202	5.8
-0.0008	0.0165	-0.0278	0.033	5.8
-0.0023	0.0037	-0.024	0.0495	5.8
-0.0023	-0.0091	-0.0188	0.0727	6
-0.003	-0.0113	-0.015	0.063	5.8
-0.0008	0.0022	-0.0128	0.027	6.1
0.0007	0.003	-0.0113	-0.0098	5.8
0.0007	-0.0068	-0.012	-0.021	6.1
0.0007	-0.033	-0.0113	0.0345	5.8
0.0007	-0.0675	-0.0083	-0.0188	6.1
0	-0.024	-0.0105	-0.1073	5.8
0.0007	0.0352	-0.0128	0.0127	6.2
0.003	0.024	-0.0091	0.0907	5.9
0.0045	0.0105	-0.0105	0.0817	6.1
0.0067	-0.0143	-0.0098	0.0675	5.9
0.0067	-0.0368	-0.0075	-0.0638	5.9
0.0075	-0.0315	-0.0083	-0.1253	5.9
0.0052	-0.0165	0.0007	-0.126	6.1
-0.0008	0.0045	0.0112	-0.0915	6.3
-0.006	-0.0008	0.0165	-0.0128	6
-0.0053	0.0075	0.0157	-0.0023	6.3
-0.0023	0.0105	0.018	0.0105	6.1
-0.0008	0.0082	0.0232	0.0135	6.1
-0.0008	0.0075	0.0262	0.0127	6.2
0.0007	0.0015	0.027	0.021	6.1
0.0067	0.0067	0.0262	0.0202	6.1
0.0075	0.0045	0.0292	0.0225	6.2
0.0075	0.0015	0.027	0.0165	6.1
0.0052	-0.0046	0.0255	0.0142	6.1
0.0007	-0.003	0.0315	0.0127	6.1
0.0007	-0.0008	0.0345	0.0127	6.1
0.0007	0.0022	0.0315	0.012	6.2
0.0067	0.0037	0.0285	0.0097	6.1
0.003	0.0007	0.0225	0.006	6.2
-0.0068	0.0037	0.0195	0.003	6.1
-0.0128	0.0015	0.0217	0.003	6.1
-0.0143	0.0015	0.0255	-0.0015	6.2
-0.015	-0.0038	0.0292	0.0015	5.9
-0.015	-0.0083	0.0315	0.003	6.1
-0.0158	-0.0083	0.0277	-0.0046	6.1
-0.015	-0.003	0.027	0.003	6.1
-0.0091	-0.0053	0.0307	0.009	6
-0.0068	-0.0083	0.03	-0.003	6.2
-0.0008	-0.0008	0.0262	0.015	5.9
0.0045	0	0.024	0.0495	6.1
0.0007	0	0.021	0.066	5.9
-0.0015	-0.0046	0.0195	0.0787	6.1
-0.0038	-0.015	0.0217	0.0825	6.1
-0.006	-0.0308	0.0225	0.0495	6
-0.0075	-0.0188	0.0082	-0.0675	5.9
-0.012	0.027	-0.0046	-0.1381	5.7
-0.0158	0.0427	-0.0008	-0.0938	5.9
-0.0165	0.0472	-0.0091	-0.0225	5.7
-0.0173	0.057	-0.0233	0.0585	6
-0.015	0.0585	-0.033	0.0877	5.7
-0.0105	0.0442	-0.0375	0.1065	5.9
-0.0068	0.012	-0.0323	0.1222	5.6
-0.0091	-0.0278	-0.0233	0.0487	5.9
-0.0143	-0.0713	-0.0046	-0.0593	5.5
-0.0188	-0.0765	0.0105	-0.1763	5.7
-0.0165	-0.0353	0.0045	-0.213	5.6
-0.012	0.012	-0.006	-0.0615	5.8
-0.012	0.045	-0.0135	0.066	5.5
-0.0083	0.039	-0.024	0.0592	5.8
-0.0053	0.009	-0.0308	0.0615	5.6
-0.003	0.0022	-0.0285	0.0142	5.6
-0.0015	-0.012	-0.0248	-0.0256	5.6
-0.003	-0.0203	-0.0203	0.1177	5.5
-0.0046	-0.0285	-0.0195	0.168	5.6
-0.003	-0.0338	-0.0165	0.0517	5.5
-0.0008	-0.021	-0.0105	-0.0698	5.6
0.0015	-0.0233	-0.0015	-0.1635	5.5
0.0015	-0.0046	0.0045	-0.1365	5.6
0	0.0262	0.009	-0.1125	5.5
-0.0015	0.036	0.0187	-0.0293	5.5
-0.003	0.0367	0.0195	0.0187	5.5
-0.0023	0.0225	0.024	-0.033	5.5
0	-0.0091	0.045	0.0427	5.7
-0.003	-0.0285	0.0465	0.0165	5.5
-0.003	-0.024	0.033	-0.0825	5.5
0.0052	0.0157	0.0315	-0.0675	5.5
0.0067	0.0457	0.024	0.0015	5.6
0.0052	0.0382	0.0105	0.0592	5.6
0.0045	0.0382	-0.0023	0.0532	5.4
0.003	0.0337	-0.0143	0.0517	5.4
0.0067	0.0187	-0.024	0.0472	5.4
0.0082	-0.0053	-0.033	0.0487	5.6
0.012	-0.0203	-0.0293	0.0562	5.4
0.0127	-0.0398	-0.0263	0.0217	5.4
0.009	-0.0488	-0.0158	-0.0548	5.3
0.0075	-0.039	-0.0023	-0.0803	5.6
0.009	-0.0293	0.0007	-0.033	5.5
0.0105	-0.0053	0.0007	-0.027	5.5
0.0067	0.0067	-0.0008	-0.0091	5.4
0.0105	0.0195	-0.0015	0.018	5.5
0.0127	0.0255	-0.006	0.0187	5.4
0.015	0.0165	-0.0053	0.0225	5.5
0.0142	0.0082	0	0.0195	5.5
0.0082	0.0007	0.0015	0.0232	5.4
0.009	0.0015	0.0007	0.012	5.5
0.0075	0.0015	0.0015	-0.0008	5.4
0.0067	0.0045	0.003	0	5.6
0.009	-0.0008	0	0.0052	5.3
0.012	-0.0053	0.0045	0.012	5.5
0.012	-0.0195	0.0082	0.0135	5.4
0.0127	-0.0315	0.006	-0.0083	5.5
0.0142	-0.0143	0.0052	-0.0128	5.3
0.0127	-0.003	0.0022	-0.0053	5.5
0.0082	-0.0023	-0.0008	-0.0181	5.4
0.0082	0.0105	-0.0023	-0.003	5.4
0.009	0.018	-0.0015	-0.0008	5.4
0.009	0.0105	-0.0008	-0.0091	5.4
0.0082	0.0097	-0.0008	-0.006	5.5
0.0067	0.0105	0.0007	-0.0075	5.4
0.006	0.0015	0.0045	0.003	5.4
0.0067	-0.0083	0.0052	0.0045	5.3
0.0052	-0.006	0.0037	-0.0053	5.5
0.003	0.0007	0.003	-0.0105	5.3
0.0007	-0.0091	0.0015	-0.0083	5.5
-0.0008	-0.012	0.0007	-0.0105	5.5
-0.003	-0.0023	0.0022	-0.0091	5.5
-0.0046	-0.0083	0.0045	-0.0053	5.5
-0.0038	-0.0053	-0.0008	0.0075	5.5
-0.0038	0.0082	-0.0075	0.0367	5.5
-0.0046	0.0195	-0.003	0.0577	5.4
-0.003	0.0285	-0.0068	0.0645	5.5
0.0007	0.0352	-0.0195	0.054	5.4
0.003	0.027	-0.0203	0.0067	5.5
0.0067	0.012	-0.0173	-0.0691	5.5
0.0045	0.012	-0.0083	-0.0728	5.5
0.003	0.0045	-0.003	-0.0105	5.6
0.0037	-0.0165	-0.0008	0.0097	5.6
0.0007	-0.0128	0.0045	0.0352	5.6
-0.0015	0.0075	-0.0038	0.009	5.5
-0.0015	0.0105	-0.0128	-0.0173	5.6
-0.0008	0.0037	-0.0158	0.0277	5.5
-0.0023	-0.012	-0.0135	0.063	5.7
-0.003	-0.0443	-0.012	0.045	5.6
-0.003	-0.0398	-0.0158	-0.0713	5.7
-0.0015	-0.0143	-0.015	-0.06	5.6
-0.0023	-0.0135	-0.0143	0.0255	5.8
-0.0015	-0.0091	-0.0135	0.0127	5.6
-0.0008	0.0015	-0.0091	0.012	5.7
-0.0015	0.0067	-0.0068	-0.0368	5.9
-0.0023	0.0127	-0.0053	-0.0518	5.8
-0.0023	0.0157	-0.0053	-0.0503	5.8
0	0.0142	-0.003	-0.0458	5.8
-0.0008	0.0135	0.0052	0.024	6
-0.0008	0.009	0.0067	0.0225	5.8
0.0007	0.0022	0.0045	0.0127	6
0.0022	0.0007	0.0037	-0.0181	5.6
0.0022	0.0022	-0.0015	-0.0405	6
0.0015	0	-0.0105	0.0157	5.7
0.0015	-0.006	-0.0165	0.024	6.1
0.0007	0.006	-0.0165	-0.0015	5.9
0.0007	0.0135	-0.0181	-0.0015	5.9
0.003	0.0195	-0.0233	0.0052	5.8
0.0015	0.027	-0.0225	0.0217	6
0.0015	0.0172	-0.0165	0.03	5.8
-0.0015	0.0142	-0.0128	0.0202	5.9
-0.003	0.012	-0.0083	0.0217	6
-0.0053	-0.0098	-0.0083	0.0307	5.9
-0.0068	-0.0338	-0.0113	-0.021	6
-0.0068	-0.0181	-0.0143	-0.0998	5.8
-0.006	-0.0008	-0.0113	-0.0315	6.2
-0.006	-0.0143	-0.0015	0.0247	6.1
-0.006	-0.015	0.0105	0.0232	6.2
-0.0046	-0.0256	0.0195	0.0367	6.2
-0.0053	-0.021	0.0165	-0.012	6.1
-0.0083	-0.003	0.0135	-0.0083	6.1
-0.003	0.0015	0.009	-0.0038	6.1
-0.0046	0.0142	0.0052	0.006	6.2
-0.0068	0.0045	0.0105	0.0157	6.2
-0.0068	0.0015	0.0135	0.0022	6.3
-0.006	0.0022	0.0105	0.0165	6.3
-0.0053	0.0015	0.0022	0.0045	6.3
-0.0038	0.0052	0.003	0.009	6.3
-0.0015	-0.003	0.0082	-0.003	6.3
-0.0008	-0.0105	0.0127	-0.0195	6.3
0	-0.0038	0.0157	0.0022	6.1
0.0007	0.0105	0.018	0.0517	6.3
0	0.0052	0.0225	0.1057	6.3
-0.0008	-0.0038	0.0247	0.1327	6.4
-0.0008	-0.0158	0.033	0.1185	6.3
0.0022	-0.0128	0.0397	-0.0428	6.2
0.003	0.003	0.0472	-0.1748	6.2
0.003	0.0015	0.0525	-0.1396	6.4
0.0045	0.0375	0.0442	-0.0706	6.2
0.0037	0.0315	0.0375	0.0105	6.6
0.003	0.0007	0.0307	0.0255	6.3
0.003	0.0142	0.0217	0.0007	6.6
0.0015	0.0052	0.0142	0.033	6.4
0.0022	-0.0091	0.0015	0.0607	6.4
0.0022	-0.0105	-0.006	0.066	6.4
0.003	0.0037	-0.0105	0.0705	6.2
0.0052	-0.0023	-0.0158	0.069	6.3
0.006	-0.0128	-0.0113	-0.0383	6.1
0.0037	-0.0053	-0.0075	-0.1441	6.3
0.003	0.003	-0.0105	-0.0713	6.1
0.0045	0.024	-0.0165	0.0165	6.4
0.0022	0.0232	-0.0158	0.0195	6
0.0007	0.024	-0.0105	0.0225	6.4
0.003	0.0315	-0.0083	0.0045	6.1
0.0045	0.0075	-0.0068	-0.084	6.4
0.0052	-0.033	-0.0091	-0.0293	6.1
0.0037	-0.0615	-0.0098	0.0375	6.4
0.0015	-0.045	-0.0098	-0.0668	6.1
0	0.0022	-0.0053	-0.0083	6.3
-0.003	0.0255	0.0015	0.0142	6.3
0.0015	0.0322	-0.0038	0.0202	6.4
0.0052	0.0105	-0.003	0.0847	6.3
0.0052	-0.0346	0.003	0.0127	6.2
0.0067	-0.0503	0.0015	-0.027	6.2
0.006	-0.0233	-0.003	-0.123	6.1
0.0037	0.0015	-0.0008	-0.075	6.3
0.0007	-0.0105	0.0015	-0.0015	6.1
-0.0015	-0.003	-0.003	-0.048	6.3
-0.0015	-0.0091	-0.0038	-0.0008	6.3
-0.0015	-0.012	-0.0083	-0.0256	6.3
-0.0008	0.0037	-0.0105	-0.0233	6.3
-0.0008	0.0045	-0.0068	0.0255	6.2
0.0007	0.012	-0.0053	0.0262	6.4
0.0007	0.0105	-0.0068	0.0367	6.2
0.0007	0.015	-0.0083	0.033	6.3
0.0015	0.0127	-0.0053	0.0307	6.3
0.0007	0.0127	-0.0046	0.0255	6.4
0.0015	0.0127	-0.0038	0.0217	6.6
0.0015	0.0037	-0.0046	0.0135	6.4
0.0045	0.0045	-0.0083	0.0007	6.3
0.0067	0.0187	-0.0091	-0.0091	6.4
0.006	0.0367	-0.0091	0.0015	6.4
0.009	0.0232	-0.0083	0.0405	6.4
0.0105	-0.015	-0.0068	0.0667	6.4
0.009	-0.0443	-0.0008	0.078	6.4
0.0082	-0.0503	-0.0008	0.024	6.5
0.0052	-0.0181	-0.0015	-0.027	6.5
0.0022	0.024	0.0022	0.0577	6.7
-0.0008	0.0172	0.0015	0.093	6.4
0.0007	0.0127	-0.0015	0.045	6.5
0.0037	0.0232	-0.0046	0.0157	6.4
0.0045	0.0202	-0.0053	-0.0443	6.4
0.006	0.0172	0.0007	-0.0698	6.5
0.0045	0.0075	0.003	-0.1155	6.4
0.0067	0.006	0.0022	-0.1396	6.6
0.0105	0.0112	0.0045	-0.0361	6.4
0.0082	0.018	0.0015	0.0075	6.7
0.0045	0	-0.0008	-0.0158	6.3
0.0015	0.0007	0.0015	-0.012	6.5
0.0022	0.012	0	-0.0091	6.6
0.003	0.0045	0.0015	0.012	6.7
0.0022	0.0045	0	0.006	6.6
0.0022	-0.0015	-0.0008	0.0052	6.5
0.003	-0.0008	0.0045	0.0075	6.7
0.0015	0	0.0045	0.003	6.5
0.0007	-0.0015	-0.0008	0.0142	6.5
0.0022	-0.0015	-0.003	0.0172	6.6
0.0075	-0.0075	0.0007	0.0352	6.5
0.0105	-0.0075	0.003	0.0255	6.6
0.009	0.0015	0.0022	0.0292	6.6
0.009	0.0015	0.0022	0.0682	6.4
0.009	-0.0053	0.0015	0.0555	6.6
0.0082	-0.0015	-0.0038	0.0292	6.7
0.0067	-0.0053	-0.0053	0.0397	6.7
0.0067	-0.0113	-0.003	0.0352	6.7
0.0082	-0.0203	-0.0008	-0.0458	6.6
0.0105	-0.0368	0.0007	-0.0915	6.7
0.009	-0.0405	0.0097	-0.123	6.6
0.0082	-0.0158	0.0165	-0.1673	6.7
0.0082	0.0307	0.0172	-0.0825	6.6
0.0067	0.0607	0.009	0.03	6.8
0.0067	0.0532	-0.0023	0.069	6.6
0.0052	0.0225	-0.003	0.0375	6.7
0.003	0.0142	0.0007	-0.0263	6.7
-0.003	0.0232	0.0007	-0.0046	6.7
-0.0046	0.0015	-0.0008	0.0757	6.9
-0.0015	-0.0285	0	0.0787	6.7
-0.0023	-0.0518	0.003	0.0345	6.9
-0.0038	-0.048	0.006	-0.03	6.7
-0.0068	-0.0285	0.0082	-0.063	7
-0.012	-0.0285	0.0082	-0.0308	6.7
-0.0158	-0.006	0.0075	-0.012	7
-0.0158	0.0082	0.0082	0.0157	6.8
-0.015	0.027	0.009	0.0202	7.1
-0.015	0.027	0.0105	0.0225	6.9
-0.015	0.009	0.009	0.003	7.1
-0.0158	0.0165	0.009	-0.0165	7
-0.0158	-0.0023	0.009	0.0082	7.2
-0.0158	0.0007	0.0082	-0.0053	7
-0.0181	0.0082	0.0075	-0.0038	7.1
-0.0203	0.0075	0.0015	-0.0128	7.1
-0.0195	0.0165	-0.0046	0.012	7.1
-0.0173	0.012	-0.0008	0.0765	7.3
-0.0158	0.0015	0.003	0.054	7
-0.012	0.009	-0.0008	0.0165	7.4
-0.0083	0.0105	-0.003	0.0105	7.1
-0.0083	-0.0105	-0.0015	0.0067	7.2
-0.006	-0.0091	-0.0023	0.0165	7.2
-0.0015	-0.0143	-0.0038	0.048	7.4
-0.0008	-0.0256	-0.003	0.0135	7.2
-0.0008	-0.024	-0.003	-0.054	7.4
-0.0023	-0.0181	-0.0053	-0.0383	7.2
-0.0038	-0.0158	-0.0113	0.0577	7.4
-0.003	-0.0135	-0.0165	0.1177	7.3
-0.0053	0.0052	-0.0203	0.0667	7.6
-0.0053	-0.0068	-0.0181	-0.0128	7.4
-0.0068	-0.0203	-0.012	-0.1253	7.4
-0.0083	0.0007	-0.0098	-0.1628	7.3
-0.0068	0.0195	-0.0075	-0.063	7.5
-0.0083	0.015	-0.006	-0.0315	7.5
-0.0068	0.003	-0.0083	-0.039	7.5
-0.0068	0.0105	-0.0083	-0.0046	7.6
-0.0053	0.0135	-0.0083	0.0127	7.7
-0.0046	0.0105	-0.0053	0.0232	7.8
-0.0053	0.0105	-0.0008	0.0127	7.8
-0.003	0.0082	0.0015	-0.0308	7.7
0	0.009	0.0052	-0.033	7.8
0.0022	0.0052	0.012	0.009	7.8
0.006	-0.0075	0.0097	0.0157	8.1
0.0097	-0.0083	0.003	0.0285	7.9
0.012	-0.0023	-0.0008	0.0382	8
0.0105	0.003	-0.0068	0.0232	8.1
0.0105	0.0052	-0.0128	0.0622	8
0.0097	0.012	-0.0165	0.0742	8.1
0.0067	0.0292	-0.0165	0.0525	8.1
0.003	0.0232	-0.0128	0.03	8.2
0.0007	0.0082	-0.006	-0.003	8.1
-0.0023	0.0052	-0.003	-0.0128	8.4
-0.003	-0.0135	-0.0046	-0.0436	8.3
-0.0015	-0.027	-0.0008	-0.0638	8.3
-0.003	-0.0105	0.0015	-0.057	8.2
-0.003	-0.003	0.0015	-0.0458	8.5
-0.0008	-0.012	0.0022	0.0007	8.3
-0.0015	-0.0015	0	-0.0158	8.6
-0.0038	0.0157	-0.0008	-0.0615	8.4
-0.0008	0.0225	-0.0015	-0.0225	8.7
0.0022	0.0315	-0.0015	0.072	8.6
0.003	0.0105	-0.0046	0.1042	8.7
0.0045	-0.0203	-0.0046	0.0352	8.7
0.0045	-0.0323	-0.003	-0.0346	8.5
0.003	-0.0518	0.0007	-0.0788	8.8
0.003	-0.0278	0.0067	-0.0983	8.5
0.0067	0.0082	0.003	-0.0713	9
0.009	-0.0038	-0.0015	0.018	8.7
0.0082	-0.0068	-0.003	0.0382	9
0.0045	-0.0083	-0.0046	-0.0023	9
0.003	-0.024	0	0.0007	9
0.0007	-0.0158	0.006	-0.0233	8.9
-0.0008	0.0067	0.0015	0.0157	9.1
0.0015	0.0315	-0.0023	0.045	9.1
0.0022	0.0502	-0.0008	0.0435	9.2
0.003	0.0262	-0.0015	0.0862	9.3
0.0015	-0.0128	-0.0015	0.0427	9.2
-0.0008	-0.0278	0.003	-0.0091	9.1
-0.0015	-0.0195	0.0052	-0.0308	9.3
-0.0015	-0.0038	0.009	-0.0555	9.3
-0.0015	0.0045	0.0165	-0.0203	9.3
-0.0023	0.0352	0.0135	0.0315	9.4
0.0007	0.0502	0.0082	0.0277	9.4
0.0015	0.0427	0.0075	-0.0181	9.4
-0.0015	0.0345	0.0082	-0.0315	9.4
-0.0008	0.0232	0.0097	-0.0346	9.6
0.0045	0.009	0.0082	-0.0346	9.6
0.009	0.0052	0.0052	-0.0083	9.5
0.0105	0.0217	0.003	0.0285	9.6
0.0097	0.0262	-0.0008	0.0742	9.7
0.009	0.006	0.0007	0.123	9.9
0.0067	-0.0225	0.0037	0.1305	9.7
0.0067	-0.03	0.0045	0.0315	9.8
0.0052	-0.0323	0.0082	-0.0848	9.8
0.0045	-0.0188	0.0067	-0.1463	9.9
0.0075	0.0075	0.0052	-0.1478	9.9
0.003	0.0172	0.009	-0.0293	10
0.0015	0.0015	0.0082	0.0202	10.2
0.003	-0.0128	0.0045	-0.0308	10
0.0015	-0.0053	0	-0.0165	10.1
0	-0.0098	0.0015	-0.0181	10.1
-0.0015	0.0015	-0.003	-0.0053	10.3
0	0.0052	-0.012	0.0045	10.2
-0.0015	-0.0015	-0.0135	0.0105	10.4
-0.0015	-0.003	-0.0165	0.0202	10.4
-0.0038	-0.0105	-0.0158	0	10.6
-0.0053	-0.0068	-0.0203	0.0127	10.5
-0.0053	-0.0143	-0.0218	0.009	10.7
-0.0091	-0.0053	-0.0135	0.0187	10.7
-0.0068	0.0007	-0.0128	0.0232	10.8
-0.0068	-0.0053	-0.0098	0.0157	10.7
-0.006	-0.0083	-0.0046	0.0165	11
-0.0053	-0.0046	0.0007	0.003	11.2
-0.003	-0.0015	0.0052	0.0105	11
-0.0023	-0.0083	0.009	-0.0008	11.3
-0.0008	-0.0008	0.0157	0.0082	11.3
0.003	0.0037	0.0195	0.0202	11.2
0.0052	0.012	0.0225	0.0097	11.4
0.006	0.012	0.0217	0.0142	11.6
0.0075	0.0015	0.0225	0.009	11.6
0.0052	-0.0008	0.0225	0.0097	11.7
0.003	-0.003	0.024	0.012	11.8
-0.0008	-0.0015	0.0255	0.0082	11.7
-0.0046	0.0007	0.021	0.0157	11.8
-0.0053	0.0045	0.0202	0.0202	12
-0.0053	0.0105	0.0157	0.0225	12.1
-0.0015	0.0195	0.0105	0.024	12.2
0.0045	0.0202	0.0067	0.0165	12.3
0.003	0.003	0.0045	-0.006	12.2
0.0015	-0.0068	0.0052	-0.012	12.4
0	0.0007	0.0015	0.0045	12.7
-0.0008	0	-0.0015	0.0112	12.5
-0.0015	0.0015	-0.0046	0.009	12.9
-0.0023	-0.0015	-0.0075	-0.0046	12.8
-0.0046	-0.0091	-0.0068	-0.0128	13
-0.0046	-0.0083	-0.0046	-0.0091	13
-0.0046	-0.0091	-0.0015	-0.012	13.2
-0.0046	-0.0053	0.0045	-0.0113	13
-0.0053	-0.0046	0.012	-0.0113	13.5
-0.0015	-0.0023	0.0142	-0.0113	13.3
0.0022	0.0007	0.0105	-0.0075	13.6
0.0045	0.0015	0.0045	-0.0075	13.7
0.006	0.003	-0.003	-0.0046	13.9
0.0067	0.0022	-0.0068	-0.003	14.1
0.0082	0.0015	-0.0105	-0.0023	14.1
0.0067	0.0007	-0.0143	-0.0015	14.4
0.0052	-0.0008	-0.0173	-0.003	14.4
0.003	-0.0008	-0.0188	-0.0046	14.7
0.0007	0.0015	-0.0165	-0.006	14.6
-0.0008	0.0015	-0.0128	-0.0038	14.8
-0.0015	-0.0008	-0.0091	-0.0008	14.8
-0.0038	-0.0008	-0.0068	0.0015	15.1
-0.0068	0.0015	-0.006	0.0022	15.3
-0.0091	0.003	-0.006	0.003	15.6
-0.012	0.0022	-0.0038	0.0007	15.6
-0.012	0.0007	-0.0046	-0.003	15.7
-0.012	0.0022	-0.003	-0.0038	16
-0.0128	0.0045	0.0015	-0.0038	16.1
-0.0128	0.003	0.006	-0.003	16.1
-0.012	0.0037	0.0082	-0.0023	16.3
-0.012	0.003	0.0075	-0.003	16.6
-0.0113	0.0022	0.0097	-0.0015	16.5
-0.0091	0.0045	0.0142	0.003	16.8
-0.0053	0.006	0.018	0.0045	16.9
-0.0015	0.0075	0.018	0.0052	17.1
0.0045	0.0075	0.0165	0.0045	17.3
0.009	0.0052	0.015	0.0015	17.4
0.0112	0.0045	0.0142	-0.0091	17.5
0.0142	0.003	0.0127	-0.0225	17.6
0.0165	0.0037	0.0112	-0.0158	18
0.018	0.0045	0.0097	-0.0038	18.1
0.0195	0.0037	0.0075	-0.0038	18.4
0.0202	0.0045	0.0082	0.0007	18.4
0.021	0.0007	0.0067	-0.0038	18.6
0.024	0.0045	0.0045	-0.0091	18.8
0.0345	0.0075	0.0082	-0.0038	19
0.045	0.0052	0.0067	-0.0015	19.2
0.0502	0.0082	0.0045	-0.0015	19.3
0.0517	0.0067	0.0045	-0.0015	19.8
0.0465	0.006	0.0045	-0.003	19.7
0.0427	0.0045	0.0052	-0.0015	20.2
0.0367	0.0082	0.003	0.0007	20.1
0.0292	0.0082	-0.0046	0.0022	20.5
0.0232	0.0052	-0.0068	0.0022	20.4
0.015	0.0052	-0.0098	0.0015	20.7
0.0075	0.003	-0.0091	0.0037	20.8
0.0015	-0.0015	-0.0068	0.003	21.3
-0.0046	-0.0068	-0.0053	0.003	21.3
-0.0105	-0.0053	-0.0008	0.0045	21.6
-0.0188	-0.0038	-0.0015	0.0045	21.9
-0.0256	-0.0046	0.0022	0.0052	22
-0.0293	-0.0015	0.0052	0.0067	22.3
-0.033	-0.0015	0.003	0.0067	22.4
-0.0308	-0.0015	-0.0008	0.0052	22.9
-0.027	-0.003	-0.0053	0.0022	22.6
-0.0293	-0.0046	-0.0075	0.0007	23.2
-0.0308	-0.006	-0.006	0	23.4
-0.0346	-0.0038	-0.006	-0.0008	23.7
-0.0398	0.0007	-0.0053	0	23.7
-0.0436	0.0022	-0.0068	-0.0008	24.1
-0.0428	0.0045	-0.0068	0	24.2
-0.0383	0.0022	-0.0068	0.0007	24.5
-0.0353	0.0022	-0.0068	0.0015	24.8
-0.0375	0.0037	-0.0053	0.0015	25.2
-0.042	0.0015	-0.0038	0.0015	25.4
-0.039	0.0015	-0.0023	0.003	25.6
-0.033	0.0007	-0.0098	0.0052	25.8
-0.0293	0.0007	-0.0165	0.009	26.2
-0.027	0.0022	-0.0143	0.012	26.5
-0.0218	0.0045	-0.0165	0.0127	26.7
-0.0158	0.0052	-0.0165	0.0135	27
-0.0113	0.0067	-0.012	0.0082	27.3
-0.0113	0.0022	-0.0128	-0.0053	27.5
-0.0091	-0.003	-0.012	-0.0195	27.8
-0.0046	-0.0075	-0.012	-0.0165	27.9
-0.003	-0.012	-0.0113	-0.0038	28.3
-0.0015	-0.012	-0.0188	0	28.6
-0.0015	-0.0091	-0.0256	0.003	29
0.0007	-0.012	-0.0188	0.009	29
0.0022	-0.0158	-0.0053	0.0135	29.7
0.0045	-0.0135	0.0052	0.003	29.8
0.006	-0.0046	0.0105	0.0045	30.2
0.009	0.003	0.0022	0.0075	30.4
0.012	0.0067	-0.0173	-0.0128	30.6
0.0112	0.0045	-0.0443	-0.0046	31
0.0135	0.003	-0.0713	0.0082	31.3
0.0127	0.0022	-0.0878	0.0067	31.7
0.0127	-0.0015	-0.0998	0.012	32
0.018	-0.003	-0.108	0.0105	32.4
0.0187	-0.0023	-0.1163	0.0075	32.6
0.0195	-0.0053	-0.1245	-0.0008	32.9
0.024	-0.012	-0.12	0.0007	33.2
0.0255	-0.0195	-0.1118	0.018	33.6
0.021	-0.024	-0.096	0.0352	33.8
0.0195	-0.0248	-0.084	0.0465	34.3
0.0195	-0.0195	-0.0675	0.027	34.5
0.018	0.0022	-0.0383	0.0067	34.9
0.0165	0.012	-0.0068	0.0052	35.1
0.015	0.0052	0.0277	-0.0218	35.5
0.0142	0.0045	0.06	-0.0128	35.7
0.0157	-0.0015	0.0945	0.0112	36
0.015	-0.003	0.12	-0.03	36.4
0.015	0.0045	0.138	-0.0436	36.5
0.0157	0.0157	0.153	-0.0368	36.9
0.0165	0.0217	0.1605	-0.0383	37.1
0.0157	0.018	0.1672	0.0052	37.6
0.0157	0.0157	0.1612	0.033	37.8
0.0165	0.0165	0.147	0.0187	38.1
0.0165	0.0165	0.1282	0.0165	38.4
0.0142	0.009	0.1012	0.0262	38.8
0.0127	0.0022	0.0832	0.024	39.1
0.012	-0.0105	0.0667	-0.0023	39.3
0.0082	-0.0083	0.0457	-0.0405	39.7
0.006	0.003	0.027	-0.0091	40.1
0.0052	0.0022	0.009	0.03	40.5
0.0067	0.0037	-0.0046	0.0217	40.7
0.0052	0.003	-0.0135	0.0202	41
0.0037	0.003	-0.0256	-0.0105	41.4
-0.0008	0.0007	-0.0375	-0.0165	41.8
-0.0023	-0.003	-0.0511	0.003	42.1
-0.0015	-0.006	-0.0593	-0.003	42.2
-0.0008	-0.0053	-0.0615	0.0007	42.8
-0.003	-0.0023	-0.0653	0.0015	43
-0.006	-0.003	-0.0638	0.0052	43.5
-0.0075	-0.003	-0.06	0.006	43.7
-0.0083	-0.0038	-0.0555	0.0052	44.2
-0.0083	-0.003	-0.048	0.0067	44.3
-0.0046	-0.0046	-0.0405	0.006	44.9
-0.0023	-0.0053	-0.033	0.0097	45.2
0.003	-0.003	-0.0263	0.0082	45.4
0.006	-0.0015	-0.0203	0.0007	45.8
0.0067	0	-0.0143	-0.0143	46
0.009	0.0015	-0.0105	-0.0128	46.4
0.0172	0.0052	-0.0068	0.0045	46.6
0.0292	0.0045	-0.0008	0.0022	47.1
0.027	0.0015	0.0015	0	47.1
0.0195	0.0022	-0.0015	0.0007	47.6
0.0202	0.003	-0.0038	-0.003	47.6
0.015	0.0052	-0.0053	-0.003	48.3
0.0112	0.0075	-0.0083	-0.003	48.2
0.0067	0.0052	-0.0113	0.0007	48.9
0.0045	0.0015	-0.015	0.0022	49
0.006	-0.0053	-0.0225	0.0022	49.5
0.006	-0.0091	-0.027	-0.006	49.6
0.0052	-0.012	-0.0248	-0.0323	49.9
0.0022	-0.0181	-0.024	-0.0315	50.2
0.0022	-0.0098	-0.0181	-0.0105	50.5
0.0007	-0.0015	-0.0143	-0.0083	50.8
-0.0015	-0.0046	-0.0165	-0.0105	51.1
-0.003	-0.003	-0.0203	-0.0068	51.4
-0.0038	-0.0046	-0.024	-0.0068	51.4
-0.003	-0.003	-0.0256	-0.0046	51.8
-0.0038	-0.0015	-0.027	-0.0105	52
-0.0053	-0.0046	-0.0218	-0.0181	52.3
-0.0046	-0.0023	-0.0128	-0.0015	52.5
-0.003	-0.0015	-0.0023	0.003	52.8
0.0007	0.0007	0.0045	0.0022	53.1
0.0015	0.0007	0.009	0.0075	53.4
0.0015	-0.0015	0.0142	0.0045	53.6
0.0007	-0.0023	0.0157	0.0052	53.6
0.0007	-0.003	0.0127	0.006	53.9
0.0037	-0.0023	0.0157	0.0067	54.2
0.0045	-0.0015	0.0195	0.0052	54.4
0.003	0.0007	0.018	0.0037	54.7
0.0022	0.003	0.0195	0.0067	54.9
0	0.0045	0.0187	0.009	55
-0.0046	0.0022	0.0165	0.009	55.2
-0.0083	0.0007	0.0195	0.0045	55.6
-0.0091	0.0022	0.0217	0.0045	55.7
-0.0091	0.0052	0.0195	-0.003	56
-0.0113	0.0075	0.0127	-0.012	55.9
-0.0091	0.0075	0.0045	0.0037	56.4
-0.0068	0.0097	-0.0023	0.021	56.3
-0.006	0.0112	-0.0015	0.003	56.8
-0.0015	0.012	0.0037	-0.0098	56.7
-0.0008	0.0135	0.0105	-0.0008	57.1
0.0022	0.0127	0.0232	-0.0195	57.2
0.0022	0.009	0.0382	-0.0293	57.4
-0.0008	0.009	0.0465	-0.0008	57.6
-0.0046	0.009	0.0345	0.0202	57.7
-0.0083	0.0075	0.0255	0.0142	58
-0.0068	0.009	0.0307	0.0112	58
-0.0068	0.009	0.0375	0.0082	58.5
-0.0053	0.0097	0.042	0.003	58.4
-0.0015	0.0112	0.0405	0.009	58.7
0.0015	0.0097	0.036	0.0082	58.7
0	0.0067	0.027	0.0082	58.9
0.0007	0.0052	0.012	0.0045	59.1
0.003	0.0045	-0.0008	-0.0015	59.3
0.0052	0.0022	-0.0068	-0.0075	59.4
0.0052	0.003	-0.012	-0.0105	59.6
0.0045	0.003	-0.0105	0.003	59.7
0.003	0.0037	-0.0068	0.009	59.8
0.0037	0.0015	-0.003	0.006	60
0.003	0	0.0127	0.0075	60.3
0.003	0.0007	0.024	0.0067	60.4
0	0.0007	0.0255	0.0082	60.6
0.0007	-0.0008	0.021	0.006	60.8
0.0037	-0.0023	0.0165	0.0037	60.8
0.0052	-0.0023	0.0195	0.0022	61.1
0.0052	-0.003	0.0165	0.003	61.2
0.0045	-0.003	0.018	0.0052	61.4
0.0052	0.0007	0.0127	0.0082	61.5
0.0015	0.003	0.0105	0.0112	61.6
-0.003	0.003	0.0195	0.0105	62
-0.006	0.0045	0.0277	0.0105	62
-0.0091	0.0022	0.0337	0.0082	62.1
-0.0113	0.0015	0.0345	0.0052	62.1
-0.015	0.003	0.0255	0.0045	62.4
-0.0203	0.0037	0.0195	0.0037	62.5
-0.0218	0.0045	0.0195	0.0015	62.6
-0.021	0.003	0.0202	-0.003	62.6
-0.0195	0.0022	0.0195	-0.0046	62.8
-0.0158	0.0015	0.012	-0.0053	63.1
-0.0128	0	0.0067	-0.0053	63
-0.012	-0.0015	0.0015	-0.0083	63.3
-0.0083	-0.0023	-0.003	-0.0098	63.2
-0.0083	-0.0015	-0.0091	-0.0128	63.4
-0.006	-0.0023	-0.0203	-0.0181	63.3
-0.0015	-0.0008	-0.024	-0.021	63.5
-0.006	-0.0015	-0.0248	-0.0165	63.5
-0.0105	-0.0015	-0.027	-0.0046	63.5
-0.0113	-0.0015	-0.027	0.0007	63.7
-0.0105	-0.0015	-0.0368	0	63.7
-0.0068	-0.003	-0.0413	0.0045	63.7
-0.0015	-0.0046	-0.0361	0.0067	63.9
0.0045	-0.003	-0.0368	0.0052	63.8
0.0082	-0.0023	-0.0346	0.009	63.9
0.0105	-0.0023	-0.033	0.0105	64.2
0.012	-0.0008	-0.0338	0.0105	64
0.0157	0	-0.033	0.0082	64.2
0.0165	0	-0.033	0.0045	64
0.0127	-0.0008	-0.0308	0.0015	64.3
0.0105	-0.0015	-0.0308	-0.0046	64
0.0052	-0.003	-0.027	-0.0015	64
0.0022	0.0007	-0.0225	0.0075	64.1
0.0037	0.0022	-0.0218	0.0105	64.1
0.0037	-0.0015	-0.024	0.0105	64.2
0.0045	-0.003	-0.0263	0.009	64.2
0.0075	-0.0008	-0.0248	0.006	64.2
0.0097	0.0007	-0.027	-0.0015	64.2
0.0105	-0.0008	-0.0308	-0.0105	64.3
0.0112	-0.0008	-0.0285	-0.0143	64
0.012	0.0037	-0.0263	-0.0046	64
0.0127	0.0045	-0.0165	0.0007	64
0.0127	0.0007	-0.0143	-0.0015	63.9
0.0157	-0.003	-0.012	0.0015	63.9
0.015	-0.006	-0.0083	0.006	63.9
0.0127	-0.0091	-0.0083	0.012	63.9
0.0105	-0.0068	-0.0046	0.0075	63.7
0.0067	-0.0023	-0.0038	-0.003	64
0.003	0.0007	-0.0023	0.0007	63.5
0.0015	0.0015	-0.0008	0	63.8
0.0037	0.003	-0.003	0.003	63.4
0.003	0.003	-0.0023	0.0105	63.6
0.0022	0.0007	-0.0046	0.012	63.3
0.0022	-0.0008	-0.0105	0.0067	63.2
0.0022	-0.0015	-0.012	0	63.1
0.0052	-0.0038	-0.0135	-0.012	63.1
0.009	-0.0053	-0.0158	-0.024	63.3
0.0082	-0.0023	-0.0158	-0.0165	62.9
0.0067	0	-0.0128	-0.0068	63.1
0.0052	-0.0015	-0.0083	-0.0083	62.8
0.003	-0.0008	-0.0023	-0.0068	62.9
0.0007	0.0022	0.003	-0.0023	62.7
-0.0008	0.0022	0.0045	0.009	62.8
-0.0008	0.0007	0.0045	0.0195	62.5
0.0007	0.0015	0.0007	0.0187	62.7
-0.0008	0.0007	0.006	0.0135	62.4
0.0007	0.003	0.0127	-0.0015	62.2
0.0007	0.0037	0.0135	-0.0278	62.2
-0.0023	0.0052	0.0172	-0.0346	62.1
-0.003	0.0067	0.0202	-0.0233	62
-0.0053	0.0052	0.0195	-0.012	61.9
-0.0046	0.0045	0.018	0.0007	61.7
0	0.003	0.0142	0.009	61.6
0.0022	0	0.0135	0.015	61.5
0.0082	-0.0023	0.0142	0.0157	61.3
0.0112	-0.003	0.0165	0.012	61.1
0.012	-0.003	0.0202	0.0157	61
0.0105	-0.0015	0.0202	-0.0046	60.7
0.0082	0.0007	0.0195	-0.0181	60.8
0.0052	-0.0008	0.0165	-0.0015	60.5
0.0015	-0.0083	0.0105	-0.0068	60.3
-0.006	-0.0195	0.0067	-0.042	60.1
-0.012	-0.024	0.0082	-0.0278	60
-0.0128	-0.0233	0.009	0.0277	59.8
-0.012	-0.0128	-0.0008	0.006	59.5
-0.012	0.0037	-0.0128	-0.0308	59.3
-0.012	0.0127	-0.0105	-0.0225	59.1
-0.0105	0.018	-0.0008	-0.0098	59
-0.0091	0.0142	0.0097	0.018	58.8
-0.0068	0.0075	0.0165	0.0232	58.5
-0.0053	0.0022	0.0195	0.0165	58.4
-0.0046	0.0015	0.0187	-0.0068	58.2
-0.0038	0.0052	0.018	-0.0091	57.9
-0.0046	0.0075	0.0165	0.0037	57.8
-0.0046	0.0097	0.0112	0.0015	57.4
-0.006	0.0105	0.0105	0.0142	57.4
-0.0053	0.0097	0.0097	0.0045	56.9
-0.0053	0.009	0.012	0.0082	56.9
-0.0068	0.0067	0.0142	0.0067	56.5
-0.0023	0.0067	0.018	0.0007	56.4
-0.003	0.0052	0.024	0.0015	55.8
-0.003	0.003	0.024	-0.0023	55.7
-0.0015	0.003	0.0255	0.0037	55.5
0.0015	0.0007	0.0285	0.006	55.3
0	0.0015	0.0292	0.0142	55.1
0	0.0022	0.03	0.0135	54.5
0.0037	0.0015	0.027	0.0127	54.7
0.0015	0.003	0.0232	0.0195	54.2
-0.0015	0.003	0.0232	0.0142	54.1
-0.003	0.003	0.0187	0.0045	53.6
-0.0046	0.0015	0.0165	-0.0083	53.6
-0.0053	0.0015	0.0157	-0.0203	53.1
-0.006	0.0045	0.0067	-0.0218	53.1
-0.0053	0.0045	-0.0015	-0.0046	52.5
-0.003	0.003	-0.0046	0.0127	52.5
-0.003	0.003	-0.0046	0.0165	52.1
-0.0046	0.0015	-0.003	0.0105	52
-0.0053	0.0015	-0.0053	0.003	51.6
-0.0083	0	-0.0068	0	51.3
-0.0105	-0.0038	-0.0046	-0.0091	51.2
-0.0135	-0.003	-0.006	-0.0038	50.8
-0.0128	0	-0.0105	0.0112	50.7
-0.0128	-0.0008	-0.012	0.018	50
-0.0135	0.0015	-0.0105	0.0187	50.1
-0.012	0.0045	-0.0098	0.0127	49.5
-0.0091	0.0105	-0.0113	0.0112	49.4
-0.006	0.018	-0.0143	0	49
-0.0038	0.0187	-0.0158	-0.0143	48.9
-0.0015	0.0165	-0.021	-0.0091	48.4
-0.0015	0.0067	-0.0218	-0.0315	48.1
-0.0015	-0.0173	-0.0143	-0.0713	47.7
-0.0015	-0.0436	-0.0105	-0.0315	47.6
0.0007	-0.0563	-0.0091	0.0202	47.2
0.0045	-0.0428	-0.0068	-0.0195	46.8
0.0045	-0.0068	-0.0068	-0.039	46.7
0.0007	0.0067	-0.0075	0.0045	46.3
-0.0015	0.0015	-0.0083	0.0292	45.9
-0.0023	-0.0008	-0.0075	0.0157	45.6
-0.003	0.0015	-0.0098	0.0007	45.4
-0.003	0.003	-0.0128	0.006	45
-0.0046	0.003	-0.0158	0.0015	44.7
-0.0015	0.0037	-0.015	0.0007	44.4
-0.003	0.0007	-0.0113	0.0067	44.1
-0.006	-0.0008	-0.0113	0.0172	43.6
-0.003	-0.0046	-0.0113	0.048	43.3
-0.0046	-0.0091	-0.0083	0.0577	43
-0.0008	-0.0046	-0.003	0.0352	42.7
0.0067	0.003	0.0015	0.0067	42.4
0.012	0.006	0.0052	-0.0293	41.8
0.015	0.006	0.0082	-0.0548	41.6
0.018	0.0045	0.0105	-0.0353	41.2
0.0202	0.003	0.0142	-0.0195	40.9
0.024	-0.0008	0.0127	0.0007	40.5
0.0292	-0.0023	0.0142	0.0247	40.2
0.027	0.0015	0.0165	0.0097	39.9
0.0195	0.0045	0.018	0.0007	39.4
0.0097	0.0037	0.0217	0.0352	39.1
0.0022	-0.0098	0.015	0.0652	38.6
-0.0008	-0.0128	0.0075	0.039	38.3
-0.0023	-0.0091	0.0015	0.0105	37.9
-0.0046	-0.0046	-0.0075	-0.0105	37.6
-0.003	0.0045	-0.012	-0.0165	37.1
-0.0015	0.0045	-0.0143	-0.021	36.9
-0.0015	0.0067	-0.015	-0.0248	36.4
0.0022	0.0082	-0.015	0.0067	36.1
0.0052	0.012	-0.0128	0.0112	35.6
0.0067	0.0142	-0.0098	0.024	35.4
0.0127	0.012	-0.0046	0.042	34.9
0.015	0.0045	0.003	0.03	34.5
0.0165	-0.0015	0.0045	-0.0008	34.4
0.0142	0.0015	0.0097	-0.0315	33.8
0.0105	-0.0053	0.0105	-0.0511	33.6
0.006	-0.0128	0.0082	-0.0735	33
0.0015	-0.0038	0.0052	-0.0691	32.8
-0.0015	0.0105	0.006	-0.0563	32.4
-0.0068	0.0097	0.009	-0.024	32.2
-0.0068	0.003	0.003	-0.0015	31.7
-0.0038	-0.003	0.0015	0.0195	31.4
-0.0008	-0.0165	0.0007	0.042	31
0.0052	-0.0233	-0.0023	0.0157	30.5
0.0045	-0.0158	0	0.0112	30.2
0.003	-0.0015	0.0045	0.0082	30
0.0105	0.0037	0.0067	0.0075	29.5
0.018	0.0007	0.0007	0.012	29.3
0.0142	0.0037	-0.0038	0.0045	28.8
0.0157	0.006	-0.0015	0.0052	28.6
0.0172	0.006	0.003	-0.0015	28.3
0.0142	0.006	0.0022	0.0015	27.9
0.0097	0.0082	0.003	-0.0008	27.6
0.0015	0.009	0.003	-0.0015	27.3
-0.0008	0.0082	0.0015	-0.0008	26.9
-0.0053	0.0052	0.0052	-0.0038	26.5
-0.0091	0.0052	0.0112	-0.0015	26.1
-0.012	0.006	0.0112	-0.0068	26
-0.012	0.0052	0.0082	-0.0046	25.5
-0.0091	0.0067	0.0007	-0.006	25.3
-0.0075	0.0067	-0.006	-0.0046	24.9
-0.0046	0.0075	-0.006	-0.0015	24.6
-0.0015	0.0075	-0.0068	-0.0008	24.3
0.003	0.006	-0.006	0.0015	24
0.0022	0.0067	-0.0083	0.0007	23.7
0.0015	0.0052	-0.012	0.0037	23.2
0	0.003	-0.012	0.0022	23.2
0.0052	0.0015	-0.021	0.0015	22.6
0.0217	0.0007	-0.0315	0.0015	22.6
0.0345	0.0007	-0.0278	0.0022	22
0.0315	0	-0.0113	0.0037	22
0.0142	0.0007	0.0135	0.0022	21.5
-0.003	0.003	0.0315	0.0022	21.5
-0.0135	0.003	0.0352	0.003	21
-0.0203	0.0037	0.0217	0.0052	20.8
-0.024	0.0052	0.0045	0.0007	20.3
-0.024	0.0067	-0.012	-0.0046	20.2
-0.0256	0.0097	-0.0158	0	19.8
-0.0256	0.0105	-0.0105	0.003	19.6
-0.0218	0.0105	-0.0038	0.0045	19
-0.0218	0.0135	0.006	0.0067	18.8
-0.0233	0.0225	0.0015	0.0225	18.7
-0.0218	0.0247	-0.0015	0.0517	18.2
-0.0195	0.0217	0.0007	0.0562	18.2
-0.0181	0.024	-0.003	0.0465	17.5
-0.0105	0.0225	-0.0098	0.0465	17.5
-0.0008	0.009	-0.012	0.033	17
0.0015	-0.0135	-0.0046	-0.0173	16.8
0.0015	-0.0353	0.0045	-0.126	16.3
0.0015	-0.039	0.0045	-0.1628	16.3
0.0045	-0.0338	0.003	-0.0511	16
0.006	-0.0278	0.0045	0.018	15.7
0.0052	-0.015	0.0045	0.0142	15.5
0.0075	-0.0008	0.0015	0.0172	15.1
0.0067	0.012	0.0022	0.0157	14.9
0.0097	0.018	-0.0038	0.0465	14.5
0.0127	0.009	-0.006	0.048	14.4
0.012	0.0052	-0.0068	0.0255	14.1
0.0142	0.0007	-0.0128	0.0345	13.9
0.0127	-0.006	-0.0173	0.0532	13.6
0.0127	-0.0158	-0.0225	0.0705	13.5
0.012	-0.0233	-0.0256	0.0322	13.2
0.009	-0.021	-0.0263	-0.0181	13
0.0112	-0.0173	-0.0278	-0.015	12.9
0.009	-0.0053	-0.0323	0.0165	12.8
0.0075	0.003	-0.033	0.0195	12.4
0.0015	0.009	-0.0278	0.006	12.1
-0.0046	0.0127	-0.024	0.0292	12.3
-0.0068	0.0127	-0.0195	0.0217	11.8
-0.012	0.012	-0.0181	-0.0248	11.8
-0.0143	0.0067	-0.0181	-0.0893	11.7
-0.0188	0.0075	-0.0173	-0.117	11.5
-0.0218	0.0082	-0.0225	-0.0443	11.2
-0.0195	0.0097	-0.024	0.0277	11.1
-0.0158	0.0037	-0.024	0.0592	11
-0.0105	-0.0053	-0.0218	0.0465	10.7
-0.0068	0.003	-0.0203	-0.0128	10.6
-0.0046	0.012	-0.0195	-0.0405	10.2
0.0007	0.0097	-0.0075	-0.0233	10.3
0.006	0.0052	0	-0.0098	9.9
0.0105	-0.0038	-0.0038	-0.0083	10.1
0.0127	-0.0181	0.0007	-0.0181	9.4
0.0097	-0.0293	0.0082	-0.021	9.5
0.009	-0.0315	0.0075	0.0007	9.2
0.0127	-0.0218	0.0082	0.012	9.2
0.0105	-0.0053	0.0135	0.0195	8.8
0.0142	0.003	0.012	0.0217	8.7
0.0157	0.0067	0.0127	0.0195	8.4
0.0105	0.0082	0.0195	0.0352	8.3
0.006	0.0105	0.0135	0.0225	8.2
0	0.0142	0.0127	0.0157	7.6
0.0007	0.0105	0.0127	0.012	7.7
0	0.0105	0.009	-0.003	7.3
-0.0038	0.0105	0.009	-0.0091	7.2
-0.0053	0.0067	0.0052	-0.024	6.8
-0.0038	0.0082	0.0045	-0.0308	6.9
-0.003	0.006	0.0112	-0.024	6.4
-0.0083	0.0045	0.0232	-0.006	6.4
-0.006	0.006	0.0315	0.0052	6.1
-0.0015	0.006	0.027	0.0112	6
-0.0008	0.0045	0.0217	0.0195	5.8
-0.0015	0.0022	0.015	0.0157	5.6
-0.003	0.0007	0.006	0.0142	5.5
-0.0075	-0.003	0.0022	0.0127	5.3
-0.012	-0.0038	-0.0008	0.0105	5.2
-0.0113	-0.0038	-0.0068	0.009	4.7
-0.0083	-0.0046	-0.0105	0.0045	4.9
-0.0053	-0.0008	-0.015	0.0015	4.5
-0.006	0.0022	-0.0203	-0.0015	4.5
-0.006	0.003	-0.0158	-0.0046	4.4
-0.0053	0.0015	-0.0091	-0.0113	4.4
-0.0023	0.0007	-0.0143	-0.0158	4
-0.0046	-0.0023	-0.021	-0.0263	4
-0.0091	-0.0038	-0.0128	-0.039	3.7
-0.0143	-0.0053	0.0015	-0.0443	3.7
-0.0195	-0.0091	0.0097	-0.0353	3.6
-0.0158	-0.0091	0.0082	-0.015	3.5
-0.0091	-0.0083	0.009	-0.0053	3.4
-0.0015	-0.0075	0.0217	0.0045	3.4
0.0067	-0.0038	0.0262	0.0142	3.1
0.015	-0.0008	0.0315	0.018	3.1
0.0165	-0.0008	0.0352	0.018	3
0.018	-0.003	0.0232	0.0172	2.9
0.018	-0.0038	0.0232	0.0172	3
0.0105	-0.0053	0.033	0.0127	2.8
0.0165	-0.0046	0.0345	0.0105	2.6
0.0217	0	0.048	0.009	2.6
0.0255	0.0007	0.0675	0.0067	2.5
0.0255	0	0.0825	0.0045	2.6
0.0285	-0.0008	0.093	0.006	2.3
0.024	0.003	0.0892	0.0067	2.5
0.0262	0.0052	0.0712	0.003	2.3
0.048	0.0052	0.0397	0.0037	2.4
0.057	0.0052	0.0127	0.0015	2.4
0.0615	0.0037	-0.0105	-0.0015	2.4
0.0555	0.003	-0.0323	-0.003	2.5
0.06	0.0052	-0.0563	-0.003	2.3
0.054	0.0052	-0.0803	-0.0046	2.4
0.0165	0.0037	-0.078	-0.006	2.3
-0.0008	0.0052	-0.0675	-0.0053	2.4
-0.012	0.0045	-0.0675	-0.0068	2.2
-0.0098	0.0037	-0.0758	-0.0105	2.4
-0.0091	0.003	-0.0953	-0.012	2.4
-0.0091	0.003	-0.0923	-0.0128	2.4
-0.003	0.003	-0.0803	-0.015	2.3
0	0.0045	-0.0728	-0.0143	2.3
0.0105	0.0037	-0.0653	-0.012	2.4
-0.0023	-0.0008	-0.0608	-0.0113	2.3
-0.024	-0.003	-0.0563	-0.0068	2.5
-0.0443	0.0045	-0.0825	0.0045	2.4
-0.0405	0.0067	-0.114	0.012	2.4
-0.0158	0.0067	-0.0915	0.0142	2.4
-0.0008	0.012	-0.0256	0.024	2.4
0.0022	0.0105	0.036	0.039	2.5
-0.0413	0.0097	0.0232	0.0292	2.4
-0.0998	0.0052	-0.0233	0.0082	2.5
-0.132	0.0007	-0.0195	0.0112	2.4
-0.1478	-0.0023	-0.0105	-0.0375	2.6
-0.135	-0.0083	0.0082	-0.099	2.5
-0.1073	-0.015	0.0322	-0.0773	2.7
-0.0675	-0.0218	0.0292	-0.078	2.4
-0.0323	-0.0158	0.0105	-0.0923	2.9
-0.0105	-0.0181	-0.0181	-0.0653	2.5
0.0105	-0.0256	-0.0293	-0.0135	2.8
0.0075	-0.03	-0.0158	0	2.7
-0.0068	-0.0315	0.0067	-0.0181	2.7
-0.0128	-0.006	0.024	0.0202	2.8
-0.0091	0.012	0.042	0.0322	2.8
0.006	0.0187	0.057	0.0405	3
0.0127	0.0285	0.0712	0.0427	2.9
0.018	0.0307	0.0742	0.0502	3.1
0.0315	0.027	0.0652	0.0795	2.8
0.0465	0.0217	0.0525	0.0712	3.1
0.048	0.0195	0.036	0.0705	2.9
0.0442	0.0187	0.0292	0.0412	3.1
0.0367	0.018	0.027	0.015	3.1
0.0292	0.0105	0.027	-0.0285	3.2
0.0315	0.0082	0.0382	-0.0773	3
0.027	0.0127	0.045	-0.0623	3.3
0.024	0.012	0.042	-0.0038	3.3
0.0202	0.006	0.0375	0.0712	3.5
0.0157	-0.0038	0.033	0.0255	3.5
0.012	-0.0128	0.0255	-0.0165	3.6
0.003	-0.0218	0.0255	0.0315	3.6
0.0022	-0.0338	0.0427	0.0585	3.6
0.0052	-0.0413	0.0577	0.0165	3.6
0.0075	-0.0361	0.0555	-0.0181	3.6
0.003	-0.0308	0.0622	0.0045	3.8
-0.0015	-0.0278	0.0825	-0.0885	3.7
0.0007	-0.0105	0.093	-0.1193	3.9
0.0045	0.0037	0.0892	-0.0195	3.8
0.0052	0.0165	0.0787	-0.0143	4
0.0127	0.0345	0.0502	0.0292	4.1
0.0195	0.0345	0.021	0.0742	4.1
0.0135	0.0255	0.0082	0.042	4.3
0.0157	0.0142	-0.0046	-0.0323	4.2
0.0127	0.0045	-0.0195	-0.1215	4.5
0.0067	0.0165	-0.0308	-0.0683	4.5
0.0075	0.0292	-0.0278	-0.0038	4.5
0.0067	0.027	-0.0353	0.0367	4.5
0.0045	0.0157	-0.0465	0.0982	4.6
0.0052	-0.0046	-0.0413	0.1072	4.7
0.0082	-0.0203	-0.0473	0.0922	4.7
0.0157	-0.0143	-0.06	0.0405	4.8
0.0247	-0.0023	-0.0668	0.0502	4.9
0.0292	0.0022	-0.06	0.0457	5.1
0.0285	0.012	-0.057	0.0337	4.9
0.0292	0.0097	-0.054	0.063	5
0.0262	-0.0263	-0.0383	0.033	5
0.0225	-0.057	-0.0285	-0.0023	5.3
0.021	-0.0518	-0.0278	-0.1095	5
0.0165	-0.0315	-0.0181	-0.189	5.3
0.018	-0.0218	-0.0083	-0.2213	5.2
0.0292	0.003	-0.0053	-0.2108	5.3
0.0345	0.0382	0.0037	-0.0615	5.3
0.0292	0.0457	0.0082	0.0292	5.5
0.024	0.033	0.003	0.0652	5.5
0.0195	0.0105	0.0037	0.0427	5.4
0.012	0.0052	0.0172	-0.0405	5.7
0.0067	0.0142	0.0255	-0.0203	5.5
0.0022	0.0142	0.018	0.0097	5.8
0.0022	-0.0046	0.012	-0.0098	5.5
0.0045	-0.0188	0.0097	0.0187	5.8
0.003	-0.0158	0.012	0.0442	5.5
0.0067	-0.0083	0.0112	0.0345	5.8
0.012	0.0015	0.0007	0.0412	5.3
0.0097	0.0097	-0.0218	0.0555	5.4
0.0067	0.0127	-0.0338	0.0615	5.3
0.0045	0.0165	-0.0315	0.048	5.3
-0.0023	0.0352	-0.0346	0.0345	5.1
-0.0015	0.0375	-0.039	0.0405	5.1
-0.0015	0.036	-0.0346	0.012	4.9
-0.0068	0.0412	-0.0181	-0.048	4.8
-0.0053	0.0187	0.0007	-0.0735	4.9
-0.0015	-0.0263	0.0075	0.0007	4.6
-0.0008	-0.0698	0.0195	0.0862	4.7
-0.003	-0.0623	0.0315	0.0367	4.2
0.0007	-0.0293	0.0157	-0.024	4.3
0.0045	-0.0256	-0.003	-0.0218	4
-0.0015	-0.0181	-0.0105	0.042	4
-0.003	-0.0165	-0.0165	0.0735	3.8
-0.0023	-0.0083	-0.021	0.0022	3.9
-0.0046	0.0157	-0.0248	0.0045	3.8
-0.006	0.018	-0.0135	0.0112	3.6
-0.0083	0.015	-0.0143	-0.0091	3.4
-0.0181	0.0067	-0.0353	0.024	3.6
-0.033	-0.0008	-0.0563	0.0915	3.2
-0.0533	-0.0173	-0.0443	0.0765	3.1
-0.0743	-0.03	-0.0008	-0.0465	3.3
-0.075	-0.0068	0.0165	-0.0383	3.2
-0.0608	0.024	0.0202	0.03	3.3
-0.0375	0.033	0.039	0.0367	3.2
-0.0308	0.018	0.054	0.0472	3.3
-0.0293	0.0052	0.0495	0.0307	3.3
-0.027	-0.015	0.0382	0.0105	3.3
-0.0263	-0.0278	0.0285	-0.0285	3.5
-0.0173	-0.0218	-0.0046	-0.0638	3.4
-0.0038	-0.0113	-0.0315	-0.0735	3.6
0.0082	0.0142	-0.0256	-0.0615	3.5
0.0015	0.024	-0.0083	0.0202	3.9
-0.0068	0.0172	0.012	0.0367	3.8
0.0165	0.0067	0.0262	-0.0135	3.9
0.0292	-0.0015	0.0142	-0.0293	4
0.0105	0.0105	0.003	-0.0361	4
0.003	0.0105	0.003	-0.048	4.3
-0.0015	-0.003	-0.003	-0.042	4.4
-0.0083	-0.0143	-0.0008	-0.024	4.5
-0.0105	-0.039	0.0105	-0.0128	4.7
-0.0075	-0.0428	0.003	0.054	4.9
0	-0.0383	-0.0046	0.1357	5.3
0.0022	-0.033	0.0217	0.0577	5.5
0.0045	-0.0315	0.0412	-0.1178	5.6
0.009	-0.0436	0.0502	-0.1605	6
0.0217	0.0165	0.048	-0.0195	6.3
0.0277	0.081	0.0262	0.1387	6.7
0.033	0.078	0.003	0.1087	6.7
0.0292	0.054	-0.0225	0.03	7.2
0.0217	0.024	-0.033	0.0675	7.3
0.0142	-0.0105	-0.0375	0.0285	7.6
0.006	-0.0278	-0.0555	-0.0218	8.1
0	-0.0098	-0.048	0.021	8.1
-0.0075	0	-0.0195	0.009	8.5
-0.0068	0.0015	-0.0015	-0.0765	8.6
-0.0046	0.0165	0.0172	-0.1313	9
0.0015	0.0457	0.018	-0.105	9.2
0.0075	0.075	0.0045	-0.099	9.5
0.0045	0.069	-0.0068	-0.1103	9.4
0.0067	0.0667	-0.0233	-0.0548	9.9
0.0097	0.063	-0.0323	0.0172	9.8
0.0105	0.0255	-0.033	0.0547	10
0.0067	-0.0218	-0.015	0.0637	9.9
-0.0038	-0.0608	0.0142	0.0622	10.3
-0.0135	-0.0871	0.0345	0.0315	10.3
-0.0203	-0.1088	0.0345	-0.0458	10.3
-0.0203	-0.108	0.0075	-0.1328	10.4
-0.0195	-0.0653	-0.0083	-0.1125	10.5
-0.0225	-0.0256	-0.0068	-0.0143	10.6
-0.0188	0.0082	-0.0128	0.024	10.7
-0.0173	0.0427	-0.0181	0.048	10.7
-0.012	0.054	-0.0346	0.0577	10.6
-0.003	0.057	-0.0548	0.0637	10.8
-0.003	0.0375	-0.0615	0.057	10.7
0.0015	0.018	-0.0405	-0.0046	11
-0.0015	0.0142	-0.015	-0.0105	11
-0.0053	-0.003	-0.0158	-0.0218	11
-0.0083	-0.012	-0.0293	-0.0518	11
-0.0278	-0.0075	-0.0158	-0.0368	10.8
-0.0683	0.012	-0.0008	-0.012	11.2
-0.09	0.0247	0.0517	0.003	10.8
-0.0908	0.0007	0.1155	-0.0105	11
-0.09	0.0067	0.087	0.0435	11
-0.078	0.0307	0.0495	0.1237	10.9
-0.0653	0.0195	0.0375	0.0997	10.7
-0.048	-0.0158	0.0562	-0.0098	10.7
-0.0233	-0.027	0.0442	-0.0638	10.8
0.0082	-0.0113	0.036	0.0232	10.7
0.0337	-0.0105	0.0727	0.042	10.8
0.048	-0.0053	0.078	0.018	10.6
0.0525	-0.003	0.099	0.0345	10.7
0.0555	0.003	0.096	0.018	10.6
0.0532	-0.0068	0.0802	0.0367	10.6
0.0277	-0.03	0.0682	0.0255	10.3
0.0142	-0.033	0.054	0.0255	10.3
0.009	-0.021	0.0615	0.009	9.9
0.0007	0.0067	0.0495	-0.024	10
0.0007	0.0142	0.0367	0.0517	9.9
0.0037	0.0112	0.0097	0.0555	9.7
0.0082	0.0135	-0.012	0.0082	9.5
0.0052	-0.0015	-0.0278	0.003	9.5
0.006	-0.0098	-0.0555	0.0217	9.3
0.009	-0.0278	-0.0878	0.1087	9
0.0127	-0.0765	-0.0998	0.0532	9.1
0.0142	-0.0743	-0.0863	-0.1815	8.7
0.0195	-0.0225	-0.0765	-0.312	8.6
0.0315	0.0142	-0.0653	-0.1388	8.5
0.0397	0.0532	-0.0728	0.0405	8.5
0.0465	0.078	-0.0908	0.021	8.1
0.054	0.081	-0.0871	0.0577	7.9
0.0577	0.0765	-0.084	0.0637	7.6
0.0502	0.057	-0.0856	0.0285	7.6
0.0495	0.0322	-0.0668	0.0517	7.2
0.0487	0.0225	-0.0533	0.042	7.1
0.0427	0.0142	-0.0465	0.0142	6.8
0.0292	0	-0.033	0.0427	6.7
0.015	-0.0181	-0.024	0.0667	6.5
0.0127	-0.0338	-0.0098	0.024	6.4
0.0045	-0.0563	-0.0046	0.0052	6.3
-0.0015	-0.0518	-0.0091	-0.012	5.9
-0.0053	-0.0105	-0.0015	-0.0105	6.2
-0.0083	0.015	0.0195	-0.0195	6
-0.0165	0.0232	0.0217	-0.0181	5.9
-0.0248	0.0195	0.0052	0.006	6
-0.0233	0.0082	-0.0158	0.0202	5.7
-0.0225	-0.012	-0.0293	0.1057	5.9
-0.0218	-0.0443	-0.0158	0.1005	5.7
-0.021	-0.0533	0.021	-0.0143	5.8
-0.0128	-0.0458	0.0367	-0.03	5.6
-0.0053	-0.0233	0.0232	-0.114	5.6
-0.0015	0.0292	0.0097	-0.1635	5.8
-0.0023	0.0255	-0.0068	-0.0645	5.8
-0.0053	0.0157	-0.0143	-0.0938	6.1
-0.0083	0.0307	-0.0181	-0.0518	6
-0.0181	0.0135	-0.0098	-0.0181	6.3
-0.0218	0.0067	0	-0.012	6.2
-0.0233	-0.0023	-0.0128	0.0802	6.5
-0.0218	-0.0038	-0.0165	0.066	6.4
-0.0218	-0.0046	-0.0128	0.084	6.8
-0.0233	-0.003	0.0052	0.0712	6.9
-0.0181	0.0112	0.0142	-0.0023	7.2
-0.0091	0.0202	0.0165	-0.0413	7.2
0.0015	0.0307	0.0142	-0.0293	7.7
0.0052	0.021	0.0037	0.0082	7.6
0.0112	-0.0105	0.0142	0.024	8
0.0157	-0.0405	0.021	0.0495	7.9
0.0127	-0.0638	0.0255	0.0142	8.1
0.0067	-0.075	0.0382	-0.0863	8.2
0.0052	-0.0315	0.0457	-0.1598	8.6
0.006	0.009	0.0442	-0.081	8.9
0.0045	0.0112	0.0337	-0.0053	8.8
0.0082	0.039	0.0277	0.0195	9.1
0.006	0.0502	0.036	0.0292	9
0.0052	0.0345	0.0555	-0.021	9.3
0.0127	0.018	0.057	-0.012	9.3
0.0225	0.0082	0.0457	0.0315	9.5
0.027	-0.0023	0.0232	0.021	9.3
0.0255	-0.0128	-0.0218	-0.0128	9.6
0.024	-0.0046	-0.0436	0.0517	9.5
0.0202	-0.0143	-0.048	0.036	9.6
0.0217	-0.003	-0.0503	-0.0361	9.7
0.0262	0.0142	-0.0458	-0.0405	9.9
0.03	0.0105	-0.0555	-0.003	9.7
0.033	-0.003	-0.0721	0.045	9.8
0.0382	-0.0135	-0.0795	0.015	9.7
0.0397	-0.0203	-0.0765	0.0397	9.5
0.0405	-0.021	-0.0645	0.0472	9.8
0.0412	-0.0068	-0.0525	0.0427	9.6
0.039	-0.0083	-0.0368	0.0397	9.9
0.0367	0.0082	-0.0203	-0.033	9.5
0.0322	0.0285	-0.0098	-0.0143	9.6
0.0255	0.018	-0.0015	0.0495	9.9
0.0165	-0.0015	0.0052	0.0172	9.9
0.0045	-0.015	0.018	-0.0743	9.8
-0.0053	-0.0135	0.0322	-0.0608	9.5
-0.0135	-0.0091	0.0405	0.0097	9.6
-0.0135	-0.0105	0.039	-0.0083	9.4
-0.006	-0.0113	0.0397	-0.0075	9.5
0.003	0.0015	0.0532	0.0015	9.5
0.006	0.0127	0.0652	0.0127	9.4
0.0045	0.0082	0.0727	0.0337	9.3
0.0045	0.0067	0.0765	0.018	9.3
0.003	0.0015	0.0832	0.0427	9.3
-0.003	-0.0083	0.09	0.0825	9.3
-0.006	-0.0256	0.0825	0.0502	9.2
-0.0068	-0.0248	0.0757	-0.0525	9
-0.0105	0.0052	0.0802	-0.0256	9
-0.0135	0.021	0.0862	0.0705	8.8
-0.0143	0.0255	0.078	0.003	8.9
-0.0203	0.0105	0.075	-0.111	8.7
-0.0278	0.0067	0.075	-0.126	8.6
-0.0353	0.0255	0.0735	-0.0615	8.5
-0.0428	0.0315	0.0772	-0.0158	8.4
-0.0503	0.042	0.0712	0.027	8.2
-0.0533	0.0412	0.054	0.048	8.2
-0.0548	0.033	0.0382	0.0345	8.1
-0.057	0.0202	0.024	0.0082	7.8
-0.0495	-0.0046	0.0067	-0.0653	7.7
-0.042	-0.0135	-0.0083	-0.0533	7.5
-0.0413	-0.0143	-0.024	0.0202	7.6
-0.0413	-0.0181	-0.0375	0.009	7.3
-0.039	-0.0165	-0.0503	-0.0165	7.2
-0.0375	-0.012	-0.063	-0.0008	7.1
-0.0293	-0.0128	-0.0675	0.0157	7
-0.0203	-0.0143	-0.0698	0.0202	7.1
-0.0083	-0.0195	-0.0668	0.0195	7
-0.0015	-0.0233	-0.0578	0.0075	7
-0.0008	-0.006	-0.0495	0.0097	6.7
0.0052	0.0097	-0.0563	0.0532	6.7
0.009	0.018	-0.0623	0.0322	6.6
0.009	0.0345	-0.0615	-0.0353	6.4
