File Name: dePie.log
Channel 4: 'Recto Femoral', 19669 values, engineering units: mV, no filters.
Channel 5: 'Biceps Femoral', 19669 values, engineering units: mV, no filters.
Channel 6: 'Vasto Medial', 19669 values, engineering units: mV, no filters.
Channel 7: 'EMG Semitendinoso', 19669 values, engineering units: mV, no filters.
Channel 8: 'Flexo-Extension', 19669 values, engineering units: deg, no filters.

0.0015	-0.0046	-0.003	0.018	94.5
0.0045	0.0232	-0.0128	-0.048	94.3
0.0037	0.0682	-0.0143	-0.057	94.3
0.0015	0.0202	-0.012	-0.0368	94.5
-0.0008	-0.0593	-0.0075	-0.0473	94.3
-0.0015	-0.0008	-0.0008	-0.0083	94.4
-0.0015	0.0307	0.0037	-0.0443	94.6
-0.0015	0.0105	0.0052	-0.0368	94.1
-0.0023	-0.012	0.0075	0.0082	94.6
-0.0008	-0.012	0.0052	0.0105	94.3
0.0007	-0.0173	0.0045	0.0262	94.5
0	-0.015	0.0045	-0.0091	94.3
0	0.0045	0.0022	0.0292	94.5
-0.0015	-0.0008	-0.0015	0.0495	94.6
-0.0023	0.0105	-0.0053	0.0202	94.3
-0.0008	0.0112	-0.0083	-0.0353	94.3
-0.0023	0.0135	-0.0083	-0.0135	94.5
-0.0046	0.0315	-0.0083	0.1297	94.5
-0.0053	0.0315	-0.0068	0.123	94.5
-0.0046	-0.033	-0.003	-0.0158	94.5
-0.006	-0.0436	0.003	-0.0998	94.5
-0.0075	0.075	0.006	0.039	94.3
-0.003	0.0585	0.0022	0.0195	94.6
-0.0023	-0.0585	-0.0008	-0.168	94.3
-0.0015	-0.0428	-0.003	-0.12	94.5
0.0015	-0.0308	-0.0046	-0.0765	94.3
0.0037	-0.0533	0.0015	-0.033	94.5
0.0045	0.012	0.0052	0.0037	94.5
0.0037	0.0345	0.006	0.0457	94.3
0.0007	-0.0135	0.009	0.1042	94.5
0	-0.021	0.0075	0.0607	94.5
0.0022	0.0195	0.0045	-0.0053	94.3
0.0037	0.0465	0.0015	-0.0743	94.5
0.0045	0.039	-0.003	-0.0165	94.5
0.0052	0.0405	-0.0015	0.0412	94.3
0.0052	-0.0023	-0.0015	0.0015	94.5
0.0052	-0.0128	-0.003	0.0457	94.4
0.0037	-0.0158	-0.0008	0.0555	94.6
0.003	-0.057	0	-0.0353	94.3
-0.003	-0.027	0.0007	-0.033	94.5
-0.0046	0.0135	-0.0008	0.0405	94.5
-0.0038	0.0382	0.0007	0.0675	94.6
-0.0046	0.0465	0.0037	0.099	94.4
-0.0023	0.033	0.003	0.0465	94.3
0.0007	0.0007	0.0007	-0.0721	94.3
0.0015	-0.0285	-0.003	-0.0405	94.4
0.0045	-0.0188	-0.0053	0.1312	94.5
0.0067	0.0127	-0.0091	0.111	94.4
0.0075	0.0105	-0.0105	-0.1095	94.1
0.0045	-0.0893	-0.006	-0.135	94.5
0	-0.165	-0.0038	0.0247	94.5
-0.0015	-0.039	0	0.111	94.4
-0.003	0.0952	0.0067	0.033	94.3
-0.0023	0.1072	0.0142	-0.027	94.5
0.0022	0.1005	0.0082	-0.0548	94.4
0.006	0.0135	-0.003	-0.1741	94.4
0.009	0	-0.0015	-0.1163	94.3
0.0067	0.0007	0.0067	-0.0256	94.5
0.0015	0.0165	0.0157	-0.0578	94.3
-0.0015	0.0757	0.0142	-0.0413	94.5
-0.0023	0.0097	0.0105	0.0652	94.4
0.0007	0.0007	0.0075	0.171	94.5
0.0007	0.0045	0.0052	0.0007	94.3
0.0007	-0.0458	0.0052	-0.126	94.3
0.0045	-0.0893	-0.0008	-0.0443	94.5
0.0045	-0.063	0	-0.0203	94.2
-0.003	-0.0563	0.006	-0.039	94.5
-0.0046	-0.0398	0.009	-0.0383	94.4
-0.0053	0.0195	0.006	0.024	94.4
-0.0038	0.0352	-0.0091	0.09	94.2
0.003	0.0255	-0.0195	0.1425	94.5
0.003	-0.012	-0.0143	0.1612	94.4
-0.0008	0.0765	-0.0046	0.2122	94.4
-0.0053	0.111	0.0015	0.1635	94.3
-0.0046	0.069	-0.0008	-0.0638	94.4
0.0007	0.0052	-0.0075	-0.1365	94.2
0.003	-0.0856	-0.0053	-0.1275	94.3
0.003	-0.1396	-0.0008	-0.207	94.4
0.0037	-0.123	0.0052	-0.1103	94.3
0.0045	0.0097	0.0105	0.0217	94.5
0.0007	0.0442	0.0015	-0.0053	94.3
0.0007	0.0232	-0.006	-0.027	94.5
0.0015	-0.0008	-0.0046	-0.0143	94.4
0.003	-0.021	-0.006	0.003	94.3
0.003	-0.006	-0.0068	0.0157	94.3
0.0007	0.018	-0.0023	0.0697	94.5
-0.0015	0.0217	0	0.0195	94.4
-0.003	0.0225	-0.0015	-0.0623	94.5
0.0007	0.0165	-0.012	-0.0278	94.3
-0.0008	-0.0293	-0.012	0.006	94.3
0	-0.0203	-0.006	0.0037	94.4
0.003	-0.0046	-0.003	-0.0181	94.5
0.0015	0.0052	0.0015	0.0172	94.4
0.0007	0.0037	0.0052	0.0352	94.5
0.0022	0.0015	0.0015	0.0405	94.5
0.0022	0.0405	-0.0008	0.0442	94.4
0.0015	0.0592	-0.0008	0.0352	94.3
0.0037	0.024	0.0007	0.0532	94.4
0.0022	-0.027	0.0052	0.0352	94.5
0.0007	-0.0315	0.0067	0.0292	94.3
0.0007	0.0045	0.0052	0.0202	94.4
0	0.012	0.0067	-0.0158	94.4
-0.0015	-0.0195	0.0075	-0.0683	94.4
-0.0015	-0.0128	0.0045	-0.0518	94.3
0	0.0127	0.0015	0.0157	94.4
-0.0008	0.0037	-0.003	0.0082	94.3
-0.0008	0.0052	-0.0075	-0.0091	94.3
-0.0015	0.0127	-0.0068	-0.0188	94.2
-0.0015	0.0105	-0.0068	-0.015	94.3
-0.0015	0.003	-0.0053	-0.003	94.2
0.0007	-0.0015	-0.006	0.0022	94.3
0.003	-0.0128	-0.0053	0.0015	94.4
0.003	-0.0128	-0.006	0.006	94.5
0.0022	0.0202	-0.0038	0.021	94.3
0.0007	0.0285	0.0007	0.003	94.4
-0.0008	0.027	-0.0023	0.0247	94.4
-0.0008	0.0195	-0.006	0.123	94.3
0.0015	0.0157	-0.012	0.1657	94.2
0.003	-0.0158	-0.0143	0.084	94.3
0.0022	-0.0368	-0.0068	0.009	94.2
-0.0023	-0.0083	0.003	-0.1365	94.1
-0.0098	-0.0165	0.021	-0.2378	94.2
-0.0128	0.0232	0.021	-0.0353	94.4
-0.0068	0.024	0.012	0.0157	94.3
-0.0046	-0.0105	0.0135	-0.0368	94.3
-0.003	-0.0105	0.0142	-0.0256	94.3
0	-0.03	0.012	-0.0555	94.3
0.003	0.0082	0.009	-0.0105	94.3
0.0045	0.048	0.0007	-0.0503	94.3
0.003	0.0667	-0.0068	0.0382	94.3
0.003	0.0187	-0.0046	0.108	94.3
0.003	-0.0691	0.0007	0.0195	94.2
0.0045	-0.0915	0.0015	0.027	94.2
0.0045	-0.075	0.003	-0.0405	94.3
0.0007	-0.0488	0.0097	-0.1426	94.2
0.0007	-0.0225	0.006	-0.0503	94.3
0.003	0.0435	0.0015	0.0457	94.3
0.003	0.0772	-0.0008	0.027	94.4
0.0067	0.012	-0.0053	0.0165	94.1
0.0022	-0.0181	0.0052	-0.033	94.4
-0.0046	-0.0083	0.0082	0.0165	94.3
-0.0075	-0.0083	0.0067	0.1117	94.3
-0.0091	-0.003	0.003	0.1425	94.3
-0.003	0.0442	-0.0046	0.141	94.4
0.0007	0.084	-0.0046	-0.0046	94.3
0.0022	0.0877	-0.0083	-0.12	94
0.0067	0.0817	-0.0105	-0.1253	94.3
0.0052	0.0292	0	-0.0675	94.2
0	-0.039	0.0067	0.0615	94.4
0	-0.1035	-0.0008	0.0592	94.1
-0.0008	-0.12	-0.0068	0.0405	94.6
-0.0046	-0.132	-0.0008	0.078	94
-0.0091	-0.0293	0.003	0.09	94.4
-0.0053	0.1147	-0.0091	0.1117	94.1
0.009	0.048	-0.0248	0.006	94.3
0.0202	-0.015	-0.0233	-0.123	94.2
0.0157	-0.0046	-0.003	-0.2183	94.5
0.0037	0.024	0.0105	-0.195	94.2
-0.0015	-0.0053	0.0142	-0.033	94.4
-0.0053	-0.0675	0.018	0.0322	94.3
-0.0053	0.0045	0.0165	0.048	94.3
-0.0008	0.0247	0.0105	-0.0285	94.4
0.0015	0.0157	0.0052	-0.0458	94.2
0.0007	0.0637	0.003	0.0292	94.6
0.0007	0.0975	-0.0023	0.0307	94.2
-0.0015	0.1132	-0.0023	0.06	94.5
-0.0038	0.0592	-0.0053	0.0607	94
-0.003	0.0052	-0.0105	0.0862	94.4
-0.0053	-0.0165	-0.0091	0.0772	94
-0.0046	-0.0315	-0.0091	-0.0443	94.5
-0.0046	-0.054	0.0007	-0.0795	94.1
-0.0068	-0.006	0.0105	0.0322	94.5
-0.003	0.0195	0.0082	0.0457	94.2
0.003	-0.0368	0.006	-0.0938	94.3
0.0045	-0.0533	0.0052	-0.0638	94.3
0.0082	-0.0353	0	0.0015	94.4
0.009	-0.027	-0.0053	-0.0015	94.1
0.009	-0.0458	-0.0098	0.0052	94.2
0.0105	-0.0135	-0.012	0.0067	94.4
0.0075	-0.0143	-0.0105	0.03	94.2
0.0067	-0.0405	-0.0083	-0.0436	94.4
0.0052	-0.0308	-0.0053	-0.042	94.2
0.0052	-0.0368	-0.006	0.0097	94.3
0.0052	-0.0375	-0.0075	0.0157	94.3
0.0007	-0.042	-0.0038	0.0292	94.2
0	-0.0046	-0.0038	-0.0038	94.3
0	0.0397	-0.003	0.018	94.4
0.0007	0.0322	-0.0008	0.0052	94.3
0.0015	0.0217	0.003	0.0165	94.3
0.003	0.0112	0.0045	0.0277	94.3
0.003	-0.0053	0.0015	-0.0533	94.4
0.0022	0.021	0.0022	-0.0203	94.3
0	0.054	0.0037	0.012	94.3
0	0.0427	-0.0008	0.0097	94.2
0.0015	0.012	-0.0023	0.027	94.3
0.0015	-0.012	-0.0008	0.0075	94.3
0.0007	-0.0008	-0.0015	0.0015	94.2
-0.003	0.015	-0.003	0.0105	94.3
-0.0038	0.0225	-0.0046	0.0255	94.3
-0.0038	0.0232	-0.0053	0.0307	94.2
-0.0046	0.0195	-0.0023	-0.0023	94.3
-0.003	0.0007	-0.0008	-0.0518	94.2
-0.003	-0.0233	0.0015	0.0487	94.3
-0.003	-0.0075	0.0022	0.1552	94.2
-0.003	-0.0353	0.0052	0.0097	94.3
-0.0046	-0.0713	0.0082	-0.1163	94.1
-0.0023	-0.0383	0.0037	-0.1328	94.3
-0.0008	0.0457	0.0052	-0.0691	94.3
-0.0008	0.0862	0.0082	0.0607	94.3
0.0015	0.0292	0.006	0.1477	94.4
0.0007	0.0255	0.0052	0.1672	94.3
0.0007	0.024	0.0037	-0.0638	94.5
-0.0008	-0.0361	0.0067	-0.2115	94.1
-0.003	-0.0488	0.0127	-0.1155	94.4
-0.0053	-0.0135	0.0135	-0.0615	94.1
-0.0023	0.0202	0.0052	0.048	94.6
0.0007	0.0285	-0.0008	0.069	94.3
0.0007	0.0165	-0.003	0.045	94.5
0.003	0.0082	-0.0023	0.0832	94.2
0.0067	0.012	-0.003	0.0952	94.4
0.0075	0.0202	-0.0075	0.0952	94.3
0.0075	0.0307	-0.0128	0.0165	94.3
0.0067	0.0457	-0.0105	-0.0038	94.4
0.0037	0.0637	0.0007	0.0337	94.3
-0.003	0.048	0.0105	0.0097	94.2
-0.0053	-0.0083	0.0165	-0.1313	94.2
-0.0046	-0.0856	0.0172	-0.1756	94.5
-0.003	-0.0885	0.0142	-0.0578	94.1
-0.003	-0.0525	0.012	-0.0248	94.4
-0.003	-0.0443	0.0105	0.018	94.2
-0.0015	-0.0308	0.0045	-0.0233	94.4
0.0007	0.0067	-0.0015	-0.0706	94.2
0.0045	0.0397	-0.0046	-0.0038	94.6
0.006	0.0345	-0.0046	0.0585	94.3
0.0082	-0.0165	-0.0083	0.054	94.3
0.0082	-0.0293	-0.0105	-0.0248	94.2
0.0045	0.0195	-0.0098	-0.045	94.3
0.0015	-0.0203	-0.0113	-0.0953	94.3
-0.0015	0.0007	-0.0105	0.0457	94.4
-0.0015	0.042	-0.0091	0.2497	94.4
0.0007	0.0202	-0.0173	0.2257	94.5
0.0052	0.0585	-0.0278	0.1515	94.4
0.0082	-0.0188	-0.021	-0.0495	94.3
0.003	-0.0908	0	-0.2123	94.5
-0.0053	-0.0346	0.0157	-0.2745	94.4
-0.0091	-0.006	0.0165	-0.1455	94.6
-0.0068	0.0112	0.0075	0.0315	94.4
-0.003	0.0382	0.0015	-0.0195	94.5
0	0.0495	-0.0015	0.0187	94.5
0.0037	0.0382	-0.0068	0.0862	94.3
0.0037	-0.0256	-0.0075	0.018	94.4
0.0022	-0.0818	-0.0015	-0.0818	94.5
0.0007	-0.0443	-0.0008	-0.0518	94.6
0.0015	0.018	-0.003	0.0652	94.3
0.0007	0.057	-0.003	0.1035	94.4
0.0015	0.0675	-0.0075	0.099	94.4
0.0045	0.0195	-0.0105	0.0367	94.4
0.0045	-0.0068	-0.006	0.0105	94.6
0.0015	-0.0105	-0.0008	-0.0203	94.5
-0.0008	-0.0233	0.0045	-0.1043	94.5
0.0007	-0.0105	0.0075	-0.0863	94.5
0.0015	-0.0083	0.0067	0.0082	94.5
0.0015	-0.0375	0.0075	0.054	94.4
0.0015	-0.0428	0.012	0.0555	94.6
0.0007	-0.0068	0.0127	0.045	94.5
-0.0015	-0.0015	0.0082	0.0067	94.6
0	0.0022	0.0052	0.0622	94.4
-0.0008	0.0375	0.0015	0.108	94.7
0.0015	0.003	-0.0008	-0.0503	94.3
0	0	0.0037	-0.1485	94.5
0	0.0382	0.0052	-0.0721	94.5
0.0015	0.0247	0.0075	0.027	94.6
0	-0.0091	0.012	0.036	94.6
0.0007	-0.0383	0.0112	-0.0353	94.5
0.0007	-0.0398	0.0067	-0.0315	94.6
-0.0008	-0.0308	0.003	0.0052	94.5
0.0007	0.012	-0.0015	0.0472	94.6
0.0007	0.0315	-0.0068	0.057	94.4
0.003	0.0135	-0.0046	0.0255	94.7
0.0052	0.012	-0.0053	0.0052	94.4
0.0045	-0.003	-0.0053	-0.0413	94.7
0.0022	-0.003	-0.0046	-0.0315	94.4
0.0007	-0.0053	-0.0083	-0.0143	94.5
-0.0008	-0.0053	-0.0046	0.0015	94.5
-0.0015	0.033	-0.0023	0.0495	94.5
0.0007	0.0495	-0.0015	0.0675	94.5
-0.0008	0.0127	0.003	0.1042	94.5
-0.0008	-0.0346	0.0022	0.0502	94.5
0	-0.0503	0.0022	-0.1245	94.6
0.0007	-0.0195	0.0007	-0.1523	94.6
0.0015	0.054	0.0015	0.0427	94.5
0.0007	0.0757	0.003	0.096	94.6
0.0007	0.0225	0.0015	-0.039	94.4
-0.0008	-0.0375	0.0037	-0.0563	94.5
-0.003	-0.0293	0.0022	-0.0075	94.5
-0.0008	-0.003	-0.0068	0.0352	94.5
-0.003	-0.0256	-0.006	-0.0068	94.5
-0.0046	-0.0083	-0.0023	-0.0413	94.5
-0.003	-0.0008	-0.0038	0.0045	94.6
-0.0008	-0.0046	-0.0023	-0.015	94.5
-0.0023	0.0142	0.0007	0.0037	94.5
-0.0053	0.0555	-0.0015	0.0607	94.4
-0.0023	0.0465	-0.0008	0.0322	94.6
-0.0023	-0.0473	0.0067	-0.0368	94.6
-0.0068	-0.093	0.006	-0.057	94.5
-0.003	-0.0503	-0.0015	-0.0165	94.5
0.0022	-0.0075	-0.0075	-0.0091	94.5
0.0045	0.012	-0.0098	0.0037	94.5
0.006	0.0217	-0.0075	0.0405	94.6
0.003	0.0495	-0.006	0.0255	94.6
-0.003	0.0862	-0.003	0.0502	94.6
-0.0046	0.0712	-0.0038	0.114	94.5
-0.0008	0.0502	-0.0046	0.0337	94.4
0.0037	0.0315	-0.0046	-0.0383	94.6
0.0052	0.0502	-0.0015	0.1335	94.5
0.003	-0.0075	0.009	0.1102	94.6
-0.0046	-0.1298	0.0202	-0.2235	94.4
-0.0046	-0.1065	0.0307	-0.3413	94.6
-0.0008	0.0472	0.0292	-0.1703	94.6
0.006	0.021	0.003	-0.0353	94.6
0.012	-0.0818	-0.012	-0.024	94.5
0.006	-0.0473	-0.0068	0.024	94.6
0.0037	-0.0465	-0.0053	0.0382	94.6
0.0052	0.0195	-0.0053	0.0277	94.6
0.0037	0.0457	-0.0091	0.0292	94.6
0.003	0.0217	-0.0053	0.0082	94.5
0.0015	0.033	-0.0015	0.063	94.7
-0.0008	0.012	-0.003	0.0787	94.5
-0.0015	0.0007	-0.0023	0.0502	94.8
0.0007	-0.0323	-0.003	0.0682	94.6
0	-0.0143	-0.0015	0.078	94.7
-0.0008	0.009	-0.0008	0.0607	94.4
0.0007	-0.003	-0.0015	0.0277	94.8
0.0007	-0.0173	-0.003	-0.0068	94.5
-0.0015	-0.0323	-0.0015	-0.0503	94.6
0	-0.0293	0.003	-0.0788	94.8
0.0015	-0.0398	0.0127	-0.1073	94.6
0.0007	-0.0413	0.0202	-0.0706	94.7
0.0007	-0.003	0.012	0.0292	94.6
0.0052	0.0187	0.0015	0.0412	94.8
0.006	-0.0015	0.003	-0.0361	94.5
0.0045	0.0202	0.0022	-0.0593	94.8
0.003	0.0787	0.0015	0.0067	94.5
0.003	0.0877	0	0.0607	94.8
0.0022	0.0667	-0.0046	0.087	94.6
0.0022	0.0307	-0.0083	0.036	94.7
0.0022	-0.0053	-0.0068	-0.0195	94.5
0.0007	0.0067	-0.0015	0.0502	94.8
-0.0008	0.027	-0.0053	0.09	94.6
0.003	-0.0053	-0.0105	0.0532	94.7
0.0037	-0.0668	-0.0091	-0.033	94.7
0.0007	-0.1238	0.0007	-0.177	94.5
-0.003	-0.0856	0.012	-0.1028	94.6
-0.0008	0.0157	0.0045	0.0127	94.6
0.0015	0.0015	-0.0008	-0.021	94.9
0.0007	0.0232	0.0007	0.0315	94.6
0.0022	0.0345	-0.003	0.0187	94.8
0.0007	0.0015	-0.0015	0.003	94.5
0.0015	0.0135	-0.0023	0.018	94.7
0.0015	0.0007	-0.003	0.0015	94.6
0.0007	0.009	-0.0046	0.0217	94.8
0.0007	0.0007	-0.0053	0.006	94.6
-0.0008	0.0022	-0.0068	0.0202	94.8
-0.0023	0.0067	-0.0053	0.0195	94.6
-0.0008	0.0112	-0.0038	0.0217	94.7
0.0015	0.0157	-0.003	0.0232	94.6
0.0037	0.012	-0.0015	0.0105	94.6
0.0037	0.015	-0.0008	0.0157	94.7
0.0015	0.003	0.0022	0.0075	94.7
0.003	0.0052	0.0007	0.0135	94.7
0.003	0.003	-0.003	0.006	94.6
0.003	0.018	-0.0038	0.0112	94.8
0.0045	0.021	-0.0046	0.018	94.5
-0.0008	-0.0046	-0.0015	-0.003	94.8
-0.003	-0.015	-0.0023	-0.0181	94.4
-0.006	0.0105	-0.0046	0.012	94.7
-0.0068	0.036	-0.0091	0.0795	94.6
-0.0046	0.0157	-0.0143	0.1102	94.6
-0.003	-0.0143	-0.0158	0.0607	94.5
-0.003	-0.0293	-0.012	-0.0706	94.5
-0.003	-0.0053	-0.0046	-0.0795	94.7
0.0007	0.0217	0.0015	-0.0091	94.7
0.0015	-0.012	0.009	-0.063	94.7
0.003	-0.054	0.0127	-0.1365	94.6
0.0015	-0.0353	0.018	-0.1463	94.5
0	0.0112	0.015	-0.0848	94.6
0.0007	0.0817	0.0052	-0.015	94.8
0.0037	0.1515	-0.0015	0.1267	94.6
0.0037	0.12	-0.0038	0.276	94.8
-0.0023	-0.0323	0.0007	0.1995	94.6
-0.0053	-0.1598	0.009	0.0097	94.6
-0.0046	-0.1275	0.012	-0.1726	94.6
-0.0008	-0.0743	0.012	-0.2648	94.6
0.0015	-0.003	0.0112	-0.1441	94.8
0.0007	0.042	0.0082	0.0165	94.7
0.0015	0.0022	0.0045	0.0525	94.7
-0.0008	0.003	0.006	0.1117	94.6
-0.003	0.0382	0.009	0.144	94.8
-0.003	0.084	0.0067	0.1492	94.6
-0.0015	0.069	0	0.0802	94.7
0	0.003	0	-0.1815	94.7
0.0007	-0.0578	0.003	-0.273	94.6
-0.0023	-0.0555	0.0045	-0.1411	94.6
-0.003	0.0067	0.0015	-0.084	94.6
-0.003	0.0472	-0.0046	0.006	94.8
0.0015	0.0622	-0.0105	0.1072	94.6
0.0015	0.0097	-0.0091	0.1237	94.7
-0.0008	-0.0436	-0.0015	0.123	94.8
-0.0008	-0.0091	0.0015	0.0645	94.9
-0.0008	-0.0008	-0.0023	-0.0315	94.6
-0.003	-0.0555	-0.0015	-0.1133	94.9
-0.0015	-0.0773	0.0007	-0.0653	94.7
-0.003	-0.033	0	-0.0008	94.9
-0.0046	0.0112	0.0007	-0.003	94.6
-0.003	-0.0008	-0.003	0.0007	94.6
-0.0015	0.0007	-0.0053	0.0195	94.7
-0.0015	0.0195	-0.003	0.0577	94.8
-0.0023	-0.0053	-0.0008	0.1065	94.8
-0.0038	-0.039	-0.0046	0.1612	94.6
-0.0053	0.0165	-0.0075	0.177	94.7
-0.0023	0.12	-0.0083	0.1875	94.6
0.0052	0.1327	-0.0105	0.105	94.7
0.0127	0.0457	-0.0091	-0.0465	94.5
0.0105	-0.1073	0.0075	-0.231	94.8
0.0007	-0.1155	0.0202	-0.3511	94.5
0.003	-0.0195	0.0217	-0.2505	94.9
0.0052	-0.027	0.027	-0.1388	94.5
0.0045	0.0097	0.0195	0.018	94.9
0.0075	0.0367	0.0082	0.0315	94.5
0.0052	0.0052	0.006	0.0052	94.8
0.0075	0.0127	0.0007	0.0615	94.8
0.0082	0.012	-0.0015	0.021	94.7
0.0075	0.0105	-0.0046	0.0555	94.6
0.0067	0.0105	-0.0091	0.0322	94.5
0.0037	0.003	-0.0075	0.0262	94.6
0.0037	-0.003	-0.0083	0.0277	94.7
0.0015	-0.0113	-0.0083	0.009	94.7
0.0007	-0.0158	-0.0083	0.0255	94.4
0.003	-0.0233	-0.0068	0.0022	94.8
0.003	-0.027	-0.0053	0.0142	94.5
0.003	-0.0181	-0.003	0.0075	94.8
0.003	-0.0015	-0.0015	0.0225	94.6
0.0015	0.0105	0.0007	0.0397	94.7
-0.0015	-0.0038	0.0007	0.0457	94.6
-0.0008	-0.0195	-0.003	0.027	94.8
-0.0008	-0.0023	-0.0015	-0.0225	94.5
-0.0023	-0.0098	0.0015	-0.0323	94.6
-0.0023	-0.0555	0.0052	-0.0465	94.6
-0.0008	-0.045	0.0015	-0.0308	94.8
0	0.0232	-0.0008	0.0112	94.7
-0.0008	0.0405	0.003	0.015	94.6
-0.0008	0.0112	-0.0008	0.0052	94.8
0.0007	-0.0023	-0.0046	-0.006	94.5
-0.0015	0.0007	-0.0053	-0.0113	94.8
-0.0008	0.0052	-0.0068	-0.0098	94.5
0	0.0045	-0.0068	0.0045	94.8
0.0007	0.0075	-0.006	0.0292	94.6
0.0007	0.0067	-0.0046	0.051	94.7
0.0007	0.009	-0.0008	0.0082	94.7
0.0007	0.0142	0.0007	-0.0713	94.7
0.0015	0.0345	-0.0015	-0.0428	94.6
0.0037	0.0502	-0.0053	0.0315	94.6
0.0052	0.0405	-0.0083	0.0652	94.7
0.0052	0.0502	-0.0091	0.0982	94.7
0.003	0.0667	-0.0098	0.141	94.6
-0.0015	0.0577	-0.0105	0.2085	94.6
-0.003	-0.0593	-0.0105	0.1455	94.8
-0.0046	-0.2138	-0.0023	-0.0608	94.6
-0.0068	-0.1448	0.0142	-0.1943	94.6
-0.0098	-0.0256	0.0292	-0.1756	94.6
-0.0105	0.0585	0.027	-0.0803	94.7
-0.0046	0.129	0.0202	-0.177	94.4
-0.0038	0.0337	0.0255	-0.2633	94.5
-0.0008	0.054	0.0262	-0.0443	94.8
0.0037	0.0645	0.0165	0.0307	94.5
0.003	-0.0563	0.009	-0.0248	94.6
0.0045	-0.0315	0.0037	0.018	94.6
0.0067	0.021	-0.0053	-0.0023	94.6
0.0067	0.081	-0.0105	0.048	94.6
0.0037	0.0787	-0.0105	0.1462	94.5
0.003	0.0247	-0.0143	0.1657	94.6
0.006	0.012	-0.0203	0.0975	94.5
0.006	0.036	-0.0233	0.0082	94.5
0.0037	0.0667	-0.0181	0.003	94.3
-0.0015	-0.0248	-0.0083	-0.0511	94.6
-0.0068	-0.1223	0.0015	-0.1043	94.7
-0.0068	-0.1006	0.0037	-0.0195	94.6
-0.0075	-0.0465	0.0037	0.0457	94.6
-0.0083	-0.024	0.009	0.0517	94.5
-0.0053	0.0382	0.0067	0.1215	94.6
0.0007	0.03	-0.0015	0.0277	94.6
0.0067	-0.0135	-0.0068	-0.1845	94.5
0.0082	-0.0008	-0.003	-0.1463	94.7
0.0052	-0.0068	0.0037	-0.039	94.4
0.0007	-0.0436	0.0082	-0.0361	94.6
0.0015	-0.063	0.003	0.0495	94.8
0.006	-0.0308	-0.0046	0.0502	94.6
0.0075	-0.0195	-0.0038	-0.0053	94.6
0.0045	-0.0083	-0.0015	-0.0203	94.6
0.0037	-0.0091	-0.0038	-0.039	94.6
0.0045	0.0165	-0.0023	-0.0015	94.5
0.0037	0.0232	-0.0038	-0.0173	94.8
0.0022	-0.0075	-0.006	0.006	94.5
0.0007	-0.015	-0.0046	0.003	94.8
-0.0015	0	-0.0008	0.0127	94.5
-0.0008	-0.0038	0.0037	0.072	94.6
-0.0015	-0.0015	0.003	0.0787	94.6
-0.0015	0.0292	0	0.0705	94.7
-0.0008	-0.003	0.0022	0.0345	94.6
-0.0015	-0.042	0.0067	0.0195	94.7
-0.0023	-0.063	0.0097	-0.0533	94.7
-0.0008	-0.0181	0.012	-0.0675	94.6
0.0007	0.0345	0.0067	0.003	94.6
0.0045	0.0277	0.0015	-0.012	94.6
0.006	0.0375	0.0007	-0.0023	94.7
0.0067	0.0285	0.0007	0.009	94.5
0.0037	0.0082	0.0007	-0.0038	94.7
0.0015	0	-0.0015	0.0165	94.6
0.0015	0.012	-0.0023	0.024	94.7
0.0015	0.0165	-0.0023	0.006	94.6
0.003	0.0075	-0.0008	-0.0218	94.6
0.0015	0.0187	0.003	0.015	94.6
0.0015	0.0345	-0.0008	0.0555	94.6
0.0022	0.024	-0.0068	0.0525	94.6
0.0015	0.0105	-0.0083	0.0367	94.4
0.003	0.0142	-0.0083	0.0165	94.6
0.0007	0.0345	-0.0091	0.0855	94.6
0.0007	0.0247	-0.0091	0.102	94.6
-0.0008	-0.0338	-0.0083	0.0202	94.5
0.0007	0.0127	-0.0068	0.0345	94.5
0.0007	0.072	-0.0046	-0.0533	94.5
-0.0023	-0.0091	-0.003	-0.189	94.6
-0.0015	-0.0293	-0.0015	-0.114	94.6
-0.0053	0.003	0.0052	-0.0653	94.6
-0.0083	0.0067	0.0075	-0.0675	94.6
-0.0068	0.0022	0.0075	-0.0638	94.6
-0.0083	-0.015	0.0082	-0.0091	94.6
-0.0075	-0.0308	0.012	0.0345	94.5
-0.0046	-0.039	0.012	-0.0015	94.6
-0.0046	-0.0315	0.0067	0.0217	94.5
-0.0015	-0.0285	0.0105	-0.012	94.6
-0.003	-0.0068	0.0082	-0.012	94.4
-0.0038	-0.0015	0.0052	0.0187	94.6
0	0.006	-0.0008	0.0225	94.5
0.0015	0.0165	-0.0068	0.039	94.5
0.003	0.024	-0.0038	0.0127	94.6
0.003	0.0397	-0.003	0.0165	94.5
0.003	0.0517	-0.0053	0.0465	94.6
0.0052	0.054	-0.0105	0.084	94.4
0.0082	0.042	-0.0158	0.078	94.5
0.009	0.0622	-0.015	0.0375	94.3
0.009	0.0142	-0.0105	0.0555	94.5
0.0052	-0.1275	-0.0038	0.018	94.4
0.003	-0.1538	0.0067	-0.0825	94.7
0.0022	-0.0638	0.0082	-0.09	94.4
0.0037	-0.0135	0.0015	-0.099	94.6
0.0045	-0.0091	0.0007	-0.0915	94.4
0	-0.0353	0.0052	-0.0353	94.6
-0.0023	-0.0338	0.0082	-0.0015	94.6
-0.0008	-0.0225	0.006	0.003	94.5
0	-0.012	0.003	0.006	94.6
-0.0008	0.0232	0.0045	0.006	94.5
-0.0008	0.042	0.0052	-0.027	94.6
-0.0008	0.0532	0.003	0.0457	94.3
-0.0008	0.051	0.0015	0.144	94.6
0	0.0427	0.0015	0.15	94.5
0.0007	0.0405	0.0015	0.0195	94.5
0.0015	0.0247	0.0045	-0.1515	94.4
-0.0015	-0.0053	0.0045	-0.0691	94.5
-0.0023	-0.0105	0.0052	0.027	94.4
-0.0015	0.009	0.0075	0.0217	94.6
-0.0046	0.0442	0.0007	0.1065	94.5
-0.003	0.0352	-0.0053	0.0637	94.5
-0.0023	0.0082	-0.0098	-0.0675	94.5
-0.0015	0	-0.0105	-0.1523	94.3
-0.0015	-0.0413	-0.0068	-0.099	94.4
-0.0038	-0.0308	-0.0053	0.009	94.4
-0.0053	0.0007	0.0007	0.003	94.4
-0.006	-0.0015	0.0022	-0.0008	94.4
-0.0046	-0.0053	-0.0008	-0.0091	94.5
-0.0015	-0.0128	-0.003	-0.0053	94.5
0.0045	-0.0091	-0.0053	-0.0555	94.4
0.0037	0.0277	-0.0046	-0.0308	94.4
0.0052	0.0652	-0.0083	0.0667	94.5
0.0075	0.03	-0.0158	0.0555	94.5
0.0052	-0.0008	-0.0181	0.0675	94.5
0.003	-0.0495	-0.012	0.0007	94.3
0.0007	-0.1238	-0.0023	-0.0638	94.2
-0.0008	-0.0495	0.0022	-0.033	94.6
-0.0008	0.0217	0	0.0367	94.4
0.0015	0.0217	-0.0053	0.0885	94.5
0.0052	0.0382	-0.0046	0.0337	94.4
0.006	0.006	0.003	-0.012	94.4
0.0037	0.0082	0.0052	-0.0046	94.5
0.003	0.0352	0.0052	0.045	94.4
0.003	0.0345	0.0022	0.0787	94.5
0.0037	0.0082	-0.0015	0.0405	94.3
0.003	-0.039	0.0045	-0.0405	94.5
-0.0015	-0.0518	0.0112	-0.0308	94.3
0.0007	-0.0233	0.0082	0.018	94.6
0.0067	0.003	0.0015	-0.0293	94.3
0.0075	-0.0256	0.0007	-0.0765	94.5
0.0082	-0.0308	0.0045	-0.06	94.1
0.0045	-0.012	0.009	-0.0413	94.5
-0.0008	0.0105	0.0112	-0.0233	94.3
-0.0038	0.0517	0.009	0.093	94.5
-0.0053	0.0435	0.0052	0.1005	94.3
-0.0046	0.0247	0.006	-0.0165	94.3
-0.0053	0.0097	0.009	-0.0098	94.4
-0.0068	-0.0113	0.0082	0.0405	94.3
-0.0083	-0.054	0.0105	0.0937	94.6
-0.0068	-0.0158	0.0082	0.1275	94.2
-0.0023	0.0652	0.0037	0.048	94.5
0.0007	0.006	0.0015	-0.207	94.1
0.0082	-0.0323	-0.0053	-0.1853	94.4
0.0052	0.0067	-0.003	0.0007	94.2
0.0007	0.0172	0.0022	-0.1021	94.3
0.0007	0.0082	0.0007	-0.0181	94.2
-0.0015	-0.0075	-0.0008	0.0555	94.3
-0.0008	0.003	-0.0015	0.012	94.2
0.0007	0.003	0.0037	0.009	94.2
0.0015	-0.0173	0.0052	-0.0293	94.3
0.0015	-0.0015	0.0052	0.003	94.3
0.0037	-0.0053	-0.0008	-0.0225	94.2
0.0007	-0.0188	-0.003	0.018	94.2
-0.003	0.0075	-0.0038	0.09	94.2
-0.0023	0.0615	-0.0091	0.1492	94
-0.0038	0.0577	-0.0128	0.1627	94.2
-0.0038	-0.0105	-0.0105	0.0217	94.2
-0.0046	-0.0308	-0.003	-0.084	94.1
-0.0046	-0.0555	0.0007	-0.1696	94.2
0.0007	-0.0428	-0.0008	-0.1298	94.2
0.0045	0.0067	0.0052	-0.0158	94.1
0.0045	-0.0105	0.0052	-0.0143	94
0.0015	-0.0113	0.003	-0.0278	94.1
0.0007	0.0067	0.006	-0.0105	94.1
0.0015	0.0097	-0.0023	0.0127	94.2
0.0037	-0.0023	-0.0046	-0.0308	94
0.0015	-0.0046	-0.0015	-0.0015	94.1
0.0022	0.0112	-0.0046	0.0345	94
0.0015	0.0127	-0.0023	0.0202	94.2
0.003	0.0082	-0.0038	0.0592	94.2
0.0045	0.0082	-0.0046	0.0727	94
0.006	0.0135	-0.0105	0.0772	94.1
0.0075	0.015	-0.0128	0.0165	94
0.0045	-0.003	-0.0113	-0.0818	94.1
0.0022	-0.0075	-0.0128	-0.0818	94
0.0007	-0.003	-0.0113	0.009	94.1
-0.0008	-0.0105	-0.0113	0.024	93.9
-0.0015	-0.0105	-0.0091	-0.0285	94
-0.0023	0.0097	-0.0075	0.0382	94
-0.0008	0.0285	-0.0068	0.0952	94
-0.0008	-0.012	0.0007	0.0037	94.1
-0.003	-0.0428	0.0097	-0.0795	94
-0.0053	-0.0368	0.0142	-0.0743	94.1
-0.0038	-0.0278	0.012	0	94
-0.003	-0.0165	0.0082	0.123	94.1
-0.0015	-0.012	0.0082	0.0765	94
0	-0.0128	0.0052	-0.1598	94
0.0015	0.0345	0.0075	-0.1853	93.9
0.0015	0.0937	0.009	0.0907	94
0.0015	0.078	0.0052	0.1837	93.9
0.003	0.0262	0.0015	0.0187	94
0.0045	-0.0278	0.0007	-0.0533	94
0.0052	0.0225	0.0015	0.0255	94.1
0.0075	0.063	-0.0015	0.0517	94
0.0045	-0.0068	-0.0046	-0.0585	94
0.003	-0.0293	-0.0023	-0.0795	94
0.0007	-0.0593	0.0015	-0.0765	93.9
0.0007	-0.0293	0.0007	-0.0398	94.1
0.0007	0.0465	-0.0038	0.024	94
0.0007	0.0405	-0.0046	0.0352	94
0.0015	0.009	-0.0075	0.1042	94
0.0015	-0.033	-0.0105	0.0742	93.9
0.003	0.0127	-0.0053	0.039	93.9
0.0015	0.0322	0.0037	0.0262	94
-0.0023	-0.0293	0.012	-0.0825	93.9
-0.0075	-0.054	0.0187	-0.0908	93.9
-0.0068	-0.0428	0.0232	-0.0578	93.9
-0.003	-0.0046	0.0202	-0.114	93.9
-0.0015	-0.0038	0.0157	-0.063	94
0.0007	0.0127	0.0105	0.0517	94
0.0015	0.0412	0.0097	0.0442	94
0.0007	0.0405	0.0082	0.0382	93.9
0.0015	0.0052	0.0015	0.0037	94
0.0022	-0.0015	-0.0023	-0.0091	93.8
0.0022	-0.0053	-0.0068	0.0135	93.9
0.0015	-0.0308	-0.0091	0.0195	93.9
-0.003	-0.027	-0.0098	0.018	93.9
-0.003	0.0007	-0.0091	-0.0046	93.8
-0.0015	0.0367	-0.0046	0.0352	93.8
-0.0008	0.012	-0.0015	0.0405	94.1
0.0015	0.003	-0.0008	0.0217	93.8
0.003	0.0217	0.0015	0.0322	94.2
0.0045	0.042	0.0015	0.066	93.8
0.0052	0.048	-0.0038	0.072	94
0.0045	0.0307	-0.0053	0.1132	93.6
0.0007	-0.0203	-0.0068	0.1837	94
0	-0.0735	-0.0068	0.045	93.8
0.0007	-0.0413	-0.003	-0.1343	94
0.003	-0.0458	-0.0015	-0.1553	93.9
0.0015	-0.021	0.003	-0.1035	93.9
-0.0008	0.0307	0.003	-0.1328	93.9
-0.0008	-0.0181	0.0052	-0.1853	93.8
-0.0038	-0.0023	0.0075	-0.1065	93.9
-0.0038	0.0195	0.006	-0.0293	93.9
-0.0046	-0.0143	0.0075	-0.0075	94
-0.003	-0.0323	0.0082	0.0217	93.8
-0.0015	-0.0308	0.0067	0.069	94
0.0015	0.006	0.0015	0.1012	93.8
0.0022	0.0195	-0.0038	0.069	93.9
0.0007	0.0052	-0.0046	0.03	93.8
0.0015	-0.0068	-0.0053	-0.0158	93.8
0.0015	0.0127	-0.0075	-0.027	93.8
0.0015	0.003	-0.0053	0.042	93.8
-0.0008	0.0135	0.0007	0.0847	94
-0.003	0.0892	0.0015	0.0615	93.7
-0.0015	0.0517	-0.0046	-0.0346	94
-0.0008	-0.0068	-0.003	-0.096	93.7
-0.0008	-0.0428	-0.0023	-0.0691	93.7
0.0007	-0.0728	-0.0023	-0.0495	93.8
0.0015	-0.03	0.0007	0.0322	93.8
0.0037	-0.0368	-0.0008	0.0765	93.8
0.006	-0.0383	-0.003	0.048	93.7
0.006	-0.0113	-0.0015	0.0045	93.9
0.003	-0.0008	-0.003	-0.0248	93.7
0.0007	0.0112	-0.0038	0.0442	94
0.0015	0.0015	-0.0046	0.0427	93.6
0.0015	0.0367	-0.0083	-0.0008	93.7
-0.0008	0.0315	-0.0083	-0.0503	93.6
-0.003	-0.021	-0.0015	-0.0413	93.9
-0.003	-0.0181	0.0007	0.012	93.6
-0.0008	-0.0195	-0.0046	-0.0105	93.9
-0.0008	0.0022	-0.0023	0.0307	93.8
-0.0015	0.048	0	0.042	93.8
-0.0008	0.0727	-0.003	0.1185	93.9
0.003	0.0232	-0.0038	0.0802	93.7
0.0007	-0.0383	0.0007	-0.0923	93.8
-0.0008	-0.0308	0.009	-0.0765	93.6
-0.0008	-0.0098	0.009	-0.0706	94
0.0015	0.0007	0.0075	-0.0525	93.7
0.0045	0.0052	0.0022	0.0067	93.9
0.0052	0.0607	0	0.0525	93.5
0.0052	0.0847	-0.0008	0.0667	93.9
0.0097	0.0495	-0.0091	0.0277	93.6
0.0097	0.0052	-0.0113	0.0015	93.7
0.0067	-0.021	-0.0068	0.0165	93.5
0.0015	-0.0428	0	-0.0706	93.7
-0.003	-0.0608	0.0097	-0.183	93.7
-0.006	-0.0053	0.0142	-0.0728	93.8
-0.0053	0.021	0.0127	0.003	93.7
-0.003	-0.0113	0.0127	0.0142	93.7
-0.003	-0.0428	0.012	0.0292	93.7
-0.0015	-0.0158	0.0037	0.0292	93.6
0	0.0292	0.0022	0.0502	93.8
-0.0008	0.0382	0.0015	-0.0091	93.6
0.0015	0.0225	-0.0015	-0.024	93.8
0.0045	0.0135	-0.0015	0.0112	93.6
0.0045	0.0435	-0.003	0.0367	93.7
0.0015	0.0315	-0.0075	-0.024	93.5
-0.0008	0.0142	-0.0098	-0.0975	93.7
-0.0008	-0.0015	-0.006	0.0315	93.6
-0.003	-0.0278	-0.006	0.1042	93.6
-0.0008	-0.0091	-0.012	0.0652	93.6
0.0007	-0.0053	-0.0113	0.0337	93.5
0.0007	-0.0511	-0.0068	-0.0555	93.7
-0.0008	-0.0465	-0.003	-0.0638	93.7
-0.0008	-0.0458	-0.006	0	93.5
0.0022	-0.042	-0.0068	0.0105	93.6
-0.003	0.0067	-0.0023	0.0457	93.7
-0.0068	0.0465	-0.006	0.1275	93.6
-0.0038	0.0705	-0.0053	0.1387	93.7
-0.003	0.0247	-0.0015	0.003	93.5
-0.0015	-0.0181	0.0045	-0.1028	93.7
0	-0.0135	0.0082	0.0187	93.5
0	0.0405	0.0067	0.1732	93.6
0.0015	0.078	0.0067	0.126	93.6
0.0045	-0.0053	0.0052	-0.0975	93.5
0.0067	-0.1155	0.0007	-0.2348	93.5
0.0082	-0.0818	0.003	-0.21	93.6
0.0067	0.0082	0.0142	-0.1635	93.7
0.0015	0.0382	0.018	-0.0233	93.6
-0.003	0.009	0.0127	0.033	93.6
0.0007	-0.0361	0.0082	0.0195	93.8
0.0045	-0.0203	0.0045	0.0517	93.6
0.0052	-0.0195	0.0007	0.0292	93.6
0.006	-0.0203	-0.0023	0.0277	93.5
0.0045	-0.0091	-0.0015	0.0127	93.6
0.0015	0.0082	-0.0053	0.0397	93.5
0.0015	0.03	-0.0091	0.0682	93.7
0.0022	0.027	-0.0105	0.0165	93.5
0.0007	0.0045	-0.0113	0.0142	93.5
0.0015	-0.0091	-0.012	0.0465	93.5
0.0015	0.0165	-0.0105	-0.012	93.7
-0.0015	0.009	-0.0068	-0.093	93.5
0.0007	0.003	-0.0008	-0.081	93.6
0.0022	0.0285	0.0067	-0.057	93.4
0.0037	0.0075	0.0052	0.0157	93.5
0.0037	-0.0091	0.003	0.0727	93.6
0.0015	0.0195	0.0045	0.0937	93.6
-0.0015	0.024	0.0007	0.1095	93.6
-0.0015	-0.0068	-0.0008	0.027	93.5
-0.0008	-0.0278	0	-0.0578	93.7
-0.0008	-0.0143	0.003	-0.1103	93.5
-0.0008	0.0202	0.0067	-0.057	93.7
-0.0023	0.0382	0.0052	0.03	93.5
-0.0015	0.0157	0.0037	0.0742	93.6
0.0007	-0.0225	0.0045	0.0697	93.5
0.0007	-0.0158	0.006	-0.0511	93.5
-0.0008	0.0007	0.0067	-0.0533	93.5
0.0015	-0.012	0.006	0.0142	93.6
0.0015	0.0262	0.0007	0.0465	93.5
0.0045	0.0615	-0.0083	0.1335	93.5
0.003	0.0465	-0.0091	0.0877	93.5
0.0007	-0.0165	-0.0023	-0.0038	93.5
-0.0008	-0.0915	0.0015	-0.0915	93.5
-0.0046	-0.0878	0.0007	-0.1763	93.5
-0.006	-0.0225	0.0007	-0.0908	93.3
-0.0068	0.0112	0.0007	-0.0495	93.4
-0.0083	0.0195	0	-0.0091	93.6
-0.0053	0.0427	0.0007	0.0142	93.4
-0.003	0.0202	0.003	-0.0113	93.6
-0.0015	0.0075	0.0067	0.0502	93.5
0	0.015	0.003	0.0427	93.5
0.0045	0.0187	0.0007	0.0495	93.7
0.0052	0.0315	0.0007	0.048	93.5
0.0045	0.0202	-0.0008	0.0405	93.6
0.0052	-0.0203	-0.0008	0.045	93.4
0.003	-0.054	0.0007	0.0315	93.6
0	-0.042	-0.0038	0.009	93.4
-0.0008	-0.0113	-0.0068	-0.09	93.5
-0.0008	0.012	-0.0015	-0.108	93.5
-0.0023	0.0307	0.003	-0.0256	93.6
-0.0015	0.0367	0.0037	0.0525	93.6
-0.0046	0.0082	0.0015	0.0555	93.4
-0.0046	-0.0053	-0.0015	-0.0075	93.5
-0.0046	-0.0046	-0.0023	-0.0308	93.3
-0.003	-0.024	-0.0008	-0.0368	93.6
-0.0015	-0.0248	-0.0015	-0.06	93.3
-0.0015	0.0232	-0.0015	-0.006	93.6
-0.0015	0.0217	0.0007	0.0532	93.2
0.0007	-0.015	-0.0015	0.0607	93.7
0.0037	-0.0113	-0.0015	0.0637	93.3
0.0052	0.0037	0.0007	0.0255	93.6
0.0045	0.0045	-0.003	-0.0555	93.3
0.0015	0.012	-0.006	-0.1193	93.5
-0.0008	0.03	-0.0083	-0.033	93.3
-0.0008	0.015	-0.0015	0.0375	93.5
-0.0023	-0.0113	0.0067	0.0277	93.5
-0.0015	-0.0383	0.0015	0.0765	93.5
0.003	-0.0203	-0.0015	0.0525	93.6
0.0082	0.0172	-0.003	0.006	93.5
0.009	0.0217	0.003	0.0127	93.6
0.0105	0.0457	0.0097	-0.057	93.4
0.0097	0.0405	0.0082	-0.0908	93.6
0.0067	-0.0046	0.0052	-0.0143	93.5
0.0067	-0.0105	0.0007	0.0502	93.5
0.0052	-0.0346	0.0082	0.0105	93.4
0	-0.0788	0.0157	-0.0683	93.6
-0.0015	-0.096	0.0187	-0.0945	93.4
-0.0008	-0.0721	0.0187	-0.0683	93.5
0.0015	0.0202	0.012	0.0345	93.4
0.0015	0.0337	0.0052	0.0382	93.5
0.0015	-0.0008	0.0015	0.009	93.3
0.0045	0.0105	0	0.0315	93.4
0.003	0.042	0.0015	0.0105	93.5
0.0007	0.0832	0.0015	0.0555	93.4
0	0.0862	0.0022	0.1627	93.6
-0.0046	0.0547	-0.0008	0.1935	93.4
-0.003	-0.0218	-0.0053	-0.0023	93.4
-0.0015	-0.0818	-0.006	-0.21	93.3
0	-0.0691	-0.0053	-0.1125	93.6
0.0007	0.0442	-0.0053	0.1005	93.5
0	0.0855	-0.0091	0.0795	93.4
0.0007	-0.0075	-0.0143	-0.0143	93.4
0.003	-0.0083	-0.0165	0.009	93.3
0.0052	0.0255	-0.0135	-0.0181	93.3
0.0045	0.0097	-0.0053	-0.039	93.2
0.003	0.0232	-0.0038	-0.0173	93.4
0.0007	0.0165	-0.0105	0.0427	93.4
0.0037	0.0037	-0.0173	0.1432	93.5
0.0067	0.0345	-0.015	0.1327	93.4
0.0052	0.042	-0.012	-0.0105	93.3
0.0007	0.0307	-0.0091	-0.0878	93.4
-0.0008	-0.0458	0.0007	-0.1193	93.5
-0.0053	-0.1635	0.012	-0.2483	93.4
-0.0053	-0.129	0.0232	-0.186	93.4
-0.003	-0.039	0.0225	-0.0735	93.5
-0.0023	0.0255	0.0082	-0.0053	93.3
-0.0015	0.0667	0.0007	0.0705	93.6
0	0.0337	-0.003	0.0022	93.2
0.0007	0.0375	-0.0075	-0.0068	93.5
0.0007	0.0045	-0.0038	-0.0015	93.2
-0.003	0.0082	-0.0023	0.0615	93.6
-0.003	0.0232	-0.0046	0.0652	93.5
-0.0038	-0.0098	-0.0023	0.0337	93.4
-0.0053	-0.0053	-0.003	0.0457	93.5
-0.0046	-0.024	0.0007	0.0045	93.4
-0.003	-0.024	0.0022	0.0067	93.5
-0.0053	-0.0353	-0.003	-0.0458	93.2
-0.0068	-0.0038	-0.0015	-0.0458	93.5
-0.0053	0.0247	-0.0008	0.0105	93.3
-0.003	0.0127	-0.0015	0.0457	93.5
-0.0023	-0.0091	-0.003	0.0142	93.2
-0.0008	-0.0128	-0.0046	-0.0278	93.6
0.0007	0.0112	-0.0015	0.0202	93.2
-0.0008	-0.0098	0.003	0.0517	93.6
-0.0015	-0.024	0.0007	0.0675	93.2
-0.0008	-0.0285	0.0007	0.0082	93.4
-0.0008	-0.0091	0.003	-0.0338	93.3
0.0015	-0.006	-0.0008	-0.006	93.4
0.0045	-0.021	0.0007	-0.0263	93.4
0.0052	-0.0046	0.0007	0.0007	93.3
0.0052	0.0082	0.0015	0.0345	93.5
0.003	0.0082	0.0052	0.0135	93.3
0.0022	0.0022	0.0067	0.0105	93.5
0.0015	0.012	0.0082	0.0052	93.2
0.0037	0.0187	0.0067	0.024	93.4
0.0052	0.0112	0.0015	0.0495	93.3
0.0045	0.0037	0	0.078	93.5
0.0052	0.0112	0.0007	0.1102	93.3
0.0037	0.0202	0.0015	0.0307	93.3
0.003	0.024	0.003	-0.0818	93.2
0.003	0.0315	0.0015	-0.0653	93.5
0.003	0.0202	-0.0008	-0.0181	93.3
0.0045	0.0022	-0.003	-0.0743	93.2
0.0007	-0.015	-0.0015	-0.0668	93.2
-0.0023	-0.0091	0.003	0.0232	93.3
-0.003	-0.0046	0.003	0.063	93.2
-0.0053	-0.0105	0	0.054	93.3
-0.006	0.0292	0.0007	0.024	93.5
-0.0053	0.0495	0.0015	-0.0083	93.2
-0.0046	0.045	0.0007	-0.063	93.4
-0.0008	0.009	0	-0.0653	93.3
-0.0008	-0.0368	0.0015	-0.1043	93.2
0.0007	-0.0413	0.0037	-0.1381	93.3
-0.0008	-0.0405	0.0105	-0.075	93.2
-0.0023	0.009	0.0105	-0.024	93.2
0.0007	0.0532	0.003	0.0427	93.3
0.0007	0.0652	-0.0053	0.0705	93.2
0.0007	0.0472	-0.0128	0.078	93.1
0.0045	0.0067	-0.0165	0.1035	93.3
0.0075	-0.0278	-0.0181	0.0937	93.2
0.0075	-0.0503	-0.0143	0.0517	93.1
0.0037	-0.0675	-0.0083	-0.0488	93.3
-0.0023	-0.0668	-0.003	-0.042	93.4
-0.0008	-0.0218	-0.0023	-0.0263	93.3
0.003	0.0285	-0.015	-0.0256	93.1
0.0082	0.0727	-0.024	0.0622	93.4
0.0082	0.075	-0.0143	0.0525	93.1
0.0015	0.0067	-0.0046	0.021	93.3
-0.0015	-0.0638	0.0082	-0.0578	93.3
-0.0053	-0.0346	0.0127	-0.0856	93.4
-0.003	0.0037	0.0075	-0.0278	93.2
-0.0008	-0.0068	0.009	-0.0278	93.4
-0.0008	-0.0091	0.006	0	93.4
0.0007	-0.0256	0.0045	-0.0218	93.3
-0.0008	0.006	0.0067	0.0292	93.2
0.0007	0.0255	0.0045	0.1155	93.3
-0.0008	0.0247	0.0075	0.0877	93.4
-0.0008	0.0472	0.003	0.0907	93.3
0	0.0247	0	0.0585	93.3
-0.0015	-0.039	0.0007	-0.0818	93.2
0	-0.1223	-0.0046	-0.2123	93.2
0.0045	-0.0653	-0.0068	-0.129	93.2
0.0037	0.0307	-0.0053	-0.0068	93.4
0.003	0.0352	-0.0053	-0.0165	93.2
0.0045	0.063	-0.0038	0.0277	93.4
0.0052	0.0405	0.0007	0.0195	93.3
0.0045	0.039	0.0082	-0.0046	93.3
0.0037	0.0157	0.0105	-0.0008	93.2
0.0015	-0.027	0.0082	-0.012	93.2
0.0007	-0.0443	0.0067	0.0195	93.5
0.0007	-0.0638	0.009	0.0255	93.2
-0.0008	-0.021	0.0075	0.0382	93.2
0	0.0007	0.0022	0.018	93.3
0	0.0082	0.0007	-0.0091	93.2
0.0007	-0.0068	0.0015	-0.0015	93.3
0.0015	-0.003	-0.0008	0.0037	93.2
0.0007	0.0105	-0.0038	-0.0008	93.2
-0.0008	0.006	-0.0015	0.0067	93.2
0.0007	0.003	-0.0015	0.0457	93.5
0.003	0.0052	-0.0053	0.078	93.1
0.006	0.018	-0.0068	0.102	93.5
0.0082	0.009	-0.0075	0.0465	93.1
0.0067	0.0052	-0.0091	-0.0653	93.3
0.0052	0.003	-0.0128	-0.0945	93.1
0.0045	0.0195	-0.0105	-0.0398	93.3
0.0007	0.0067	-0.0015	0.0585	93.2
-0.003	0.0015	0.0007	0.1807	93.3
-0.006	0.0142	-0.0023	0.1935	93.3
-0.0083	-0.0233	0.003	0.072	93.2
-0.0068	-0.027	0.0045	-0.1095	93.1
-0.0015	-0.0053	0.0015	-0.2213	93.1
0.0007	0.0007	0.009	-0.1778	93.4
-0.003	0.0075	0.018	-0.1411	93
-0.0015	0.0585	0.0187	-0.0113	93.3
-0.0023	0.057	0.0195	0.0862	93.1
-0.003	0.0105	0.0165	-0.0203	93.3
-0.0015	-0.0293	0.0165	-0.0458	93.1
0.0015	-0.0465	0.012	-0.039	93.2
0.0045	-0.012	0.0045	-0.0015	93.1
0.0045	-0.0105	0.0052	0.033	93.4
0.0037	-0.0083	0.0037	0.0217	93.2
0.0037	-0.0038	-0.0015	0.0517	93.2
0.003	-0.0075	-0.0046	0.027	93.1
0.003	-0.0068	-0.0083	-0.0143	93.1
0.0015	0.0015	-0.0053	-0.06	93.2
0	0.027	0.0007	-0.03	93.3
-0.0015	0.03	-0.0008	0.0307	93.2
-0.003	-0.0038	-0.0053	0.0435	93.1
-0.0038	-0.0436	-0.0068	0.0885	93.3
-0.0053	-0.0638	-0.0053	0.0637	93.1
-0.003	-0.0181	-0.0098	-0.0113	93.1
-0.0053	0.0142	-0.0158	-0.0158	93.2
-0.0046	0.0232	-0.0105	0.063	93.2
-0.0038	0.0405	-0.0053	0.0457	93.2
-0.0038	-0.0091	0	-0.0368	93.2
-0.003	-0.0143	0.003	-0.0128	93.3
-0.0015	0.0015	0.0022	0.012	93.1
0	0.0037	0.0015	-0.0203	93.1
-0.0008	0.0052	0.003	-0.0608	93.1
-0.0008	0.003	0.0045	-0.0195	93.2
0.003	0.0442	0.0007	0.0195	93.3
0.003	0.084	0.0067	0.0937	93.1
0.0007	0.063	0.009	0.123	93.2
0.0015	-0.0361	0.0082	-0.0465	93.1
0.0015	-0.0818	0.0105	-0.1388	93.2
-0.0023	-0.0315	0.012	-0.0915	93.1
-0.003	-0.0195	0.0067	-0.0525	93.1
0.0015	0.0082	-0.0008	-0.0068	93.1
0.0015	0.0367	-0.0053	0.0165	93.1
0.003	-0.0046	-0.0075	0.0015	93.1
0.0022	-0.0083	-0.0038	-0.0105	93.4
-0.0015	-0.0053	0	-0.0413	92.9
0.0015	0.0015	-0.0038	-0.0361	93.2
0.0015	0.0127	-0.006	0.0007	93.1
0.0037	-0.003	-0.0083	0.024	93.3
0.003	-0.0075	-0.0091	0.048	93.1
0.0015	0.0045	-0.0083	0.0502	93.2
0.0015	0.015	-0.0068	0.0232	93.1
0.0045	0.0172	-0.0098	-0.0533	93.1
0.0052	0.0217	-0.0105	0.006	93.3
0.006	0.0352	-0.0143	0.21	93.1
0.0067	0.027	-0.0218	0.1875	93.2
0.0037	-0.0256	-0.0173	0.0022	93
-0.0015	-0.054	-0.0053	-0.0675	93.2
-0.0046	-0.0495	0.003	-0.0706	93.1
-0.0046	0.018	0.012	-0.042	93.4
-0.0068	0.0705	0.0232	-0.0143	93.1
-0.0091	0.0112	0.0195	-0.096	93.3
-0.0038	-0.0263	0.0142	-0.1298	93
0	-0.0256	0.0142	-0.0615	93.2
0.0045	0.0157	0.0097	-0.0495	93.2
0.003	0.0457	0.0165	-0.024	93.2
0.0037	0.0135	0.0105	0.0577	93.2
0.0045	-0.0053	0.0052	0.09	93.1
0.003	-0.0143	0.0045	0.0382	93.2
0.0015	-0.0091	0.0015	-0.0375	93.1
0.0007	-0.0181	0.0007	-0.039	93.3
0.0015	-0.0158	-0.0068	0.012	93.1
0.003	0.0015	-0.0068	0.024	93.2
0.0022	-0.0053	-0.0091	0.024	93.1
0.0015	0.003	-0.0105	0.0217	93.3
0.0015	-0.003	-0.0083	0.009	93
0.003	-0.0098	-0.0091	0.0037	93.2
0.0015	0.0037	-0.0053	0.0022	93.1
0.0007	0	-0.0053	0.0367	93.1
0	-0.0098	-0.0091	0.075	93.1
-0.0008	-0.0256	-0.0091	0.0652	93.1
-0.0015	-0.0105	-0.0075	-0.0105	93.1
-0.0046	0.0247	-0.0075	-0.0608	93.1
-0.003	0.0367	-0.0083	-0.0165	93.1
-0.0008	0.0172	-0.0091	0.0082	93.1
-0.0008	-0.027	-0.0015	-0.003	93.2
0.0007	-0.0563	0.0045	-0.003	93.2
0.003	-0.027	0.0067	0.012	93.2
0.0022	0	0.0105	0.0105	93.2
0.0007	-0.0195	0.0105	-0.0098	93.2
0.0022	-0.015	0.0067	-0.0143	93.2
0.0015	-0.0075	0.0067	-0.0091	93.2
0.0015	0.024	0.0052	0.0277	93.2
0.003	0.0517	0.0015	0.0337	93.1
0.0007	0.0637	0.0037	0.0165	93.2
0.0015	0.069	0.006	-0.0293	93.1
-0.0008	0.0195	0.0052	-0.0983	93.2
0.0007	-0.0181	0.0052	-0.0615	93.2
-0.0015	-0.048	0.0075	0.0127	93.2
-0.003	-0.0495	0.0082	0.0427	93.2
-0.0008	0.0052	0.0037	0.063	93.2
-0.0015	0.0345	0.0007	0.0517	93.3
-0.0015	-0.0053	-0.0023	-0.0975	93.1
-0.003	-0.042	0	-0.1523	93.3
-0.0038	-0.0315	-0.0053	-0.0353	93.1
-0.0015	-0.0068	-0.0098	0.0007	93.2
-0.0023	0.0232	-0.0083	0.0255	93.1
-0.0015	0.0345	-0.0143	0.012	93.3
-0.0008	0.0562	-0.0143	0.0637	93.1
0.0007	0.0967	-0.0165	0.2077	93.2
0.0052	0.0637	-0.0181	0.1237	93.1
0.009	-0.0428	-0.0098	-0.1065	93.2
0.009	-0.0818	0.0022	-0.1388	93.2
0.0075	-0.0698	0.0105	-0.0713	93.3
0.0052	-0.0046	0.0135	-0.0653	93.2
0.0082	0.0577	0.0037	0.0382	93.3
0.0105	0.0082	0.0015	0.0127	93.1
0.003	-0.003	0.0082	-0.027	93
-0.0008	-0.012	0.0105	0.0532	93.2
-0.0008	-0.0143	0.0105	0.069	93.3
-0.0008	0.0067	0.0037	0.0472	93.2
0.0015	0.012	0.0007	-0.0315	93.2
0.0007	0.0592	-0.0015	0.0262	93.3
0.0037	0.0367	-0.003	0.0075	93.1
0	-0.0368	0.006	-0.0765	93.2
-0.003	-0.0413	0.0105	-0.0023	93.3
-0.0046	-0.0098	0.0105	0.0142	93.2
-0.0015	-0.0135	0.003	0.0495	93.4
0.0015	-0.0143	-0.0015	0.0285	93.1
0.0007	-0.0158	0.003	-0.0533	93.2
-0.0008	-0.0135	0.009	-0.0233	93.2
-0.0015	-0.0143	0.006	-0.0165	93.1
0	-0.0195	0.0007	-0.0098	93.2
-0.0015	0.0165	-0.0015	-0.006	93.2
-0.0023	0.0382	-0.0046	-0.0218	93.1
-0.0015	0.033	-0.003	-0.0218	93.2
-0.003	0.009	0	-0.0038	93.4
-0.0015	-0.0188	0.0052	0.0502	93.1
-0.0015	-0.0443	0.0075	-0.0053	93.2
-0.0023	-0.045	0.0067	-0.0443	93
-0.003	-0.0285	0.0045	0.0375	93.4
-0.003	-0.0405	0.0022	0.0877	93.2
-0.0023	-0.0233	-0.0015	0.0705	93.4
0.0007	0.033	-0.0068	0.0015	92.9
0.0067	0.018	-0.0105	-0.0668	93.4
0.0052	0.0015	-0.0083	-0.0256	93.2
0.0007	0.0015	-0.0015	0.0247	93.3
0	0.0037	-0.0015	-0.0256	93.3
0.0007	0.0277	-0.0008	0.0255	93.2
0.0022	0.018	0	0.042	93.3
0.003	0.0195	0.0015	-0.0428	93.1
0.0022	0.0127	0.0067	-0.0315	93.4
0.0015	-0.0068	0.0052	0.009	93.1
0.0022	-0.0293	0.003	0.0555	93.3
0	-0.0608	0.003	0.0405	93
-0.0046	-0.0555	0.0007	0.042	93.4
-0.003	0.0652	-0.0068	0.1627	93.1
0.0015	0.1665	-0.0188	0.1567	93.2
0.0037	0.0525	-0.0181	-0.126	93
0.0037	-0.0803	-0.0038	-0.3083	93.1
0.0015	-0.0698	0.009	-0.1673	93.2
0.0015	-0.0023	0.0075	-0.0346	93.3
0.0045	0.033	0.0015	0.012	93.2
0.0037	0.0442	0.0015	0.0082	93.2
0.0037	0.042	0.0007	-0.0068	93.2
0.003	0.0202	-0.0015	0.0217	93.1
0.0007	0.0195	-0.0023	0.0135	93.2
0.003	0.0105	-0.0015	0.0157	93.1
0.0037	0.0015	0.0015	0.0127	93.2
0.0022	-0.0023	0.0045	0.012	93.1
0	-0.0015	0.009	0.0142	93.3
-0.0015	0.0015	0.0082	0.0082	93.1
-0.0023	0.0015	0.0037	0.03	93.1
-0.0015	0	0.003	0.054	93.1
-0.0008	-0.021	0.0015	0.0742	93.3
-0.0008	-0.033	0.0007	0.0517	93.1
-0.0008	-0.033	0	-0.0233	93.1
0.0007	-0.027	-0.0008	-0.0788	93.1
0.0007	-0.0023	-0.0008	-0.0128	93.2
0.0022	0.024	-0.0046	0.0585	93
0.0007	0.0157	-0.0075	0.0202	93
-0.0015	-0.012	-0.003	-0.0638	93.1
-0.0038	-0.0143	-0.0008	-0.1006	93.1
-0.006	0.0142	0	0.0255	93.1
-0.0046	0.0187	-0.0008	0.075	93.1
-0.0038	-0.0158	-0.003	-0.0091	93
-0.0023	-0.0256	-0.0038	-0.0578	93
-0.003	0.0142	-0.0023	-0.0135	93.1
0.0007	0.033	-0.0038	0.0855	93.1
0.0052	-0.0256	-0.0046	0.0667	93
0.0052	-0.0713	-0.003	0.018	93.2
0.003	-0.0458	-0.0038	-0.0233	92.9
0.0037	0.0112	-0.0105	-0.0525	93.1
0.0052	0.0337	-0.0105	-0.0458	92.9
0.0037	0.036	-0.0046	-0.033	93.1
0.003	0.0382	0.0007	-0.0856	93
0	0.0412	0.0082	-0.0465	93
-0.0008	0.0412	0.009	0.0997	93.1
0.0007	-0.0038	0.0052	0.0712	93
0.0007	-0.054	0.0045	0.027	93.1
0.0015	-0.0795	0.0067	-0.042	93
0	-0.048	0.012	-0.084	93.1
0.0007	-0.024	0.0142	-0.0143	92.9
0.003	-0.0188	0.0112	0.0232	93.2
0.0052	0.0127	0.0022	0.0802	92.9
0.009	0.0315	-0.0046	0.0787	93.1
0.0052	0.033	-0.0053	0.0135	93
0.0022	0.0045	-0.006	-0.063	93.1
0.0015	0.0195	-0.0038	-0.0398	93.1
-0.0008	0.0585	-0.0015	0.0465	93.1
-0.0008	0.0457	-0.0023	0.0292	93.1
-0.0008	-0.0046	0	-0.003	93.1
0.0007	0.0022	-0.0015	0.0045	93.1
0.0045	0.0285	-0.0015	0.0382	92.9
0.0015	-0.0053	0.003	0.0052	93
0	-0.0645	0.0037	0.0157	92.9
0	-0.0458	-0.0008	0.0082	93.1
-0.0023	0.0007	0.0015	-0.0856	92.9
-0.0046	-0.015	0.003	-0.1021	93
-0.0053	0.027	-0.003	-0.0735	92.9
-0.0046	0.0712	-0.0046	0.0292	92.9
-0.0023	0.0457	-0.003	0.0457	93.1
-0.0015	-0.0293	0.0015	0.0277	92.8
-0.0015	-0.0525	0.0052	0.0217	93
-0.0008	0.006	0.006	-0.0091	92.9
0	0.0195	0.0067	0.0022	93
-0.0008	0.033	0.0105	-0.003	92.8
0.0015	0.0502	0.0082	0.0727	92.9
0.0045	0.018	0.0015	0.0397	92.8
0.003	0.0007	-0.0008	0.0015	92.8
0.0037	-0.0113	-0.0075	0.0255	92.8
0.003	-0.0218	-0.0046	-0.0105	92.8
0.003	-0.0181	-0.0068	0.0082	92.7
0.003	-0.0053	-0.0105	-0.0181	92.7
0.003	-0.0083	-0.0098	-0.0623	92.9
0.0045	-0.0278	-0.0128	-0.0615	92.8
0.0037	-0.0383	-0.012	-0.0068	92.9
0.0007	-0.048	-0.0113	0.0322	92.7
-0.0015	-0.0248	-0.006	0.0045	92.9
-0.0038	0.015	-0.003	-0.0218	92.8
-0.0038	0.0555	-0.0023	-0.0075	92.8
-0.0023	0.0457	-0.0008	0.0795	92.8
-0.003	0.0052	0.0022	0.1545	92.9
-0.003	-0.0256	0.0105	0.0952	92.8
-0.0053	-0.0765	0.018	-0.078	92.7
-0.0038	-0.0698	0.015	-0.1711	92.7
0.0015	0.0307	0.0067	-0.111	92.9
0.003	0.0735	0.0015	0.0127	92.7
0.0067	0.0247	-0.0038	0.018	92.8
0.0022	-0.003	-0.0008	-0.048	92.7
-0.0008	0.0165	0.0015	0.0322	92.8
0.0007	0.0255	-0.0008	0.0615	92.6
0.0015	-0.0113	-0.003	0.012	92.9
0.0037	-0.0428	-0.0083	0.0007	92.5
0.003	-0.033	-0.0098	0.0322	92.9
0.0015	0.0157	-0.0091	0.0742	92.6
0.0007	0.0067	-0.0091	0.0052	92.7
0.003	0.009	-0.0091	-0.033	92.6
0.0022	-0.003	0.0015	-0.0128	92.6
-0.0015	-0.0135	0.0112	-0.0413	92.7
-0.0038	-0.0023	0.015	-0.0593	92.7
-0.0008	-0.0083	0.018	-0.045	92.8
0.0007	0.045	0.0142	-0.0608	92.6
-0.0008	0.054	0.0082	-0.0436	92.7
-0.0008	0.054	0.0045	0.006	92.6
-0.0008	0.0367	0.0052	0.0195	92.7
-0.0023	0.0195	0.003	0.0675	92.5
0.0015	0	-0.0015	0.0667	92.7
0.003	-0.0233	-0.0023	0.0292	92.7
0.003	-0.0098	-0.0008	0.0315	92.6
0.003	-0.0256	0.0007	-0.0046	92.7
0.0015	-0.0218	0.0007	-0.03	92.6
0.0007	0	0.0015	0.0165	92.7
-0.0008	-0.0015	-0.0015	0.0345	92.6
-0.0023	-0.0181	-0.0008	0.0637	92.6
-0.0008	0.0052	-0.0038	0.1327	92.6
0.003	0.0187	-0.0098	0.0067	92.6
0.0022	-0.048	-0.0046	-0.2378	92.5
-0.0008	-0.0518	0	-0.1635	92.5
-0.0023	0.0045	0.003	0.0405	92.7
-0.0023	-0.0135	0.0007	0.0225	92.5
-0.0008	-0.0233	-0.0008	0.0015	92.6
-0.0015	-0.0128	0.003	-0.012	92.4
-0.0023	-0.015	0	-0.0195	92.6
-0.003	0.0075	-0.0008	0.0022	92.4
-0.0046	0.0067	0.0037	-0.015	92.7
-0.0046	0.0067	0.0052	0.015	92.5
-0.003	0.0067	0.0037	0.042	92.7
-0.0008	0.0142	-0.0015	0.0832	92.4
-0.0008	-0.0015	-0.0053	0.1042	92.5
0.0007	-0.03	-0.0083	0.0802	92.4
0.0022	0.018	-0.0091	0.0607	92.4
0.0015	0.045	-0.0046	-0.0721	92.5
0.003	0.006	-0.0008	-0.2011	92.3
0.0052	0.0015	-0.0008	-0.1253	92.5
0.0045	0.042	-0.003	0.045	92.3
0.0052	0.0337	-0.0038	0.0825	92.6
0.003	-0.0158	0.0007	0.039	92.3
0.0007	-0.0533	0.0052	-0.0181	92.5
0.0007	-0.0428	0.0052	-0.06	92.3
0.0045	0.0262	-0.0008	0.0142	92.6
0.0052	0.0277	-0.0008	0.0142	92.4
0.0022	0.0015	-0.0015	0.0165	92.4
0.0045	0.0157	-0.0068	0.1005	92.5
0.003	0.0247	-0.0068	0.0795	92.4
0.0037	0.0517	-0.0068	0.0202	92.3
0.003	0.0315	-0.0053	-0.0346	92.2
0.0015	-0.0128	-0.0038	-0.06	92.4
0.0007	-0.0518	0.0022	-0.0443	92.3
-0.003	-0.0668	0.0112	-0.042	92.3
-0.0023	-0.0195	0.012	-0.09	92.3
-0.0015	0.012	0.0082	-0.0525	92.2
0.0007	0.0397	0.0067	0.036	92.4
0.003	0.063	0.0015	0.057	92.2
0.0052	0.039	0.003	0.0795	92.3
0.003	-0.006	0.0037	0.033	92.3
0.003	-0.0585	0	-0.0068	92.3
0.003	-0.0503	0.0015	-0.0458	92.2
0.003	-0.0233	-0.0023	-0.0338	92.3
0.0045	-0.0015	-0.0083	0.0555	92.1
0.0022	0.0315	-0.0091	0.0757	92.1
0.0007	0.0105	-0.0053	0.0247	92.2
-0.0015	0.0202	-0.0008	-0.0248	92.2
-0.003	0.051	0.003	-0.0256	92.2
-0.006	0.012	0.0052	-0.0691	92.2
-0.0053	-0.0023	0.0052	-0.0383	92.3
-0.0053	0.0097	0.006	-0.0083	92
-0.003	-0.0015	0.0045	-0.0046	92.2
-0.0008	0.0052	0.0007	0.0157	92.2
-0.0015	0.0157	-0.0008	-0.006	92.3
-0.0015	0.0082	-0.0046	0.0367	92.2
-0.0023	-0.0098	-0.0053	0.0742	92.1
-0.0008	-0.0285	-0.006	0.0945	92.1
0.0007	-0.0278	-0.0083	0.0352	92.1
0.0015	-0.0023	-0.0068	-0.0428	92.1
0.0022	0.0405	-0.0015	-0.0533	92.1
0.003	0.0525	0.0037	-0.0428	92.2
0.0052	0.033	0.0067	-0.0413	92.1
0.0052	0.003	0.006	0.0082	92
0.0045	-0.054	0.003	0.078	92.1
0.003	-0.0533	0.0045	0.0052	92
0.003	-0.0143	0.0067	-0.0128	92.1
0.0045	0.0097	0.0045	-0.0458	91.9
0.0015	0.0045	0.0015	-0.0908	92
-0.003	-0.0293	0.0015	-0.0173	91.9
-0.0053	-0.0256	0	0.0052	92.1
-0.0053	-0.0053	0.0015	0.0187	91.8
-0.0053	0.0142	0.0015	0.045	92
-0.0053	0.0052	0	0.039	91.8
-0.0015	-0.0135	0.0007	0.0052	92
-0.0008	0.0067	-0.0008	0.0142	91.8
0.0015	0.012	-0.0015	-0.0218	92
0.0015	-0.024	0.0045	-0.0593	91.8
0.0015	-0.033	0.006	-0.0511	92
0.0015	0.0405	0.0015	-0.0353	91.9
0.0015	0.072	-0.003	0.081	91.9
0.003	-0.0128	-0.0046	0.0577	91.8
0.003	-0.0615	-0.0008	-0.012	91.8
0.0037	-0.024	-0.0015	-0.0046	92
0.0022	-0.006	0.0015	-0.0615	91.7
0.0015	-0.021	0.003	-0.0691	91.8
0.003	0.0202	-0.0015	-0.033	91.6
0.003	0.048	-0.0015	0.0165	91.8
0.0007	0.0292	-0.006	0.039	91.7
0.003	0.0067	-0.0091	0.0172	91.8
0.0045	-0.021	-0.0053	-0.0075	91.7
0.0045	-0.0015	-0.0068	-0.003	91.5
0.0067	0.0097	-0.0075	0.0232	91.6
0.0067	0	-0.0068	0.0195	91.5
0.006	0.0075	-0.0083	0.0382	91.5
0.006	0.009	-0.0068	0.0315	91.5
0.0045	0.0082	-0.0046	0.0285	91.6
0.0045	-0.0068	-0.0038	0.0375	91.5
0.0045	-0.0256	-0.0046	0.0022	91.4
0.003	-0.0263	-0.0053	-0.0525	91.6
-0.0015	-0.0293	-0.003	-0.0818	91.4
-0.0053	-0.015	0.0015	-0.0143	91.6
-0.0053	-0.003	0.0052	0.0195	91.4
-0.0046	-0.0053	0.0082	-0.0263	91.6
-0.006	0.0142	0.0105	-0.0615	91.3
-0.0083	0.027	0.0082	0	91.6
-0.0053	0.0075	0.006	0.0907	91.3
-0.006	-0.0083	0.0045	0.0847	91.6
-0.0075	0.0105	0.0052	0.0225	91.3
-0.0075	0.0067	0.003	-0.0533	91.6
-0.0068	0.0247	-0.0046	0.0442	91.3
-0.003	0.0382	-0.0075	0.0937	91.3
-0.0008	0.0007	-0.0068	-0.0143	91.3
-0.0008	-0.0105	-0.0053	-0.0788	91.3
0.0015	-0.0278	0.0045	-0.1396	91.5
0	-0.0053	0.009	-0.075	91.2
0.0007	0.0315	0.006	0.0495	91.5
0.0045	0.0075	0.0007	0.03	91.2
0.0067	-0.0218	-0.0038	-0.0458	91.4
0.0067	-0.0195	-0.0008	-0.0165	91.2
0.0067	-0.0015	0.0015	0.0105	91.3
0.0045	0.0015	0.0015	0.0082	91.1
0.0037	0.0105	0.0007	0.0382	91.2
0.0037	0.0075	-0.0023	0.0142	91.2
0.0015	0.0082	-0.003	0.0187	91.2
0.0022	0.018	-0.003	0.0195	91.2
0.0015	0.018	-0.0046	0.0007	91.1
-0.0008	0.0292	-0.0046	0.0195	91.1
0	0.0232	-0.0046	0.069	91.2
-0.0015	-0.0015	-0.0038	0.1207	91.2
-0.0015	-0.0308	-0.0023	0.0765	91
-0.0008	-0.0203	-0.0015	-0.0203	90.9
-0.0008	0.0202	-0.003	-0.0773	90.9
0	0.048	0.0007	-0.0518	91
-0.0023	0.0195	0.006	-0.0623	90.9
-0.0023	-0.0248	0.0105	-0.0533	90.8
-0.0046	-0.0015	0.0142	0.0097	90.9
-0.003	0.0195	0.0127	-0.0285	90.8
-0.0015	0.0315	0.0067	-0.027	91
-0.0008	-0.0008	0.0037	0.0337	90.7
0.0007	-0.0578	0.0015	0.081	90.8
-0.0015	-0.0803	0.0007	0.075	90.7
-0.0015	-0.0428	0.0022	0.0427	90.9
-0.0008	0.0067	0.0045	-0.0053	90.7
-0.0008	-0.0143	0.0082	-0.0675	90.7
0.0015	0.0082	0.006	-0.0465	90.7
0.003	0.0345	0.0045	-0.0323	90.6
0.0037	0.0097	0.0015	-0.0398	90.8
0.003	0.0195	-0.0015	-0.0053	90.6
0.0015	0.0532	-0.0038	0.0307	90.8
-0.0015	-0.0038	-0.0015	-0.027	90.4
-0.0038	-0.0683	0	-0.0293	90.8
-0.0038	-0.0203	-0.0023	0.0405	90.6
-0.0046	0.0165	-0.0046	0.0015	90.7
-0.0046	0.0202	-0.0023	-0.0053	90.6
-0.003	0.021	-0.0008	-0.0046	90.5
-0.003	0.0157	-0.003	-0.0203	90.6
0.0015	0.015	-0.003	0.0052	90.4
0.0052	-0.0315	-0.0023	-0.0743	90.4
0.0052	-0.0533	0.0015	-0.0465	90.4
0.003	-0.0128	0.0052	0.0802	90.3
0.0015	-0.0091	0.003	0.0772	90.4
0.0037	-0.0165	-0.0008	0.0907	90.3
0.0067	0.012	-0.0053	0.0982	90.3
0.009	0.0262	-0.0046	0.03	90.1
0.0082	-0.0165	-0.0008	-0.114	90.3
0.0045	-0.0008	0.0045	-0.18	90.2
0.003	0.0592	0.0067	-0.0256	90.3
0.0015	0.054	-0.0015	0.0765	90.1
0.0015	0.0195	-0.0091	0.0652	90.2
0.0007	-0.0008	-0.0075	0.0022	90
-0.0038	-0.0428	-0.0015	-0.0585	90.2
-0.0046	-0.0585	0.0045	0.0225	90
-0.003	0.0495	0.0045	0.0772	90.1
-0.0015	0.0435	0.0007	-0.0315	89.9
-0.0008	-0.0383	-0.0038	-0.0863	90
0.0015	-0.0158	-0.0053	0.0037	90
0.0022	-0.0075	-0.0053	-0.0098	90
0.0007	-0.0075	-0.0053	-0.0158	90
0.003	-0.021	-0.0091	0.0067	89.7
0.003	0	-0.0068	-0.0083	89.9
0.0015	0.0352	-0.006	0.0367	89.7
0.0052	0.0217	-0.0098	0.0127	89.7
0.0067	0.0052	-0.0083	0.0067	89.5
0.0067	0.0037	-0.0046	0.003	89.8
0.006	0.0142	-0.0023	-0.0068	89.6
0.0045	0.006	-0.0046	0.027	89.7
0.003	-0.0105	-0.0008	0.0352	89.6
0.0022	-0.0225	0.0045	0.024	89.6
-0.0008	-0.0098	0.0015	-0.0218	89.6
0	0.006	0.0022	0.0015	89.5
0.0015	0.015	0.0015	0.0292	89.5
0.0022	0.0247	0.0015	-0.0046	89.5
-0.0008	0.012	0.0015	-0.0383	89.5
-0.0015	0.0037	0.003	-0.021	89.5
0	-0.0008	0.0015	0.0577	89.5
-0.0015	-0.0203	0.0015	0.0412	89.5
-0.0015	-0.0443	0.003	-0.012	89.4
-0.0008	-0.0338	0.0045	0.0105	89.4
0.0007	0.0127	0.0045	0.0817	89.2
0.0045	0.0127	-0.0008	0.0277	89.4
0.003	-0.0053	-0.003	-0.0698	89.3
0.0015	0.0052	-0.003	-0.0225	89.4
-0.0008	0.012	0.0007	-0.033	89.2
-0.003	0.0135	0.0082	-0.0143	89.3
-0.0015	0.0195	0.0082	0.0127	89.1
-0.0008	-0.0083	0.0105	0.0105	89.2
-0.0008	-0.057	0.0075	0.0405	89.1
0	-0.0256	0.0015	-0.0383	89.1
0.0007	0.0142	0.0067	-0.03	89
0.0007	0.0007	0.0082	-0.0443	88.7
-0.003	-0.012	0.0082	-0.093	89.1
-0.0038	-0.0278	0.012	-0.0181	88.8
-0.003	-0.027	0.0135	-0.0158	89
-0.0023	-0.0128	0.0112	0.0015	88.7
-0.0008	0.003	0.0082	0.0442	88.7
-0.0008	0.0045	0.0052	0.0315	88.6
0.0007	0.0105	-0.0015	0.0105	88.8
0.0007	0.018	-0.0053	-0.0218	88.4
-0.0008	0.0315	-0.0083	0.003	88.5
0.0022	0.0382	-0.0128	0.0105	88.5
0.003	0.0232	-0.012	-0.006	88.6
0.0045	0.0255	-0.0128	0.024	88.5
0.0052	0.0315	-0.0128	0.0502	88.5
0.003	0.057	-0.0128	0.0787	88.4
0.0007	0.0517	-0.0143	0.0465	88.3
-0.0023	0.024	-0.0128	-0.0278	88.2
-0.0046	0.0007	-0.012	-0.0165	88.2
-0.0053	-0.0511	-0.0083	0.0015	88.2
-0.0083	-0.0623	-0.003	-0.063	88.3
-0.0098	0.0037	0.0037	0.0067	88.2
-0.0105	0.0255	0.0097	0.0645	88.2
-0.0091	-0.0443	0.012	-0.0706	88.1
-0.0083	-0.0615	0.0142	-0.0691	88.2
-0.0053	-0.0248	0.0105	0.0052	87.9
-0.0015	-0.0046	0.0052	0.0157	88.1
0	0.0105	0.0022	-0.015	88
0	0.0352	-0.0015	-0.0735	88
0.0022	0.0495	-0.003	-0.0443	87.9
0.0067	0.051	-0.0075	0.0345	87.9
0.009	0.0457	-0.0143	0.1267	87.8
0.0112	-0.0181	-0.0098	0.129	87.7
0.0105	-0.0593	0.0075	-0.0075	87.7
0.0082	-0.0398	0.0172	-0.0765	87.7
0.0075	-0.0091	0.009	-0.045	87.7
0.0045	0.0232	0.0007	0.0217	87.7
0.0022	0.0142	-0.003	0.0457	87.7
0.0007	-0.0105	-0.0015	0.042	87.7
-0.0023	-0.0173	0.0045	0.0315	87.7
-0.006	-0.0143	0.0052	-0.054	87.7
-0.0053	-0.0091	0.0037	-0.0893	87.4
-0.0023	-0.0128	0.0022	-0.0878	87.6
-0.0038	0.0052	0.0037	-0.0353	87.3
-0.0046	0.0382	0.0052	0.0322	87.6
-0.0038	0.0255	0.0052	-0.024	87.4
-0.0046	-0.0068	0.009	-0.0195	87.5
-0.0015	-0.0375	0.0097	-0.0008	87.5
0.0015	-0.0308	0.0052	-0.0361	87.3
0.0067	0.0075	-0.0008	0.0022	87.4
0.0105	0.0172	-0.0083	0.033	87.2
0.0097	0.012	-0.0091	0.0412	87.3
0.012	-0.0015	-0.0075	0.0382	87.1
0.0105	-0.0038	-0.0083	0.027	87.2
0.0112	-0.0091	-0.0091	0.0322	87
0.009	-0.006	-0.0083	0.063	87.3
0.006	-0.0038	-0.003	0.0712	86.9
0.0045	-0.0091	0	-0.0143	87
0	-0.0046	0.0022	-0.0773	86.9
-0.003	0.0097	0.0022	-0.042	87
-0.003	-0.0053	0.0045	-0.0278	87
-0.0023	-0.0083	0.0067	-0.0158	87.1
-0.003	0.0202	0.0052	0.03	86.8
-0.0008	0.009	0.0067	0.021	86.7
0.0045	0.0052	0.0045	0.0007	86.9
0.0045	0.0082	0.0007	0	86.8
0.006	0.0187	-0.0046	0.0082	86.8
0.0052	0.021	-0.006	0.0157	86.8
0.0015	0.0105	-0.0008	0.0037	86.6
0.0007	0.0082	0.0015	0.0082	86.7
0.0015	0.0007	0	0.006	86.5
0.0015	-0.0008	-0.003	0.0052	86.7
0	-0.0038	-0.0023	0.003	86.4
-0.0015	0.003	-0.0038	0.0037	86.6
-0.0008	0.006	-0.0068	0.0217	86.3
0.0007	0.0007	-0.0023	0.0037	86.4
0.0022	-0.003	0.0015	-0.0315	86.3
0.0015	-0.0053	0.003	-0.039	86.4
0.0015	0.003	0.0052	-0.0046	86.3
0.0015	0.006	0.006	0.0082	86.3
0.0015	0.0007	0.0052	-0.0053	86.3
0	-0.0038	0.0022	-0.0008	86.1
0	-0.0068	-0.0015	-0.0083	86.4
0	-0.0053	-0.003	-0.003	85.9
-0.0008	-0.0038	-0.0038	-0.0008	86.1
-0.0008	-0.0008	-0.0068	-0.003	86
-0.0023	0.0052	-0.0083	0.0007	86
-0.0038	0.0037	-0.0091	0	85.7
-0.003	0.0045	-0.0105	-0.0008	86
-0.0046	0.0037	-0.0128	-0.0105	85.9
-0.0053	0.0052	-0.0113	-0.0165	85.6
-0.0038	0.0067	-0.012	-0.0053	85.7
-0.0008	0.0052	-0.0091	0.0517	85.7
0	0.0082	-0.0053	0.1252	85.7
0.0015	-0.0008	-0.0053	0.1177	85.7
0.0015	0.0015	-0.0023	0.0262	85.6
-0.0008	0.0135	0.0015	-0.0548	85.6
-0.0015	-0.0008	0.0045	-0.0818	85.4
-0.0008	-0.0046	0.0015	-0.0608	85.5
0.0007	-0.0083	0.0015	-0.0368	85.5
0	-0.033	0.0052	-0.06	85.4
0.0015	-0.0233	0.0015	-0.0353	85.4
0.0022	0.0157	0.003	0.018	85.3
0.0007	0.0225	0.0052	0.015	85.2
-0.0008	0.0277	0.0045	0.0547	85.3
-0.0008	0.0547	0	0.1147	85.1
0.0022	0.0765	-0.0046	0.1552	85.2
0.0015	0.0472	0.0007	0.0562	85
-0.0008	-0.0743	0.0105	-0.1943	85
-0.0023	-0.1568	0.0217	-0.2483	84.8
-0.003	-0.0713	0.027	-0.0788	84.9
-0.0023	0	0.0187	0.021	84.9
-0.0015	-0.0203	0.0127	0.0345	84.9
-0.0008	-0.0075	0.0082	0.0157	84.7
-0.0015	0.012	0.0052	0.0255	84.6
-0.0038	0.009	0.003	0.0787	84.6
-0.0038	0.006	0.0007	0.024	84.6
-0.0068	0.0292	0.003	-0.006	84.5
-0.0053	0.0607	0.0052	0.0532	84.4
-0.0015	0.0517	0.0052	0.0735	84.5
0.0015	-0.0038	0.0052	0.0127	84.4
0.0045	-0.0511	0.0052	-0.0503	84.2
0.0045	-0.0458	0.0052	-0.0998	84.3
0.0045	0.0315	0.0045	-0.0735	84
0.0037	0.0697	0.0015	0.0112	84.3
0.0015	0.0067	0	-0.0293	84
0.0007	-0.0225	0	-0.0218	84.1
0.0045	-0.0293	0.0015	-0.0128	84
0.0015	-0.0383	0.003	-0.0361	83.8
0.003	-0.003	0	0.0292	83.9
0.0052	0.0195	-0.0008	0.0247	83.8
0.0045	0.0067	-0.003	0.0255	83.9
0.003	0	-0.0023	0.0307	83.5
0.0015	-0.012	-0.0008	0.0097	83.8
0.0015	0.0037	-0.0015	0.0097	83.4
0.0022	0.0247	-0.0015	0.003	83.7
0	0.027	-0.0038	0.0202	83.4
-0.0008	0.0165	-0.0046	0.0352	83.5
0.0007	-0.0023	-0.006	0.057	83.2
0.0015	-0.0098	-0.0091	0.051	83.3
0.0022	-0.0195	-0.0098	0.0337	83.1
0.0037	-0.0105	-0.0105	0.009	83.2
0.0015	-0.0105	-0.0091	-0.0436	83.1
0.003	-0.0165	-0.0075	-0.0413	82.9
0.006	-0.0218	-0.0068	-0.042	82.9
0.006	-0.006	-0.0053	-0.054	82.9
0.0052	0.0112	-0.006	-0.0428	82.8
0.0075	-0.0083	-0.003	-0.0053	82.8
0.0052	0.0052	-0.0008	0.018	82.8
0.003	-0.0015	-0.0008	-0.024	82.8
0.0015	-0.0143	0	0.003	82.6
0.0015	0	-0.0023	0.0082	82.6
0	0.0142	-0.0008	0.0007	82.4
0	0.0165	-0.0008	0.0202	82.5
0.0007	0.0052	-0.0008	-0.0015	82.3
-0.0015	0.0105	-0.0015	0.0127	82.5
-0.0053	0.0082	-0.0038	0.012	82.1
-0.0091	0.0067	-0.0053	0.018	82.2
-0.0091	-0.003	-0.0046	0.0187	82
-0.0091	-0.0053	-0.0015	0.0045	82
-0.0068	0.0052	-0.0008	0.0172	81.9
-0.0046	0.0232	-0.0038	0.0427	81.8
-0.0023	0.027	-0.003	0.0315	81.8
-0.0008	0.0127	-0.003	-0.0375	81.6
-0.0008	-0.0023	-0.003	-0.0623	81.7
-0.0008	-0.021	-0.0015	0.0105	81.5
0.0022	-0.0113	-0.003	0.0682	81.5
0.0045	0.0045	-0.0053	0.0187	81.2
0.0045	0.0022	-0.0023	0.0165	81.4
0.0037	0	0	0.024	81.2
0.0045	0.006	0	-0.0008	81.2
0.003	0.0037	0.0007	0.012	81
0.003	0.003	-0.0008	-0.0053	81
0.0045	0.0022	0.0007	0.0052	80.9
0.006	0.003	0.0015	0.0067	80.9
0.0075	0.0082	0.0037	0.0195	80.9
0.0082	0.009	0.0022	0.0615	80.8
0.0075	0.012	-0.0015	0.0892	80.7
0.0045	0.003	0.0007	0.0517	80.6
0	-0.0173	0.0052	-0.1193	80.6
-0.003	-0.0165	0.009	-0.1875	80.4
-0.0038	0.018	0.0127	-0.0758	80.3
-0.0008	0.0307	0.009	-0.006	80.3
0	0.0187	0.0007	0.0405	80.1
-0.0008	0.0052	-0.0046	0.057	80.3
-0.003	-0.012	-0.0053	0.0165	80.1
-0.0038	-0.0158	-0.0046	-0.0398	80.1
-0.003	-0.0105	0	-0.06	80
-0.0015	0.0007	0.0007	-0.0008	80
-0.0008	0.0045	0.0022	0.0142	79.7
-0.0008	0.0082	0.0045	0.0172	79.7
0	0.0232	0.0037	0.0442	79.8
0	0.0217	0.003	0.0172	79.7
-0.0008	0.0105	0.0022	-0.0158	79.6
-0.0015	-0.0203	0.003	-0.0495	79.5
-0.0015	-0.024	0.0015	-0.0308	79.5
0.0007	-0.0091	-0.0015	0.0532	79.3
0.0022	-0.0098	-0.0038	0.1027	79.4
0.0045	0.0052	-0.0075	0.0937	79.2
0.0052	-0.006	-0.0038	0.027	79.2
0.0015	-0.0353	0.0045	-0.075	79
-0.0008	-0.0503	0.009	-0.1485	79.1
-0.003	-0.0465	0.0105	-0.15	78.9
-0.0053	0.0067	0.009	-0.057	78.9
-0.0046	0.0487	0.003	0.0165	78.9
-0.003	0.0345	0.0007	0.015	78.9
-0.003	0.0157	0.0037	-0.0158	78.8
-0.0023	0.0067	0.0052	-0.0615	78.7
-0.0015	0.0052	0.0067	-0.0436	78.5
0	0.0105	0.0052	0.03	78.7
0.0037	0.003	0.0015	0.0472	78.4
0.0045	0.009	0	0.0502	78.4
0.0045	0.0067	-0.003	0.0472	78.3
0.0037	-0.0091	-0.0023	0.0345	78.3
0.0015	-0.0195	0.0007	0.0217	78
-0.0008	-0.0181	-0.0015	-0.0143	78.2
-0.0015	0.0067	-0.0075	0.0367	77.9
-0.003	0.0195	-0.0075	0.051	78
-0.0023	-0.0053	-0.006	-0.0113	77.7
-0.0008	-0.0323	-0.006	-0.0315	77.8
0	-0.0165	-0.0023	-0.0428	77.6
-0.0008	0.0097	-0.0008	-0.0128	77.7
0	0.024	0.0037	0.042	77.4
-0.0015	0.024	0.0075	0.0862	77.3
0.0007	-0.003	0.0067	0.075	77.3
0.0022	-0.024	0.006	0.0007	77.1
0.0015	-0.0158	0.0052	-0.0443	77.1
0.0015	0.0007	0.003	-0.0143	77
0.0015	0.0075	0.003	0.0187	77.2
0.0015	0.0157	0.0007	0.0165	76.8
0.0022	0.0195	-0.0023	0.012	77
0.003	0.0127	-0.0008	0.0097	76.8
0.003	-0.0083	-0.0015	-0.0165	76.6
0	-0.0128	-0.0015	-0.0548	76.5
-0.0008	-0.0023	-0.0015	-0.0668	76.3
-0.0008	0.0142	0	-0.0653	76.3
0.0007	0.0427	0.0022	-0.0023	76.2
0.003	0.0405	0.0045	0.0757	76.3
0.0037	-0.0105	0.0067	0.0465	76
0.0045	-0.0398	0.0015	-0.039	76
0.0037	-0.0053	0.0015	-0.0128	76
0.0052	-0.0068	0	0.0157	75.7
0.0067	-0.0053	-0.003	0.0112	75.8
0.0067	-0.0008	-0.0008	0.0525	75.5
0.003	-0.0068	0.0015	-0.0143	75.6
0.0015	0.0112	0.0052	-0.078	75.1
0.0015	0.0022	0.0082	-0.027	75.5
0.0007	0.012	0.0082	0.063	75.1
0.003	0.018	0.0075	0.0592	75.4
0.0045	-0.0038	0.0052	0.0247	74.9
0.0045	-0.0195	0.0052	0.0045	75.1
0.0037	-0.021	0.0045	-0.0405	74.8
0.003	0.0045	0.0015	-0.0285	75
0.0007	0.027	0.0015	-0.0181	74.6
0	0.0157	-0.0068	0.0255	74.7
-0.0008	0.015	-0.0128	0.0412	74.3
-0.0015	-0.003	-0.0143	0.0105	74.4
-0.003	-0.0338	-0.0143	-0.012	74.3
-0.0008	-0.0128	-0.012	0.042	74.2
0.0007	0.0015	-0.0098	0.066	74.2
-0.0008	-0.0008	-0.0068	-0.03	73.9
-0.0023	0.0045	-0.0068	-0.0375	74.1
-0.0015	0.0105	-0.003	-0.0098	73.8
0.003	0.0105	-0.003	0.0045	73.7
0.0045	-0.0008	-0.0046	-0.0046	73.7
0.0045	-0.0053	-0.0023	0	73.7
0.0045	-0.0105	-0.0015	0.0105	73.5
-0.0008	-0.015	0.0007	-0.0285	73.4
-0.0023	-0.0105	0.0007	-0.0308	73.3
-0.003	-0.003	-0.0015	-0.0195	73.2
-0.0015	0.0052	-0.0008	0.0045	73.1
0.0015	0.012	-0.0015	0.0037	73
0.0015	0.0045	-0.0053	-0.003	72.8
0.003	-0.0015	-0.0075	0.0052	72.8
0.0045	0	-0.0091	0.012	72.4
0.003	-0.003	-0.0098	0.0127	72.6
0.003	-0.0046	-0.0083	-0.0038	72.4
-0.0008	0.0037	-0.0068	0.0262	72.4
-0.003	0.0075	-0.0046	0.0082	72.1
-0.0053	-0.003	-0.0053	-0.063	72
-0.0075	0.0082	-0.0053	-0.0353	72
-0.0083	0.0292	-0.0053	0.0315	72
-0.0083	0.0105	-0.003	0.021	71.8
-0.0091	-0.0105	0.0015	0.0277	71.7
-0.0068	-0.0158	0.0045	0.0307	71.6
-0.0053	-0.0188	0.0097	-0.048	71.4
-0.0053	-0.0181	0.0127	-0.0615	71.4
-0.0046	-0.003	0.0157	-0.0338	71.3
-0.0038	0.0082	0.0165	0	71.1
-0.0015	0.0157	0.0157	0.0307	71.1
-0.0023	0.0142	0.015	0.0157	71
-0.0015	-0.0015	0.0105	-0.0015	70.8
-0.0008	-0.0083	0.0105	-0.0098	70.7
-0.0008	-0.003	0.009	-0.0181	70.7
0.0037	0.0045	0.0045	-0.012	70.6
0.0037	0.009	-0.0015	0.0142	70.4
0.0037	0.012	-0.0083	0.033	70.4
0.0045	0.0067	-0.0113	0.0495	70.3
0.0045	-0.003	-0.0158	0.0525	70
0.006	-0.0053	-0.0128	0.0382	70.1
0.0045	-0.0023	-0.0053	0.0277	69.7
0.0037	-0.015	-0.0023	0.0037	70
-0.0015	-0.0308	0.0007	-0.0428	69.7
-0.0053	-0.0436	0.0075	-0.0585	69.7
-0.0038	-0.0346	0.012	-0.0548	69.5
-0.0023	0.0127	0.0105	-0.075	69.4
-0.003	0.0495	0.006	-0.0803	69.4
-0.0015	0.0427	-0.0015	-0.0593	69.1
-0.0008	0.042	0	0.042	69.2
-0.0015	0.0232	-0.0015	0.0817	68.8
0.0007	-0.0158	-0.003	0.0195	69
0	-0.0068	0.0045	0.0082	68.6
0.0007	-0.003	0.0067	0.0045	68.8
0.0022	-0.003	0.0045	0.0502	68.6
0.0007	0.003	0.0007	0.039	68.5
0.003	0.0105	-0.003	0.0202	68.2
0.0045	0.0067	-0.0068	0.009	68.1
0.0052	-0.0046	-0.0068	-0.0278	68.1
0.0045	-0.0091	-0.0046	0.0315	68
0.0052	-0.0091	-0.0015	-0.0405	67.8
0.0075	-0.0068	0.006	-0.0195	67.8
0.009	-0.0181	0.003	0.078	67.6
0.0097	-0.0023	0.0022	0.0037	67.5
0.0075	0.0082	0.0052	-0.0256	67.4
0.0067	0.0127	0.0022	-0.066	67.1
0.0067	0.0172	0.0007	-0.0315	67.1
0.006	0.012	-0.0008	0.054	67.1
0.0067	0.0187	-0.0046	0.069	66.6
0.0045	0.0082	-0.0083	0.0232	66.7
0.0045	-0.0165	-0.0075	-0.0158	66.4
0.0037	-0.0233	-0.0008	-0.0015	66.6
-0.0015	-0.0428	0.0075	-0.0743	66.2
-0.003	-0.0615	0.0127	-0.0773	66.6
-0.003	-0.0046	0.0127	-0.0285	66.1
-0.0053	0.0532	0.0067	-0.0113	66.1
-0.0038	0.0675	0.0007	0.03	66
-0.003	0.0487	0.0015	0.0157	65.8
-0.0046	0.0157	0	0.0247	65.8
-0.0038	-0.0105	0	0.0352	65.4
-0.0046	-0.0361	0.0007	0.0292	65.6
-0.0038	-0.042	0.0007	0.0142	65.1
-0.003	-0.0346	0.0022	-0.0098	65.2
-0.0008	-0.0083	0.0015	0.0037	65.1
0.0022	0.0045	0.003	0.0045	65.1
0.003	0.015	-0.0008	0.0067	64.8
0.0067	0.0232	-0.006	0.012	64.6
0.0075	0.027	-0.0083	0.0127	64.3
0.0052	0.0367	-0.0083	0.0157	64.3
0.003	0.0217	-0.0068	0.0067	64.2
0.0007	-0.0015	-0.006	0.0052	64
0.0015	-0.0188	-0.0046	0.003	64
0.0015	-0.003	-0.0068	0.0037	63.8
0.0037	0.0165	-0.0091	-0.0068	63.7
0.0037	0.0105	-0.0068	-0.0195	63.7
0.003	0.0082	-0.006	-0.0165	63.6
0.0045	-0.0008	-0.0053	-0.0083	63.4
0.0052	-0.0083	-0.0046	0.0045	63.3
0.0067	-0.0046	-0.0015	0.0067	63.2
0.003	-0.0023	-0.0008	0.0097	62.9
0.0015	-0.0015	0.0007	0.0105	62.9
-0.0015	-0.0083	0.0022	0	62.5
-0.0053	-0.0083	0.0022	-0.0195	62.5
-0.0053	-0.0008	-0.0008	-0.0256	62.3
-0.0053	0.0052	-0.0008	-0.0113	62.2
-0.0053	0.0007	0.006	-0.0046	62.2
-0.0046	-0.0053	0.0067	0.0082	61.9
-0.0015	-0.0083	0.0052	0.0082	61.7
-0.0015	-0.0068	0.0045	-0.003	61.7
0.0015	0.0007	-0.0008	0.0007	61.6
0.0015	-0.003	-0.0046	0	61.4
0.0007	-0.0008	-0.0083	-0.0015	61.2
0.0007	0.0052	-0.0091	0.0022	61
0	0.0045	-0.0075	0.0007	60.9
0.0022	0.0015	-0.0091	0.0022	60.9
0.0015	-0.003	-0.0098	0	60.7
0.003	-0.0046	-0.0083	-0.003	60.7
0.0045	-0.0053	-0.0083	-0.0008	60.3
0.003	-0.0008	-0.006	-0.0008	60.6
0.0022	0.003	0.0015	-0.0015	60.2
0.0022	0.0052	0.0045	-0.0046	60.1
-0.0008	0.0052	0.0082	-0.0046	59.8
-0.0038	0.0045	0.0075	-0.0008	59.8
-0.0046	0.0052	0.0067	0.003	59.6
-0.003	0.0015	0.0082	0.0052	59.5
-0.0008	-0.0008	0.0067	0.0052	59.4
0	0.0015	0.0052	0.0045	59.3
0.0015	0.0045	0.0045	0.0007	59.2
0.0015	0.0052	0.0067	0.0052	58.9
0.0022	0	0.0097	0.024	59.2
0.003	-0.0053	0.0135	0.063	58.6
0.0022	-0.0083	0.0172	0.0915	58.8
0.0007	-0.0023	0.0165	0.0697	58.5
0.0007	0.0022	0.0142	0.0337	58.5
0.003	0.003	0.0105	-0.0555	58.3
0.0045	0.0082	0.0082	-0.1426	58.2
0.003	0.0202	0.003	-0.1155	58.2
0.0015	0.0322	-0.0023	-0.1028	58
0.0022	0.0292	-0.003	-0.057	58
0.0045	0.012	-0.0053	0.0892	57.9
0.0037	-0.0346	-0.0068	0.1672	57.8
0.0022	-0.0713	-0.0015	0.0765	57.6
0.0007	-0.0608	0.0082	-0.1178	57.4
0	-0.039	0.0135	-0.105	57.4
0.0015	0.0052	0.0052	-0.0158	57.3
0.0037	0.0435	-0.0046	0.0142	57.3
0.0045	0.048	-0.0098	0.1327	57
0.0022	0.0292	-0.0113	0.1387	57
-0.0008	-0.0083	-0.0068	0.0667	56.7
-0.0046	-0.0233	-0.0015	-0.1028	56.9
-0.0053	-0.0293	0.0045	-0.1748	56.5
-0.0068	-0.0188	0.0097	-0.0548	56.7
-0.0053	-0.0105	0.006	-0.0488	56.4
-0.0046	-0.003	0.003	-0.0165	56.4
-0.0046	0.0165	0.0022	0.015	56.2
-0.0038	0.0082	0.0022	0.036	56.2
-0.003	0.0045	0.0015	0.0435	56
-0.0008	-0.0046	-0.0015	0.0097	55.9
0.0007	-0.0068	-0.0008	0.0082	55.8
-0.0008	0.0082	-0.003	-0.0158	55.6
-0.003	0.0135	-0.0053	0.0262	55.7
-0.0008	0.0232	-0.0068	0.0247	55.3
0	0.021	-0.0038	0.0007	55.4
0.0015	0.0112	-0.003	0.012	55.2
-0.0008	0	-0.0015	-0.042	55.1
-0.003	0.0075	-0.0008	-0.0458	55
-0.0015	0.0277	-0.0091	0.0315	54.9
0.0007	0.0105	-0.0135	0.1207	54.8
0.0007	-0.0218	-0.0135	0.09	54.6
-0.0008	-0.0165	-0.0128	-0.0368	54.5
-0.0008	0.009	-0.0098	-0.0398	54.4
-0.0015	-0.0053	-0.0053	0.0105	54.4
0	-0.0383	-0.0053	0.0165	54.2
0.0015	-0.0346	-0.0008	0.0195	53.9
0.003	0.0037	0.0052	-0.0315	54
0.0022	0.0292	0.003	-0.0548	53.9
0	0.0255	0.0045	0.0052	53.9
0.0015	0.0142	0.0015	0.0202	53.5
0.0007	0.0135	-0.0015	-0.03	53.6
0.0015	0.0135	-0.006	-0.0443	53.3
0.0015	0.0075	-0.0053	-0.0128	53.2
0.0007	0.0165	-0.0015	-0.0263	52.9
0.0007	0.0157	-0.0015	-0.0308	52.9
0	0.0202	-0.0015	0.039	52.7
0	0.021	-0.0015	0.078	52.6
-0.0023	-0.0068	0.0015	0.0802	52.5
-0.0008	-0.0181	0.006	0.0652	52.3
0.0022	-0.0225	0.0082	-0.0023	52.2
0.0022	-0.0346	0.0142	-0.057	51.9
0.0022	-0.0315	0.012	-0.057	51.8
0.0022	-0.0181	0.0097	0.0217	51.9
0.0015	-0.0083	0.0105	0.054	51.5
0.0022	0.0007	0.003	-0.012	51.4
0.0015	-0.0053	-0.0015	-0.063	51.2
0.003	0	-0.006	-0.0691	51.1
0.0045	0.0112	-0.0091	0.0075	50.7
0.0052	0.0105	-0.0083	0.0067	50.8
0.003	0.009	-0.0075	-0.0053	50.4
0.0022	0.0067	-0.0075	0.0165	50.4
0.0015	0.0067	-0.0068	-0.006	50.1
0.0022	0.0052	-0.003	0.0127	50.2
0.0015	0.0052	-0.003	-0.0008	49.9
0.0007	0.003	-0.0038	0.0007	49.8
0.0015	0.0015	-0.0008	0.0015	49.6
0.0007	-0.0008	-0.0015	-0.0068	49.5
-0.0008	-0.003	-0.0008	0.0022	49.4
-0.0008	-0.003	-0.0015	-0.0068	49.1
-0.0008	-0.0015	-0.003	0.0015	49.1
-0.0015	0.0007	0.0007	0.0007	48.7
0.0007	0.0007	0.003	0.0075	48.7
0.0015	0.003	0.0045	0.0097	48.5
0	0.0015	0.003	0.0045	48.5
0.0007	-0.0008	-0.003	0.003	48.2
-0.0008	-0.0015	0.0037	0.0007	48
-0.0008	-0.003	0.015	0.0045	47.9
-0.0015	-0.0046	0.0157	-0.0008	47.6
-0.0008	-0.003	0.0112	0.0007	47.7
0.0007	-0.003	0.0037	-0.0008	47.4
0.0015	-0.0038	-0.003	0	47.5
0.003	-0.0008	-0.0068	0.0015	47.1
0.0022	0.0007	-0.0091	-0.0015	46.9
0	0.0015	-0.0083	-0.0008	46.9
-0.003	0.0015	-0.0075	-0.0015	46.7
-0.003	0.0022	-0.0075	-0.0015	46.7
-0.0046	0.003	-0.0068	-0.003	46.4
-0.0046	0.0007	-0.0068	-0.0015	46.5
-0.003	0.0015	-0.0053	-0.0015	46
-0.0015	0.0015	-0.0046	-0.0015	46.2
-0.0015	0.0045	-0.0008	0.0007	45.9
-0.0015	0.0067	0.0037	0.003	45.8
-0.0008	0.006	0.0052	0.0052	45.6
-0.0008	0.006	0.0037	0.0052	45.6
0	0.0045	0.0015	0.0052	45.3
0.0015	0.0037	0.0007	0.006	45.4
0.0037	0.0045	0.0015	0.0067	45.1
0.0052	0.0045	0.0007	0.0052	45
0.0052	0.0045	0	0.0045	45
0.0067	0.003	0.0007	0.0015	44.8
0.0067	0.0022	-0.0008	0.0015	44.5
0.006	0.003	-0.0008	0.0022	44.5
0.003	0.0037	0.0015	0.0037	44.3
0.003	0.0045	0.0022	0.0052	44.3
0.003	0.0037	0.0007	0.0045	44.1
0.0015	0.0037	-0.0008	0.003	43.9
0.0007	0.0045	-0.0008	-0.0008	43.9
0.0007	0.0022	0	-0.003	43.8
-0.0008	0	-0.0008	-0.0068	43.6
-0.0046	-0.0015	-0.003	-0.0083	43.6
-0.0046	0	-0.0008	-0.0105	43.3
-0.0046	-0.0008	0.0015	-0.0128	43.4
-0.0046	-0.0008	0.0022	-0.0143	43.1
-0.0015	-0.0008	0.0007	-0.0158	43.1
0.0007	-0.003	0.003	-0.006	42.9
0.003	-0.0068	0.0067	0.009	42.7
0.003	-0.0083	0.0075	0.0157	42.7
0.0037	-0.006	0.0052	0.0112	42.5
0.003	-0.006	0.0045	0.006	42.5
0.003	-0.0075	0.0052	0.009	42.2
0.003	-0.0068	0.003	0.0112	42.4
0.0007	-0.0068	0.0022	0.0015	42
-0.0008	-0.0038	0.0037	-0.0015	41.9
-0.0008	-0.0015	0.0045	-0.0068	41.8
-0.0008	0.003	0.0037	-0.0278	41.6
0.0015	0.0127	0.0015	0.003	41.6
0.0037	0.015	-0.0015	0.0412	41.3
0.0052	0.0105	-0.003	0.0172	41.3
0.0045	0.0015	-0.0015	0.0195	40.9
0.0045	-0.0023	0.0015	-0.0046	40.9
0.0007	0.003	0.009	-0.078	40.8
-0.0015	0	0.0075	-0.048	40.5
0.0007	-0.006	0.003	-0.054	40.4
-0.0008	0.0067	0.0022	-0.0405	40.2
-0.0023	-0.0098	0.0037	0.0967	40.5
-0.0015	-0.039	0.0045	-0.0091	39.8
0.0007	-0.0083	0.0037	-0.0675	40
-0.0008	-0.0046	0.003	0.0367	39.6
0	-0.0181	-0.0015	0.033	39.6
0.0022	0.0015	-0.003	0.096	39.5
0.0015	0.003	-0.003	0.0532	39.3
0.0015	0.0112	-0.0046	-0.024	39.2
0	0.0112	-0.0038	-0.0083	39.1
0.0015	0.0075	-0.0008	0.0165	39
0.0015	0.0112	0.003	0.0292	38.7
-0.003	0.0037	0.0045	-0.015	38.6
-0.0046	0.006	0.0022	-0.0158	38.5
-0.0053	0.0127	0.0007	-0.0218	38.3
-0.003	0.0217	0.0007	0.003	38.4
-0.0008	0.0187	0	0.03	38.1
0.003	0.006	-0.003	0.0292	38
0.0052	-0.012	-0.0023	0.0322	37.8
0.0052	-0.0315	-0.003	-0.0068	37.7
0.0037	-0.027	-0.0053	-0.0383	37.4
0.0037	-0.0053	-0.0053	-0.048	37.4
0.0045	0.009	-0.0075	-0.021	37
0.0052	0.0082	-0.0105	0.009	37
0.0067	0.0082	-0.0113	0.0397	36.9
0.006	0.006	-0.0105	0.0517	37
0.0082	-0.0015	-0.0091	0.027	36.5
0.0067	-0.0068	-0.0091	0.0007	36.8
0.003	-0.0098	-0.003	-0.0353	36.4
0.0015	-0.0075	0	-0.0405	36.2
0.0037	0.0067	0.0015	-0.0615	36.2
0.0052	0.0135	0.0045	-0.0458	35.9
0.0067	0.009	0	0.009	35.8
0.0067	0.0045	0	0.015	35.5
0.0067	0.0037	0.0007	0.0075	35.7
0.0052	0.0037	0.0007	0.0082	35.3
0.0022	-0.0083	0.0037	0.0262	35.3
0.0007	-0.0083	0.0007	0.0135	35.1
0.0007	-0.0008	0.0007	0.0007	35
0	0.0007	0.003	0.0067	34.7
0.0007	0.0022	0.0007	-0.0023	34.7
0.0007	0	-0.0008	0.003	34.6
-0.0015	-0.0015	-0.0023	-0.0023	34.2
0	-0.0008	-0.0023	-0.0046	34.3
0.003	-0.003	-0.0015	-0.0015	34.1
0	-0.0023	0.0015	-0.0038	34
-0.0008	-0.0008	0.0037	0.0007	33.7
0	0	0.0037	0.0015	33.8
-0.0015	-0.0008	0.0052	0.0045	33.6
-0.0046	-0.0015	0.0037	0.003	33.3
-0.003	-0.0023	0.0037	0.0015	33.3
-0.003	0	0.0037	0.0015	33.2
-0.0038	0.003	0.0022	0.003	33
-0.003	0.0045	0.0015	0.003	32.8
-0.003	0.0045	0.0015	0.0022	32.8
-0.003	0.003	0.0037	0.0037	32.7
-0.003	0.003	0.003	0.0007	32.6
-0.0015	0.0015	0.0015	0	32.2
-0.003	0.003	0.0045	-0.0015	32.3
-0.0038	0.0022	0.0045	-0.0015	32.1
-0.0053	0.0022	0.0022	-0.0023	32.1
-0.0083	0.0037	0.0022	-0.003	31.9
-0.0091	0.0045	0.0007	0	31.8
-0.0083	0.0052	-0.0023	0.0007	31.7
-0.0083	0.0045	-0.0046	0.0015	31.5
-0.0098	0.0037	-0.006	0.0007	31.5
-0.012	0.0022	-0.0015	-0.0008	31.3
-0.0128	0.0045	0.0022	0.0007	31.4
-0.0128	0.0052	-0.0015	-0.003	31.2
-0.012	0.0045	-0.0015	-0.003	31
-0.0091	0.0045	-0.0015	-0.0023	31
-0.0068	0.0045	-0.0046	-0.0015	30.7
-0.0046	0.003	-0.0038	-0.0008	30.8
0.0007	0.003	0.0007	0.0007	30.5
0.003	0.0045	0.003	0.0015	30.6
0.0045	0.0045	0.0015	0.003	30.2
0.0075	0.0052	0	0.006	30.2
0.0075	0.0045	0.0015	0.0082	30.1
0.009	0.003	0.0045	0.0082	30.1
0.0097	0.003	0.0037	0.0075	30.1
0.0112	0.0015	0.0022	0.0075	29.7
0.0105	0.0007	0.0015	0.0067	29.9
0.0105	0.0015	0.003	0.006	29.5
0.0127	0.0015	0.003	0.0052	29.6
0.0097	-0.0008	0.0007	0.003	29.4
0.0082	-0.0015	-0.0008	-0.0015	29.4
0.0052	-0.0015	-0.0053	-0.0046	29.2
0.0037	-0.0015	-0.0053	-0.0053	29.1
0.003	-0.0053	-0.0046	-0.006	28.9
0.0037	-0.0046	-0.003	-0.0038	28.9
0.003	-0.0008	-0.0008	-0.0046	28.8
0.0007	-0.0008	-0.0008	-0.0046	28.6
0.0015	-0.0015	-0.0015	-0.0046	28.6
0	-0.0008	-0.0015	-0.0046	28.5
0.0015	0.0007	-0.0008	-0.0053	28.3
0.0015	0.0015	-0.0015	-0.0053	28.3
0.003	0.003	-0.0015	-0.0015	28
0.003	0.0015	-0.0015	0.0007	28
0.0015	-0.0008	-0.003	0.0022	27.8
0.0015	-0.0015	-0.0046	0.0037	27.8
0.0015	-0.0015	-0.0068	0.0067	27.5
0.0022	-0.003	-0.003	0.009	27.6
0.0045	-0.0046	-0.003	0	27.3
0.0052	-0.003	-0.003	-0.0046	27.3
0.0037	0.0015	-0.0046	-0.0008	27.1
0.0067	0.003	-0.0046	-0.0008	27.1
0.0067	0.0052	-0.0023	0.0052	26.8
0.0052	0.0052	-0.0046	0.0195	26.9
0.0052	0.0007	-0.0053	0.027	26.5
0.0022	0.0007	-0.0046	0.0277	26.5
0.003	0.006	-0.0038	0.024	26.3
0.003	0.0082	-0.003	0.0195	26.1
0.0015	-0.0015	0.0015	-0.0075	26.1
0.0007	-0.0075	0.0067	-0.0593	25.9
-0.0015	-0.0008	0.0082	-0.0256	25.9
-0.0008	-0.0083	0.0052	0.0495	25.6
-0.0008	-0.0128	0.0045	0.0217	25.6
-0.0015	-0.0083	0.006	-0.0038	25.3
-0.0008	-0.012	0.0045	0.0007	25.3
0.0007	-0.0068	0.0022	-0.012	25.1
-0.0015	0.0007	0.0015	-0.0323	25
0.0015	0.0202	-0.0008	-0.0413	24.7
0.0015	0.033	0.0015	-0.0278	24.6
-0.0008	0.03	0.0007	-0.0465	24.6
0.0015	0.0232	-0.003	-0.0346	24.3
0.003	0.0135	-0.0046	0.003	24.3
0.0075	0.0007	-0.0046	0.0217	24.2
0.0075	-0.0165	0	0.051	23.9
0.0052	-0.0233	0.006	0.0465	23.8
0.0052	-0.039	0.0105	0.0517	23.6
0.0022	-0.0361	0.0157	0.0142	23.6
-0.0015	-0.0015	0.0187	-0.078	23.2
-0.0023	0.0067	0.018	-0.0248	23.3
-0.003	0.0082	0.012	0.0217	23
-0.0023	0.012	0.0067	-0.0008	22.9
-0.0008	0.0075	0.0045	0.003	22.7
-0.0015	0.0045	0.0015	-0.0181	22.7
-0.0023	0.0067	0.0007	0.0015	22.5
-0.0015	0.0075	-0.0015	0.003	22.3
-0.0008	0.0045	-0.0015	0	22.4
0	0.0045	-0.0053	0.009	22.2
0.0007	0.0022	-0.0091	-0.0008	22
0	0.0015	-0.0113	0.009	21.8
0.0007	0.0015	-0.0091	0.0045	21.7
0.0007	0.0007	-0.003	0.0067	21.6
0.0007	0.0015	-0.0015	0.0045	21.4
0.003	0.003	0.003	0.003	21.6
0.0052	0.0045	0.0045	0.0067	21.2
0.006	0.0037	0.0045	0.003	21.3
0.0045	0.0045	0.006	0.0045	21
0.003	0.0037	0.0045	0.0007	21
0.0022	0.0045	0.0067	0.0045	20.7
0.0015	0.006	0.0075	0.0037	20.8
0.003	0.0052	0.0082	0.0022	20.5
0.0037	0.0022	0.0067	0	20.6
0.0015	-0.0008	0.0045	-0.0008	20.3
0.0007	-0.0008	0.0045	-0.0008	20.4
-0.0008	-0.0038	0.0022	-0.0023	20.2
-0.0038	-0.0068	0.003	-0.0008	20
-0.0046	-0.0053	0.0045	-0.0015	20
-0.003	-0.003	0.0052	-0.0015	19.6
-0.003	-0.0008	0.0045	-0.0015	19.9
-0.0015	0.0007	0	-0.0008	19.6
-0.003	-0.003	0.0007	-0.0015	19.6
-0.0046	-0.003	-0.0008	-0.0038	19.3
-0.0053	-0.003	-0.003	-0.003	19.5
-0.0046	-0.0008	-0.003	-0.003	19.3
-0.0046	0.0037	-0.0008	-0.0015	19.3
-0.003	0.0037	0.0007	-0.003	19.3
-0.0008	0.0045	0.0015	-0.0038	19.2
0.0015	0.0037	0	-0.0053	19
0.003	0.0022	0.0015	-0.0046	18.8
0.0052	0.0022	-0.0015	-0.0023	18.8
0.0022	0.0022	-0.0068	-0.0008	18.7
-0.0015	0.0015	-0.0068	0.0022	18.5
-0.0015	0.0015	-0.0046	0.0037	18.6
-0.0023	0	-0.0015	0.006	18.5
-0.0015	-0.0008	0.0015	0.0052	18.5
0.003	0	0.0045	0.0067	18.2
0.0045	0	0.0007	0.0082	18.4
0.0022	-0.0015	-0.0053	0.0067	18.1
0.0007	-0.0038	-0.0008	0.0052	18.2
0.0007	-0.0023	0.0045	0.0052	17.9
0.0015	-0.0015	0.0015	0.0067	18
0.0022	0.0007	-0.0008	0.0075	17.7
0.0037	0.0037	-0.003	0.0082	17.9
0.003	0.0052	-0.0053	0.0082	17.6
0.0015	0.0052	-0.0008	0.0082	17.8
0.0015	0.003	0.003	0.0052	17.5
0.0007	0.0022	-0.0008	0.003	17.5
-0.0008	0.0015	-0.003	0.0045	17.5
0	0	-0.0053	0.0037	17.4
0	-0.0015	-0.0098	0.0015	17.3
-0.0008	-0.0023	-0.0105	-0.0015	17.3
-0.0015	-0.0015	-0.0105	-0.0023	17.3
-0.003	-0.003	-0.0105	-0.0023	17.1
-0.006	-0.0015	-0.012	-0.003	17
-0.0091	-0.003	-0.0165	-0.0038	17
-0.0068	-0.0023	-0.0218	-0.0046	16.9
-0.003	-0.0008	-0.0218	-0.0046	16.9
-0.0015	-0.0008	-0.0128	-0.0023	16.6
0.0015	0.0007	-0.0068	0.0015	16.8
0.006	0.003	-0.0023	0.0015	16.6
0.0067	0.0015	0.0015	0.0045	16.6
0.0052	0.0007	0.003	0.006	16.6
0.0052	0.0022	0.0067	0.0045	16.5
0.0007	0.003	0.0052	0.0022	16.3
-0.0008	0.003	0.003	0.0007	16.4
0.0015	0.0007	0.0007	0	16.4
0.003	0.0015	-0.003	-0.003	16.2
0.0045	0.0015	-0.0023	-0.0046	16.2
0.0015	0.0007	-0.0015	-0.003	16
0.0015	-0.0008	-0.0038	0.003	16.1
0.0007	0.0007	-0.0046	0.0045	16
0.0015	0.003	-0.0068	0.0007	15.7
0.0015	-0.0008	-0.0053	0.0015	15.8
0.0007	-0.003	-0.0046	0.0037	15.7
0.0007	-0.0053	-0.0053	0.0007	15.6
-0.0015	-0.0046	-0.0053	-0.003	15.5
-0.0015	0.0007	-0.0091	-0.0068	15.5
-0.003	0.0015	-0.0091	-0.0083	15.3
-0.003	0.0015	-0.0083	-0.0091	15.2
-0.003	0.0007	-0.0053	-0.0038	15.2
-0.0008	0.0037	-0.0015	0.0052	15.2
-0.0008	0.0067	-0.0053	0.0135	15.1
0.0015	0.0105	-0.0098	0.024	14.8
0.0015	0.0112	-0.0128	0.0315	14.9
0.0007	0.0105	-0.012	0.0345	14.7
0.003	0.0082	-0.0068	0.021	14.8
0.0022	0.0045	-0.003	-0.0046	14.6
0.0007	-0.0038	0.0037	-0.015	14.7
-0.0008	-0.012	0.0097	-0.0495	14.5
-0.0023	-0.0105	0.0127	-0.1065	14.6
-0.003	-0.0015	0.0135	-0.099	14.4
-0.0068	0.009	0.0105	-0.0578	14.3
-0.0075	0.0097	0.0097	-0.0413	14.4
-0.0091	0.012	0.012	-0.0068	14.4
-0.0105	0.0127	0.012	0.024	14.2
-0.0068	0.0067	0.0082	0.0322	14.1
-0.0038	0.0007	0.0067	0.0375	14.1
0.0007	-0.0105	0.0067	0.0105	13.9
0.0022	-0.0143	0.0037	-0.0128	14
0.003	-0.0105	0.0015	-0.0046	13.9
0.0067	-0.0053	0.0015	0.0022	13.7
0.009	-0.0023	0.0015	0.0105	13.8
0.0105	-0.0008	0.003	0.0142	13.6
0.012	0.0015	0.0067	0.0217	13.7
0.0112	0.0015	0.0067	0.0352	13.4
0.0105	0.0022	0.006	0.0442	13.7
0.009	0.003	0.0082	0.0495	13.3
0.0082	0	0.0112	0.0277	13.6
0.0082	-0.0008	0.0112	0.03	13.2
0.0067	0.0037	0.0142	0.0225	13.3
0.0045	0.0045	0.0157	-0.0105	13.2
0.0015	0.0045	0.012	0.0007	13.3
-0.0008	-0.0091	0.015	-0.0346	13.1
-0.0038	-0.0128	0.0172	-0.0623	12.9
-0.003	-0.0053	0.015	-0.0135	13.1
-0.003	-0.0015	0.0112	-0.0015	12.8
-0.003	0.0052	0.0082	0.0015	13.1
-0.0015	0.0037	0.0052	0.0097	12.7
-0.0015	0.006	-0.0023	0.003	12.8
-0.0023	0.0082	-0.0053	0.0067	12.7
-0.0038	0.0052	-0.0068	0.0022	12.6
-0.0053	0.0045	-0.0098	0.0015	12.6
-0.0053	0.0015	-0.0068	0.0007	12.5
-0.0053	0.003	-0.0046	-0.0015	12.6
-0.0046	-0.0008	-0.0046	-0.0008	12.4
-0.0053	-0.0015	-0.0053	-0.0015	12.5
-0.0053	-0.003	-0.0053	0.0007	12.5
-0.0038	-0.003	-0.0046	-0.0008	12.3
-0.0038	-0.0023	-0.0046	0	12.3
-0.0023	-0.0038	-0.0008	0.0022	12.3
-0.0015	-0.0038	-0.0008	0.003	12.2
0.0015	-0.0046	-0.0008	0.0037	12.2
0.0045	-0.0015	0.0015	0.003	12.4
0.006	-0.0015	0.0052	0.0037	12.1
0.0082	-0.0015	0.0082	0.003	12.2
0.009	0.0007	0.0052	0.0045	12.1
0.0097	0.0007	-0.0008	0.0052	12.1
0.009	0.0007	-0.0038	0.0045	12
0.0082	-0.0008	-0.0053	0.003	12.1
0.0067	-0.0008	-0.0046	0.003	11.8
0.006	0.0007	0	0.0045	12.1
0.0037	0.0007	0.0015	0.003	12
0.003	0.0015	0	0.0045	11.9
-0.0015	0.0007	-0.0015	0.0022	11.9
-0.0046	0.0007	-0.003	0.0015	11.8
-0.0038	0.0022	-0.0038	0.0007	12
-0.0038	0.0037	-0.0091	0.0007	11.7
-0.003	0.0052	-0.0083	0.0045	11.7
-0.006	0.0067	-0.0068	0.0045	11.7
-0.0075	0.0045	-0.0046	0.0045	11.7
-0.0023	0.0045	0	0.0045	11.7
0.003	0.0045	-0.0008	0.003	11.5
0.0045	0.003	0.003	0.0045	11.6
0.0045	0.0022	0.006	0.0015	11.4
0.0075	0.0015	0.0045	0.0015	11.6
0.009	0.0022	0.0022	0	11.4
0.0082	0.0015	-0.0008	-0.0008	11.6
0.009	-0.0008	0.0015	-0.0015	11.4
0.0082	-0.0015	0.003	-0.0015	11.3
0.006	-0.0015	0.0022	0.0007	11.2
0.0052	0.0007	0.0022	0.0015	11.2
0.0037	0	-0.0046	-0.0008	11.3
-0.003	0	-0.0181	-0.0023	11.1
-0.0053	0.0015	-0.0293	-0.0023	11.2
-0.006	0.0007	-0.0181	-0.0015	11
-0.0075	-0.0023	-0.0091	-0.0008	11.2
-0.0068	-0.003	-0.0091	0.0007	11
-0.0053	-0.0015	-0.003	-0.0015	11.1
-0.0053	-0.0023	0.0082	-0.003	11
-0.006	-0.0008	0.018	-0.0046	11
-0.012	0.0015	0.0142	-0.0053	11
-0.0128	0.0045	0.0165	-0.0015	11
-0.0068	0.0045	0.0202	-0.0023	10.9
-0.0008	0.003	0.009	0	11
0.0022	0.0067	-0.0015	0.0052	10.9
0.003	0.0075	0.003	0.0052	10.8
0.0045	0.0067	0.0015	0.006	10.7
0.0052	0.0082	-0.0068	0.0052	10.7
0.0052	0.0075	-0.0068	0.0067	10.7
0.009	0.0082	-0.006	0.0075	10.7
0.0127	0.0067	-0.0053	0.006	10.6
0.0142	0.0052	-0.0083	0.0052	10.5
0.0142	0.003	-0.0113	0.0052	10.4
0.0135	-0.0008	-0.0105	0.0052	10.7
0.009	-0.0023	-0.0098	0.0045	10.3
0.0045	-0.003	-0.0038	0.0022	10.7
0.0022	-0.0046	0.0045	-0.0008	10.3
0.0007	-0.0068	0.0052	-0.0046	10.7
-0.0038	-0.0083	-0.003	-0.003	10.3
-0.0075	-0.0068	-0.0053	0.0015	10.4
-0.0015	-0.0038	-0.0015	0.0022	10.4
0.0037	-0.0023	-0.0023	0.0052	10.3
0.0037	0.0007	0.0015	0.0067	10.4
0.0067	0.003	0.0045	0.0067	10.3
0.0067	0.003	0.0022	0.006	10.4
0.0052	0.003	0.0015	0.0037	10.1
0.0015	0.0022	0	0.0022	10.3
-0.0008	0.0022	0	0.0007	10.1
-0.0015	0.0022	0.0007	0.0015	10.2
-0.003	0.003	0.003	0.003	10.1
-0.0008	0.0022	0.006	0.0022	10.1
-0.0008	0.003	0.0067	0.0022	10.2
-0.0015	0.0015	0.0045	0.0045	10.1
-0.0008	-0.0015	0.0037	0.0052	10.2
0	-0.0015	0.0015	-0.0015	10.1
0.0007	0.0007	-0.0015	-0.0083	10.1
0.0007	0.0015	-0.0015	-0.006	10
0.0022	-0.0015	-0.0023	-0.0038	10.1
0.0007	-0.0053	-0.003	-0.0091	10
0	-0.006	-0.0015	-0.0143	9.9
-0.0008	-0.006	-0.0008	-0.0075	10
-0.0015	-0.006	0.0045	0.0007	9.8
-0.0015	-0.003	0.0052	0.0015	10
-0.0015	-0.0008	0.0052	-0.0015	9.9
-0.0008	0.0007	0.003	-0.0008	9.9
0	0.0007	-0.0015	0.0007	9.9
0.0022	0.0015	-0.0015	0.0015	9.8
0.0037	0.003	-0.0008	0.0075	9.7
0.0052	0.003	0.0022	0.0142	9.7
0.0052	0	0.0015	0.021	9.8
0.0045	-0.0053	-0.0015	0.033	9.5
0.0045	-0.0091	-0.0046	0.0405	9.5
0.0007	-0.0128	-0.0053	0.0345	9.5
-0.0023	-0.0135	-0.0023	0.0202	9.5
-0.0023	-0.012	0.0007	0.015	9.5
-0.0053	-0.0091	0.0052	0.009	9.4
-0.0053	-0.003	0.009	-0.0263	9.5
-0.0046	0.006	0.0105	-0.066	9.3
-0.003	0.0172	0.0127	-0.0721	9.4
-0.003	0.0195	0.015	-0.0443	9
-0.0068	0.0157	0.012	-0.0098	9.2
-0.0068	0.0097	0.0067	-0.0128	9
-0.0083	0.0007	0.006	-0.0256	9.2
-0.0105	0.0007	0.0075	-0.0233	8.8
-0.0113	0.0022	0.0097	-0.0173	9
-0.0083	0.0015	0.009	-0.003	8.8
-0.0053	0.0015	0.009	-0.0015	9
-0.0023	0.0007	0.0105	0.0022	8.8
0.0015	0.0015	0.0097	0.0082	8.9
0.0052	0.0007	0.0067	0.0067	8.8
0.006	0.0007	0.0082	0.0067	8.7
0.006	-0.0008	0.0187	0.006	8.6
0.0082	0.0015	0.0277	0.0075	8.7
0.0052	0.0037	0.0232	0.0067	8.6
0.0007	0.0015	0.0097	0.0052	8.6
-0.003	-0.0008	-0.0008	0.006	8.5
-0.0068	-0.0008	-0.0091	0.006	8.5
-0.0038	0.0022	-0.012	0.0082	8.3
0.0007	0.003	-0.0023	0.0082	8.5
0.003	0.0022	0	0.009	8.3
0.0045	0.0022	0.0015	0.009	8.6
0.0052	0.0007	0.0067	0.009	8.2
0.0045	0.0007	-0.0015	0.0082	8.4
0.0022	0	-0.0068	0.0075	8.2
0.0045	0.0015	-0.0046	0.0075	8.2
0.0045	0.003	-0.0091	0.009	8.4
0.006	0.0045	-0.0158	0.0097	8.1
0.0067	0.0045	-0.0203	0.0082	8.3
0.0052	0.0045	-0.0233	0.0067	8.1
0.0067	0.0037	-0.0218	0.0052	8.4
0.0052	0.003	-0.024	0.0067	8.1
0.0045	0.0015	-0.0278	0.0067	8.2
0.0052	0.0022	-0.024	0.0045	8
0.003	0.0007	-0.0188	0.0015	8.3
0.0022	-0.0008	-0.0135	0	8.1
0.0022	-0.0015	-0.0105	-0.0023	8.1
0.0067	-0.0023	-0.012	-0.0015	8.1
0.0075	-0.0023	-0.0113	-0.0008	8.1
0.003	-0.003	-0.0075	-0.0008	8.2
0.003	-0.0038	-0.0015	-0.003	8.2
0.006	-0.0015	0.0007	-0.003	8.2
0.0105	0.0007	-0.003	-0.003	8.1
0.0112	0	-0.0128	-0.0015	8.1
0.009	-0.0008	-0.0195	-0.0015	8.1
0.009	-0.0008	-0.012	-0.0008	8.2
0.009	0.0015	-0.0083	0	8.2
0.003	0.003	-0.0128	0.0022	8
-0.0038	0.003	-0.0113	0.003	8.1
-0.0098	0.0022	-0.012	0.0022	7.8
-0.0128	0.003	-0.0105	0.0022	8.2
-0.0181	0.003	0	0.0007	8.1
-0.0173	0.0015	0.0127	0.0015	8.2
-0.006	0.0015	0.0255	0.0007	7.9
0.0015	0.003	0.018	0.0045	8.1
0.0082	0.0045	0.0097	0.0082	8.1
0.006	0.006	0.0075	0.0067	8.1
0.0015	0.0082	0.0045	0.0067	8.1
-0.003	0.0067	0.0082	0.006	8
-0.0053	0.006	0.0105	0.0082	8
-0.003	0.006	0.0045	0.012	8
0	0.0022	0.0015	0.009	8
0.0045	0.0015	0.0045	0.0097	7.8
0.0075	-0.0015	0.0052	0.0105	8.1
0.0067	-0.0038	-0.0008	0.0052	7.8
0.009	-0.0015	-0.0113	0.0135	7.8
0.0105	0.0007	-0.012	0.012	7.8
0.012	0.0007	-0.0075	-0.0098	7.7
0.0075	-0.0015	-0.0068	-0.0323	7.7
0.0022	0.0015	0.0015	-0.0511	7.6
0.0007	0.0022	0.0082	-0.0593	7.7
-0.0015	0.0045	0.009	-0.0375	7.6
-0.0038	0.0037	0.0105	-0.0083	7.6
-0.0105	-0.0015	0.0127	-0.0113	7.6
-0.0091	-0.0038	0.0135	-0.003	7.6
-0.003	-0.0068	0.009	0.0112	7.6
-0.0053	-0.0083	0.0007	0.0142	7.4
-0.0083	-0.0091	-0.0015	0.0127	7.5
-0.0083	-0.0046	0.003	0.0037	7.2
-0.0068	0.0007	0.0067	0.0067	7.4
-0.0015	0.0015	0.0045	0.0082	7.1
-0.0008	0.0007	0.0015	0.0067	7.2
-0.003	-0.0008	0.0015	0.0037	6.9
-0.003	-0.0015	0.0015	0.0022	7.2
-0.0053	-0.0015	0.0007	0.0037	6.9
-0.0046	-0.0023	-0.003	0.003	6.9
-0.0046	0	0	0.0052	6.8
-0.0046	0.0007	0.0045	0.0082	6.8
-0.0046	0.0007	0.0052	0.0142	6.7
-0.0046	0.0007	0.0112	0.0172	6.7
-0.0038	-0.0015	0.0165	0.0217	6.5
-0.0023	0	0.0165	0.0232	6.4
0.003	0.003	0.0142	0.0195	6.5
0.0052	0.0022	0.0127	0.0142	6.4
0.0082	0	0.0135	-0.0053	6.4
0.0112	-0.0023	0.012	-0.0315	6.3
0.0105	-0.0015	0.0127	-0.0308	6.1
0.012	0	0.012	-0.0263	6.1
0.009	0.0007	0.0067	-0.0458	5.8
0.0082	0.003	0	-0.0248	6.1
0.0067	0.0082	-0.0046	0.0045	5.9
0.0022	0.0052	-0.0046	-0.0008	5.9
0	0.003	-0.0083	0.0037	5.7
-0.0046	0.003	-0.0105	0.0067	5.9
-0.0068	0.0022	-0.0015	0.009	5.7
-0.0015	0.003	-0.0008	0.0082	5.7
0.0037	0.0045	-0.0015	0.0082	5.7
0.0067	0.0052	-0.0015	0.012	5.6
0.0052	0.003	-0.003	0.0105	5.8
0.0022	-0.0015	-0.0023	0.0105	5.5
0.003	-0.006	-0.003	0.0045	5.7
0.003	-0.0046	-0.0046	0.0007	5.4
0.0045	0.0007	-0.0068	-0.0008	5.7
0.0045	0.0045	-0.0075	0.0007	5.4
0.006	0.0052	-0.0083	0.003	5.5
0.0067	0.0067	-0.0068	0.0037	5.3
0.0067	0.0082	-0.0068	0.0045	5.4
0.0082	0.0067	-0.0091	0.0007	5.4
0.0067	0.0037	-0.012	0.0022	5.3
0.0052	0.0022	-0.0128	0.009	5.3
0.0045	-0.0008	-0.0068	0.0045	5.4
0.0045	-0.0008	-0.003	-0.0008	5.4
0.003	0.0007	-0.0015	0.0007	5.4
0.003	0.003	-0.0038	0.0007	5.3
0.003	0.003	-0.0083	-0.0046	5.4
-0.0015	-0.0015	-0.0113	-0.0075	5.3
-0.0023	-0.0038	-0.0143	-0.0105	5.4
-0.0023	-0.0023	-0.012	-0.0098	5.3
-0.006	-0.0038	-0.0083	-0.0068	5.3
-0.0113	-0.0083	-0.0083	-0.0068	5.3
-0.0165	-0.012	-0.0068	-0.0075	5.4
-0.0143	-0.012	-0.0046	-0.0053	5.5
-0.0113	-0.0083	0.0007	0.0015	5.5
-0.0075	0.0015	0.0007	0.0067	5.5
-0.0046	0.003	0.0037	0.0082	5.5
-0.0083	0.0007	0.006	0.0067	5.4
-0.0091	-0.0008	-0.0008	0.0067	5.4
-0.0053	-0.0008	0.0015	0.0045	5.3
-0.0038	-0.0008	0.0015	0.0007	5.4
-0.0046	0.0015	-0.003	0	5.3
-0.0046	0.0052	-0.0008	0.0007	5.3
-0.0038	0.0045	0.0015	0.0007	5.3
-0.0015	0.0052	0.003	0.0007	5.3
-0.0008	0.0052	0.0037	0.0007	5.2
-0.0015	0.0037	0.0007	0.0015	5.3
-0.003	0.0045	-0.0015	0.003	5
-0.003	0.0037	0	0.003	5.3
-0.0046	0.0045	0	0.0015	4.9
-0.0038	0.0052	-0.0046	0.0015	5
-0.006	0.0037	-0.0046	0.0007	4.9
-0.0075	0.0015	-0.0053	-0.0015	5
-0.0053	0.0007	-0.0008	-0.0008	4.7
-0.003	-0.0008	0.0075	-0.0008	4.9
-0.0015	-0.0015	0.0127	-0.003	4.9
-0.0015	-0.0015	0.0165	-0.0046	4.8
0.0007	-0.0008	0.0157	-0.0008	4.9
0.0067	0.0037	0.0142	0.0022	4.7
0.0112	0.0045	0.0052	0.003	4.9
0.0082	0.0045	0	0.0037	4.7
0.0045	0.003	0.0015	0.003	4.8
0.0022	0.0007	0	0.0045	4.5
0.0045	-0.0008	0.003	0.0045	4.9
0.0105	-0.0008	0.0045	0.003	4.4
0.0105	-0.0015	0.0022	0.0045	4.6
0.0112	-0.0023	-0.0008	0.003	4.5
0.012	-0.0023	0	0.0015	4.5
0.0112	-0.0015	0.0037	0.003	4.6
0.009	0.0007	0.0052	0.0015	4.4
0.009	0.003	-0.003	0.0015	4.4
0.0097	0.0045	-0.0068	0.003	4.5
0.009	0.0052	-0.0053	0.003	4.5
0.006	0.0045	-0.0038	0.0052	4.3
0.0022	-0.0008	-0.0023	0.0067	4.4
-0.0008	-0.0015	-0.0023	0.0082	4.4
0.0022	-0.0015	0.0067	0.0082	4.1
0.0037	-0.0023	0.0135	0.0075	4.5
0.006	-0.0023	0.0052	0.0052	4.1
0.0075	-0.0015	-0.0053	0.0037	4.4
0.0067	-0.0015	-0.0053	0.0045	4.2
0.0105	0	-0.0008	0.0022	4.5
0.012	0.0015	0.0007	0.0007	4.1
0.009	-0.0008	-0.0008	0.0007	4.3
0.006	-0.0015	-0.012	-0.0008	4
0.0015	-0.0015	-0.0173	0	4.3
-0.0015	-0.0015	-0.0091	-0.0008	4.1
-0.0023	-0.0008	0.0045	0.0015	4.2
-0.0023	0.0015	0.0105	0.003	4.1
-0.0015	0.0022	0.0037	0.003	4.1
-0.0015	0.0037	-0.0068	0.0015	4.2
-0.0046	0.003	-0.0158	-0.0053	4
-0.0068	-0.0015	-0.012	-0.0105	4.3
-0.0075	-0.003	-0.0083	-0.0105	3.9
-0.0046	-0.0038	-0.0053	-0.0105	4.4
-0.0008	-0.0068	-0.003	-0.0128	4
0.0007	-0.0068	-0.0038	-0.0113	4.1
-0.0008	-0.0053	-0.0023	-0.0046	4
-0.0008	-0.0038	-0.0015	0.0052	4.1
0.0007	-0.0023	-0.0046	0.0112	4
0.0015	0.0022	-0.0015	0.015	4
0.003	0.0075	0.0007	0.0202	4.1
0.003	0.0052	-0.0015	0.0187	3.9
0.0007	0.0045	-0.0068	0.0052	3.9
-0.0015	0.0045	-0.0105	-0.0068	3.9
-0.003	0.0045	-0.0105	-0.0188	3.9
-0.0008	0.006	-0.0075	-0.0308	3.8
-0.0038	0.0007	-0.003	-0.0375	3.8
-0.0098	-0.0046	0.003	-0.0308	3.8
-0.0113	-0.0068	0.003	-0.021	3.8
-0.0098	-0.0068	0	-0.0165	3.9
-0.0105	0.0007	0.0007	-0.0075	3.7
-0.0128	0.0037	0.0007	-0.0053	3.8
-0.012	0.0037	0.006	-0.0015	3.6
-0.0053	0.0052	0.009	0.0052	3.7
0.0007	0.0075	0.0045	0.0105	3.8
0.003	0.0082	-0.0015	0.0165	3.6
0.0007	0.0052	-0.0075	0.0157	3.5
0	0.003	-0.012	0.0165	3.6
0.0007	-0.0015	-0.0075	0.0082	3.6
0.003	-0.003	-0.0068	-0.0046	3.4
0.0045	-0.0008	-0.0098	-0.003	3.4
0.003	-0.0008	-0.0091	0.0045	3.4
0.0007	-0.0008	-0.0068	-0.0008	3.5
-0.003	-0.0015	-0.0053	-0.0068	3.5
-0.0068	0	-0.0023	-0.0046	3.6
-0.0068	-0.0023	0.0022	-0.0015	3.3
-0.0083	-0.003	0.0082	0.0007	3.5
-0.0075	-0.0046	0.0067	0.0022	3.3
-0.0008	-0.0015	0.003	0.0075	3.3
0.0007	0.0015	0.0045	0.0082	3.4
0.0015	0.003	0.006	0.0067	3.3
0.0067	0.006	0.0045	0.0082	3.2
0.0082	0.0052	0.0037	0.0075	3.1
0.0075	0.0045	0	0.009	3.2
0.0015	0.0015	-0.0023	0.009	3.2
0.0015	0.0037	0	0.009	3.2
0.003	0.0052	-0.0008	0.0097	3.2
0.0045	0.0015	-0.0008	0.0097	3.1
0.0045	0.0007	0.0007	0.0105	3.2
0.0007	-0.0015	-0.0008	0.009	3.1
-0.0038	-0.0015	-0.0008	0.009	3.3
-0.0038	0.0007	-0.0015	0.0082	3
-0.0008	0.0015	0.0007	0.0067	3.1
0.0022	0.003	0.003	0.0045	2.8
0.0045	0.003	0.0015	0.0022	3.1
0.0067	0.0015	0.0052	0	2.9
0.006	0.0007	0.0067	0.0007	3.1
0.0015	0.0015	0.0067	0.003	3
-0.0015	0.0015	0.0052	0.003	3
-0.0068	0.0015	0.0015	0.003	2.9
-0.006	0.0015	0.006	0.0052	2.9
-0.003	0.003	0.0067	0.0052	2.8
-0.0008	0.0045	0.006	0.0045	2.8
0.0045	0.0015	-0.0008	0.0045	2.9
0.0037	0.0007	-0.0008	0.0015	2.7
0.0007	0.0007	0.009	-0.0015	3
0.0037	0.0007	0.0105	-0.003	2.6
0.006	0.0022	0.0082	-0.003	2.7
0.0045	0.003	0.003	-0.0008	2.8
0.0022	0.003	-0.0015	0.0015	2.6
0.003	0.003	0	0.0015	2.7
0.009	0.0052	-0.003	0.0007	2.6
0.0142	0.0082	-0.0008	0.0007	2.6
0.0127	0.0052	0.003	-0.0023	2.6
0.0105	0.0022	0.0015	-0.0053	2.7
0.0052	-0.0008	0.0015	-0.0083	2.4
0.0015	-0.0038	0.0015	-0.0098	2.5
0.0015	-0.0046	0.0007	-0.0105	2.6
-0.0008	-0.0046	-0.0046	-0.0105	2.4
-0.0008	-0.0053	-0.0143	-0.0105	2.5
0.0007	-0.006	-0.0181	-0.012	2.2
0.003	-0.0068	-0.0098	-0.012	2.5
0.0045	-0.0053	-0.003	-0.0068	2.3
0.0015	-0.0046	0.003	-0.0046	2.6
-0.003	-0.0053	0.0067	-0.0046	2.3
-0.0098	-0.0046	0.0127	-0.0038	2.4
-0.0105	-0.0015	0.018	0.0015	2.4
-0.0068	0.0015	0.0165	0.0052	2.4
-0.0008	0.003	0.0165	0.0052	2.4
0.0007	0.0045	0.0082	0.006	2.4
-0.003	0.006	-0.0023	0.0075	2.3
0.003	0.009	-0.0068	0.0097	2.3
0.012	0.0105	-0.0128	0.0127	2.2
0.0157	0.0067	-0.0091	0.0112	2.2
0.0142	0.0052	0.0007	0.009	2.2
0.0127	0.0052	0.009	0.0082	2.3
0.0112	0.0037	0.0082	0.0052	2.3
0.0067	0.0007	0.003	0.003	2.1
0.0037	-0.0015	0.0075	0.003	2.2
0.0045	0	0.0105	0.0015	2.2
0.0067	-0.0008	0.0015	0.0015	2.2
0.0015	-0.003	-0.015	0.0015	2
-0.0038	-0.0068	-0.0218	-0.003	2.1
-0.0068	-0.0091	-0.0195	-0.003	2.1
-0.0068	-0.0068	-0.0173	0.0007	2
-0.0008	-0.0046	-0.012	0	2.1
0.0015	-0.0038	-0.0046	-0.0023	2
-0.0015	-0.003	0.0052	-0.0046	2.1
-0.0075	0	0.018	-0.003	2.1
-0.0105	0.0022	0.0277	0.0015	2.1
-0.0038	0.0045	0.0397	0.0022	2
0.0015	0.003	0.0405	-0.0015	1.9
0.003	0.003	0.0277	-0.0046	2
0.0015	0.0045	0.0165	-0.0046	2
0.0015	0.003	0.0135	-0.0038	2.1
0.0045	0.0045	0.0105	0.0007	2
0.006	0.0052	-0.003	0.0022	2
0.0052	0.0067	-0.0075	0	1.8
0.0015	0.006	-0.0091	0.0007	1.9
-0.0038	0.0037	-0.0091	-0.0008	1.9
-0.0068	0	-0.003	-0.003	1.8
-0.0091	-0.0008	-0.0075	-0.0046	1.8
-0.0083	0.0007	-0.0105	-0.0038	1.8
-0.0091	0.0015	-0.0105	-0.0008	1.8
-0.0068	-0.0008	-0.0083	0.003	1.6
-0.0046	-0.0008	-0.0091	0.006	1.7
-0.0023	0.0007	-0.0135	0.003	1.8
0.0007	0.0015	-0.0105	-0.0053	1.8
-0.0015	-0.0008	-0.0113	-0.0083	1.7
-0.0015	-0.0023	-0.015	-0.006	1.7
-0.0015	-0.0008	-0.0181	-0.0068	1.7
-0.0046	-0.0015	-0.0218	-0.003	1.5
-0.0053	-0.0023	-0.0195	-0.0015	1.8
-0.003	-0.0015	-0.0158	-0.0046	1.5
-0.003	-0.003	-0.012	-0.0053	1.8
-0.0038	-0.003	-0.0068	-0.006	1.6
-0.0046	0	-0.003	-0.0046	1.8
-0.0023	0.0007	-0.003	-0.0023	1.6
-0.003	0.003	0.003	-0.0015	1.8
-0.0015	0.0067	0.0127	-0.0008	1.5
0.0015	0.0067	0.0172	0	1.5
0.003	0.0075	0.0112	0.0015	1.8
0.006	0.0067	0.0022	0.0015	1.6
0.0045	0.0052	0.0007	0.0015	1.7
0.0075	0.0052	0.003	0.0045	1.5
0.0097	0.0052	0.0007	0.0067	1.7
0.009	0.0015	0.0007	0.0052	1.5
0.0067	-0.0046	0.003	0.0045	1.7
0.0037	-0.0075	0.0015	0.0007	1.4
0.0022	-0.0068	-0.0008	0.0022	1.5
0.0015	-0.0008	-0.003	0.006	1.6
0.0052	0.0022	-0.0046	0.0067	1.5
0.0052	0.0015	-0.0075	0.0082	1.5
0.006	0.003	-0.0075	0.009	1.5
0.0067	0.0007	-0.0038	0.0105	1.7
0.0075	0.0007	-0.003	0.012	1.3
0.0067	-0.0008	0.0007	0.0142	1.5
0.0015	-0.0015	0.003	0.0165	1.6
-0.0023	-0.003	0.0052	0.015	1.5
-0.0046	-0.0053	0.0045	0.0127	1.6
-0.0038	-0.003	0.012	0.0127	1.3
0.0037	0.0015	0.0202	0.0127	1.5
0.003	0.0045	0.0195	0.0067	1.3
-0.0023	0.003	0.0135	-0.0015	1.3
-0.0038	0.0045	0.0112	-0.006	1.3
0	0.0075	0.0105	-0.003	1.6
0.0037	0.009	0.003	-0.0008	1.3
0.0015	0.0097	0.0037	-0.0053	1.3
0.0022	0.0067	0.006	-0.0083	1.2
0.0015	0.0052	0.0067	-0.0105	1.5
0.0007	0.0067	0.0075	-0.012	1.2
0.0015	0.0052	0.0007	-0.0075	1.4
0.003	0.0052	-0.0008	-0.0046	1.5
0.003	-0.0015	0.0045	-0.0053	1.3
0.0007	-0.006	0.0052	-0.0068	1.2
-0.0023	-0.0053	0.0067	-0.0075	1.2
-0.003	-0.0083	0.0105	-0.0091	1.3
-0.006	-0.0083	0.0127	-0.0053	1.1
-0.0098	-0.0105	0.0105	-0.0015	1.3
-0.0098	-0.0083	0.0045	0	1.2
-0.015	-0.0068	0.0007	0.003	1.3
-0.0135	-0.006	-0.0053	0.006	1.1
-0.0053	-0.0008	-0.0075	0.0082	1.3
0.0052	0.003	-0.0046	0.0105	1.2
0.009	0	-0.0015	0.0097	1.2
0.0075	-0.0015	-0.0068	0.012	1.1
0.0097	0.0015	-0.0105	0.0097	1
0.0082	-0.0008	-0.0091	0.009	1.2
0.0105	0	-0.006	0.0112	1
0.0127	0.0007	-0.0105	0.0105	0.9
0.0105	0.0007	-0.0128	0.0105	0.9
0.0082	0.003	-0.0068	0.009	0.9
0.003	0.003	-0.0038	0.0067	1.1
0.0015	0.0045	-0.0008	0.0067	1.1
0.0015	0.0045	-0.003	0.0037	1
0.0015	0.0045	-0.0105	-0.0008	0.8
0.0007	0.003	-0.0091	-0.003	1
-0.003	0.003	-0.0083	-0.0068	0.7
-0.0008	0.0015	-0.0091	-0.0091	0.9
-0.0008	-0.0008	-0.0068	-0.0128	0.8
-0.0015	-0.0015	-0.0015	-0.0128	1
-0.0038	-0.003	-0.0023	-0.0098	0.9
-0.0015	-0.003	-0.006	-0.0068	1
-0.0008	0	-0.0091	-0.003	0.7
-0.0038	0.0007	-0.0068	-0.0015	0.9
-0.0105	0.0007	0	0.0007	0.9
-0.012	0.0022	0.003	0.0015	0.9
-0.012	0.0037	0.0067	0.0045	0.8
-0.0128	0.003	0.0112	0.0067	0.7
-0.0128	0.0022	0.012	0.009	0.8
-0.0038	0.0015	0.009	0.0105	0.9
0.0067	0.003	0.003	0.0097	0.9
0.012	0.009	-0.0068	0.0105	0.6
0.0135	0.0112	-0.0105	0.0052	0.8
0.0082	0.012	-0.0068	0.0007	0.8
0.0037	0.012	-0.006	-0.0068	0.7
-0.0008	0.0075	-0.0068	-0.0181	0.8
-0.0008	0.0045	-0.0053	-0.0165	0.7
0	0.003	-0.0053	-0.0046	0.9
0.0007	-0.0015	-0.0015	-0.0015	0.7
0.003	-0.006	0.0015	-0.0046	0.7
0.0022	-0.006	0.006	-0.003	0.7
0.0007	-0.0053	0.009	-0.0068	0.8
-0.0008	-0.0068	0.0052	-0.0075	0.8
-0.0015	-0.006	-0.0008	-0.006	0.8
-0.0038	-0.0068	-0.0023	-0.0083	0.8
-0.0015	-0.0068	-0.0053	-0.0046	0.6
0.0007	-0.006	-0.012	-0.0105	0.7
0.0037	-0.0015	-0.012	-0.0195	0.5
0.0037	-0.0008	-0.0083	-0.0165	0.8
0.0045	0.0007	-0.0053	-0.0046	0.4
0.006	0.0037	-0.003	0.0007	0.8
0.0007	0.0022	-0.003	0.0022	0.6
-0.0015	0	-0.0038	0.0052	0.9
-0.003	-0.0008	0.0007	0.0067	0.6
-0.0053	-0.0008	0.0082	0.009	0.8
-0.0098	0.0007	0.0142	0.0045	0.7
-0.0113	0.0067	0.0127	0.0105	0.8
-0.0053	0.012	0.0112	0.018	0.7
0.0007	0.0105	0.0112	0.012	0.5
0.0007	0.0082	0.012	0.0105	0.7
0.003	0.0067	0.012	0.0067	0.4
0.003	0.003	-0.0008	-0.0023	0.7
0.0022	0.0045	-0.0091	-0.0015	0.4
0.006	0	-0.0068	0.0097	0.5
0.0075	-0.0083	-0.0046	0.0105	0.5
0.0097	-0.0105	-0.0038	0.0045	0.7
0.0075	-0.012	-0.0046	0.0022	0.6
0.0052	-0.0128	-0.006	-0.0053	0.5
0.0045	-0.012	-0.0068	-0.0158	0.5
0.0022	-0.0068	-0.0083	-0.0075	0.3
0.0037	-0.0015	-0.0083	0.006	0.5
0.0037	-0.0008	-0.0068	0.006	0.5
0.003	0.0015	-0.0038	0.0067	0.5
0.0015	0.0007	0.003	0.003	0.7
0.003	0.0022	0.0007	-0.003	0.4
0.0037	0.0052	-0.0008	-0.0015	0.5
0.0045	0.009	-0.0008	0.0037	0.4
0.0037	0.0067	0	0.009	0.5
-0.0008	0.0045	0.0037	0.012	0.5
-0.0083	0.003	0.003	0.0105	0.5
-0.012	0.003	0.003	0.0067	0.4
-0.0083	0.0045	-0.003	0.009	0.6
0.0015	0.0067	-0.003	0.0075	0.3
0.009	0.0052	-0.0015	0.003	0.6
0.0022	0.0022	-0.0023	0.0037	0.3
-0.0038	0.0007	0	0.0007	0.6
-0.0075	0.0015	0.0007	-0.0015	0.3
-0.0091	0	0.0052	-0.006	0.6
-0.0098	-0.0038	0.0067	-0.0053	0.5
-0.0046	-0.0023	0.0082	-0.0008	0.4
0.0007	-0.0008	0.0105	0	0.4
0.0007	-0.0008	0.009	0.0052	0.2
0.0037	-0.0015	0.0037	0.003	0.7
0.0045	-0.0053	0.0015	0.0022	0.4
0.0052	-0.0038	-0.0008	0.0067	0.6
0.006	-0.0015	-0.0075	0.0067	0.4
0.006	0.0007	-0.012	0.006	0.4
0.006	0	-0.0083	0.0067	0.3
0.006	0	0.0022	0.0052	0.4
0.0045	0.0015	0.0052	0.003	0.5
0	0.0015	0.0022	-0.0023	0.4
-0.0038	0.0045	0.0015	-0.012	0.4
-0.0015	0.0067	0.0045	-0.0165	0.2
0.0022	0.0067	0.0082	-0.003	0.4
0.0007	0.0067	0.0007	0.0022	0.4
-0.0008	0.0045	-0.0053	-0.0068	0.4
0.0015	0.0015	-0.0068	-0.0091	0.4
0.0022	0.003	-0.0075	-0.0098	0.4
-0.0015	0.0052	-0.012	-0.0023	0.3
0.0015	0.0052	-0.0083	0.0015	0.4
0.0067	0.0015	0.0045	-0.0008	0.3
0.0037	-0.0038	0.0052	-0.0068	0.3
0.0022	-0.0046	0.0105	-0.0181	0.4
0.003	0.0007	0.0217	-0.012	0.2
0.0037	0.0045	0.0195	0.003	0.4
0.0067	0.0045	0.0127	0.0052	0.4
0.0067	0.003	0.009	0.0082	0.5
0.009	0.003	0.0075	0.0082	0.3
0.0052	0.0007	0.003	0.0067	0.4
0.0022	-0.0008	-0.0068	0.0067	0.3
0.0015	-0.0008	-0.0113	0.0052	0.4
0.0007	0.0007	-0.012	0.0007	0.3
0.0015	0.0007	-0.0105	-0.0083	0.3
-0.0008	-0.0008	-0.006	-0.0128	0.5
-0.0053	0	-0.006	-0.0038	0.2
-0.0053	0.0007	-0.0023	0.006	0.4
-0.003	0.0015	0.0045	0.0067	0.4
0.006	0.0007	0.009	0.0082	0.5
0.0097	0.0007	0.0142	0.012	0.4
0.0097	0.0037	0.0157	0.0142	0.5
0.0082	0.003	0.012	0.009	0.3
0.0015	0.0015	0.0052	0.0052	0.4
-0.0008	0.0022	-0.0113	0.012	0.4
-0.003	0	-0.0165	0.018	0.1
-0.0046	-0.0046	-0.012	0.0157	0.4
-0.0053	-0.003	-0.0091	0.0112	0.4
-0.0053	0.0007	-0.0046	0.009	0.4
-0.003	0.0007	-0.003	0.0142	0.5
-0.0046	-0.0046	0.0007	0.027	0.3
-0.003	-0.0083	0.0022	0.009	0.5
-0.0046	-0.012	0.0037	-0.0428	0.4
-0.0068	-0.0091	0.0075	-0.0615	0.4
-0.0038	-0.0008	0.0067	-0.027	0.4
-0.0015	0	0.009	-0.0113	0.6
-0.0046	0.0007	0.0135	-0.0353	0.2
-0.0068	0.0067	0.0067	-0.033	0.6
-0.0046	0.0195	-0.0008	-0.0173	0.1
0.0007	0.0247	-0.0091	-0.0083	0.4
0	0.0157	-0.0091	0.0105	0.3
0	0.009	-0.0068	0.018	0.4
0.0022	0.0045	-0.0083	0.0165	0.2
0.0052	-0.0008	-0.0083	0.0157	0.2
0.0082	-0.0023	-0.006	0.0135	0.4
0.0105	-0.0038	-0.0046	0.0165	0.5
0.0097	-0.003	-0.0023	0.015	0.4
0.0052	-0.0046	0.0022	0.0112	0.4
0.0045	-0.0075	0.0052	0.009	0.4
0.003	-0.0075	0.009	0.006	0.4
0.0007	-0.0083	0.0135	0.0045	0.4
-0.0008	-0.0068	0.0082	-0.0015	0.4
-0.003	-0.0046	0.003	-0.003	0.3
-0.0038	-0.0008	-0.0008	-0.0015	0.4
-0.0038	0.0015	-0.0053	0.0007	0.4
-0.003	0.0007	-0.0053	-0.0015	0.4
-0.0015	0	-0.006	-0.0038	0.2
-0.0008	0.0007	-0.0128	0	0.6
-0.0023	0.0037	-0.0203	0.0015	0.3
-0.003	0.0037	-0.0195	0.0015	0.2
-0.0023	0.0015	-0.015	0.0007	0.4
-0.0038	0.003	-0.0068	-0.0008	0.4
-0.003	0	0.0045	-0.0015	0.4
0.0007	-0.0015	0.0045	-0.0008	0.2
0.003	-0.003	0.0045	-0.0015	0.4
0.0022	-0.0053	0.009	-0.0023	0.2
0.003	-0.0046	0.0157	0.0015	0.4
-0.0008	-0.003	0.0142	0.0045	0.2
-0.0023	-0.003	0.0052	0.0067	0.4
-0.0038	-0.003	-0.0008	0.0075	0.1
-0.0038	0	-0.0053	0.0075	0.4
-0.0015	0.0007	-0.0015	0.0075	0.4
0	-0.0008	0.0037	0.006	0.4
0.0022	0.0007	0.0112	0.0037	0.3
0.0045	0.003	0.0112	0.0037	0.4
0.009	0.0037	0.0067	0.0045	0.3
0.0105	0.0045	0.0045	0.0022	0.4
0.0067	0.0045	0.0045	0.003	0.3
0.0037	0.0045	0.0022	0.0022	0.2
0.0007	0.0052	-0.0015	-0.0008	0.4
-0.003	0.0045	-0.0053	-0.003	0.1
-0.0068	0.0022	-0.0098	-0.0075	0.4
-0.0091	0.0015	-0.0113	-0.0083	0.2
-0.0053	0.0015	-0.0135	-0.0068	0.3
0.0037	0.0007	-0.0068	-0.0046	0.3
0.009	0	0.003	-0.003	0.3
0.009	0.0007	0.0022	0.0007	0.4
0.0052	0.0022	0.0022	0.0022	0.3
0.0015	0.0022	0.0067	0.0007	0.4
0.003	0.003	0.0142	0.0015	0.2
0.0045	0.003	0.0157	0.003	0.5
0.003	0.0015	0.0097	0.006	0.2
0.0022	-0.0015	0.009	0.0052	0.3
0	-0.0023	0.0037	0.0045	0.4
-0.0046	-0.0008	-0.0023	0.0052	0.3
-0.003	0.0007	-0.0053	0.0045	0.4
-0.0023	0.0015	-0.012	0.0037	0.1
-0.0053	0.003	-0.0075	0.0007	0.3
-0.0023	0.0052	-0.0053	0	0.2
-0.0008	0.0045	-0.0046	0	0.4
-0.0008	0.0037	-0.006	-0.0015	0.2
0	0.0015	-0.0068	-0.003	0.4
-0.0008	-0.003	-0.0038	-0.0046	0.1
0.003	-0.0068	-0.0038	-0.0075	0.4
0.0037	-0.0083	-0.0023	-0.0053	0.3
0.0067	-0.0053	-0.0008	0.0045	0.3
0.0052	-0.0008	-0.003	0.0067	0.2
0.0037	0.0045	-0.0046	0.0067	0.2
0.0007	0.006	-0.0053	0.0052	0.4
-0.0023	0.0015	-0.0038	0	0.3
-0.0008	0.0015	0.003	-0.006	0.2
-0.0008	0.0007	0.009	-0.0233	0.4
0.0045	0	0.0052	-0.033	0.4
0.0045	0.003	0	-0.0135	0.4
0.003	0.0007	0	0.0007	0.3
0	-0.003	0.0045	-0.0015	0.4
-0.0008	0.0015	0.006	0.0015	0.3
0.0007	0.0037	0.0007	0.0015	0.4
-0.0008	0.0052	-0.0038	-0.0068	0.3
-0.0015	0.0082	-0.0046	-0.0218	0.5
-0.0023	0.003	-0.003	-0.0203	0.3
-0.003	0	-0.0008	-0.0015	0.4
-0.0038	-0.0008	0.0045	0.0015	0.3
-0.0008	-0.0015	0.0052	-0.003	0.3
0.0007	-0.0023	0.0045	-0.0015	0.2
0	-0.0046	0.0045	0.0015	0.4
0.0015	-0.003	0.0015	0.0045	0.4
0.0015	-0.0015	-0.0046	0.009	0.2
0.0015	-0.0008	-0.0098	0.0157	0.4
0.0007	0.0045	-0.0091	0.015	0.1
0.003	0.0052	-0.0091	0.0142	0.3
0.0045	0.0052	-0.0075	0.0127	0.1
0.0045	0.003	-0.006	0.0082	0.4
0.006	0.0015	-0.0053	0.0052	0
0.0082	0.003	-0.0038	0.003	0.4
0.0105	0.0045	-0.0046	0.0052	0.1
0.0075	0.0052	-0.0015	0.0067	0.3
0.0052	0.0037	0.0037	0.0082	0.2
0.0022	0.0037	0.0045	0.012	0.3
-0.0008	0.0037	0.0052	0.0157	0.2
-0.0008	0.0045	0.0045	0.018	0.3
-0.003	0.003	0.006	0.0195	0.2
-0.0015	-0.003	0.0067	0.0112	0.1
0	-0.003	0.0037	-0.0023	0.3
-0.0038	-0.0008	0.0022	-0.0091	0.1
-0.0068	0.0015	0.0015	-0.0165	0.2
-0.0046	0.0052	0.0015	-0.0233	0.2
-0.0038	0.0045	0.0037	-0.0143	0.2
-0.0046	0	0.0022	-0.0015	0.3
-0.0068	-0.0008	-0.003	0	0
-0.0068	-0.0015	-0.0008	0.0052	0.3
-0.0038	-0.0015	0.0052	0.0075	0.1
-0.0023	-0.003	0.0045	0.0045	0.4
-0.0038	-0.003	0.0045	0.0067	-0.1
-0.0015	-0.0015	0.0037	0.0045	0.3
0.0007	-0.0023	0.0052	0.006	0.2
0.0007	-0.0038	0.009	0.0067	0.1
0.0037	-0.003	0.0037	0.003	0.1
0.0052	-0.0023	-0.0053	-0.0046	0
0.0082	-0.0015	-0.0068	-0.0135	0.1
0.0082	-0.0015	-0.0015	-0.0068	-0.2
0.0097	-0.003	-0.0015	-0.0008	0.3
0.0105	-0.0046	-0.0046	-0.0128	-0.1
0.0082	-0.0046	-0.0091	-0.0158	0.1
0.0067	-0.0008	-0.0091	0.0007	-0.2
0.006	0	-0.0046	0.0067	0.2
0.0045	-0.0038	-0.0015	0.0052	0
0.0007	0.0015	0.0015	0.0105	0.1
-0.0015	0.003	0.0052	0.009	0
-0.0008	0.0007	0.0075	0.0075	0.1
-0.0015	0.0007	0.0082	0.006	0
-0.0008	-0.0008	0.0157	0.0052	0
0.0015	-0.0008	0.0187	0.0075	0.1
-0.0008	0.0015	0.0142	0.0067	0.1
-0.0008	0.0045	0.015	0.003	-0.1
0	0.0037	0.0135	-0.0083	0
-0.0008	0.0037	0.0097	-0.0181	0
-0.0008	0.0052	0.0037	-0.0233	0
-0.0008	0.0052	-0.0008	-0.0233	0
-0.0038	0.006	-0.0046	-0.0046	0.1
-0.0046	0.0045	-0.0068	0.0067	-0.1
-0.0038	0.0022	-0.0046	0.0045	0
-0.0046	0.0045	-0.006	0.0105	0
-0.0015	0.0037	-0.0083	0.012	-0.1
-0.0015	0.0045	-0.0128	0.0112	-0.1
0.0007	0.0052	-0.0143	0.009	0.1
0.0007	0.0052	-0.0135	0.0142	-0.2
0.003	0.0037	-0.0105	0.0202	-0.1
0.0037	-0.0008	-0.003	0.0165	0
0.0007	-0.0008	0.0007	0.0135	0
0.0007	0.0022	0.0007	0.0202	0
-0.0008	0.003	-0.0015	0.0262	0
-0.0008	0.0007	-0.0068	0.0165	0
0.003	-0.0015	-0.0068	0.0045	-0.1
0.0067	-0.003	-0.0046	-0.0075	0.2
0.0067	-0.003	-0.0068	-0.0315	-0.2
0.0067	0	-0.0083	-0.0585	0
0.006	0.0037	-0.0046	-0.0405	0
0.0045	0.003	-0.0038	-0.0053	0.1
0.003	-0.0008	-0.0008	-0.0068	0
-0.0023	0	0.0045	-0.0075	0
-0.0046	-0.0015	0.0052	-0.0015	0
-0.0053	-0.003	0.006	0.0007	-0.1
-0.0091	-0.0008	0.0037	0.003	0
-0.0128	-0.0008	0.0015	0.0015	0.1
-0.006	-0.0046	0.0045	0.0015	0
0.0007	-0.0075	0.0045	-0.0015	0.2
0.0037	-0.003	-0.0008	0	0.1
0.0052	0.0015	0.0007	0.003	0
0.0082	0.0022	0.0007	0.003	0.1
0.0052	0.003	-0.003	0.0067	0
0.0007	0.0015	-0.0046	0.0082	0.1
-0.003	0	-0.0023	0.009	0.4
-0.0015	0.0007	0.0015	0.012	0
0.0015	0.0007	0	0.0142	0.2
0.0015	0.0015	0.003	0.0142	0
0.003	0.0015	0.0007	0.0097	0.3
0.003	-0.0008	0.0015	0.0045	0
0.0022	-0.0015	0.0007	-0.003	0.2
0.0045	0.0007	-0.0046	0.0007	0.1
0.006	0.0007	-0.0068	0.0052	0
0.0045	-0.0015	-0.0113	0.0022	0.1
0.0037	-0.0015	-0.0075	0.0067	0
0.0015	-0.0015	-0.006	0.0127	0.1
-0.0008	0.0015	-0.0053	0.0112	-0.1
-0.0015	0.003	-0.0023	0.0105	0.3
-0.003	0.003	0.003	-0.0046	0
-0.0083	0.003	0.0082	-0.024	0.2
-0.0068	0.003	0.009	-0.0405	0
-0.003	0.0052	0.015	-0.0293	0.1
0.0007	0.0015	0.0172	-0.0098	0.2
0.0045	-0.0008	0.0127	-0.0053	0.1
0.0045	0.0045	0.0082	0.0045	0.2
0.003	0.0067	0.0007	0.0082	0.1
0.0007	0.0067	-0.003	0.0105	0.4
-0.0008	0.0052	-0.003	0.0127	0.1
-0.0008	0.0015	-0.0038	0.0082	0.2
-0.003	0.0007	-0.0023	0.009	0.2
-0.0068	0.0015	-0.0015	0.0067	0.1
-0.0075	0	-0.0015	0.0045	0.3
-0.0068	-0.0015	-0.0046	0.0052	0.2
-0.0038	-0.0015	-0.0038	0.0045	0.4
-0.0008	-0.003	-0.0046	-0.003	0.1
-0.0008	-0.003	-0.0091	-0.0128	0.1
0.0007	-0.003	-0.012	-0.0105	0
0.0015	-0.0015	-0.0143	0.0015	0.2
0.0007	0.0007	-0.0128	0.0082	0
0.0007	0.003	-0.0113	0.0142	0.3
0.0015	0.0067	-0.0105	0.0217	0
0.0015	0.0067	-0.0068	0.024	0.3
0.003	0.0045	-0.0053	0.0277	0
0.0045	0.0015	-0.0053	0.0262	0.2
0.0045	-0.0038	-0.0015	0.021	0.2
0.0052	-0.012	0.0045	0.0067	0.2
0.0015	-0.0135	0.006	-0.0091	0.2
-0.0015	-0.0105	0.0075	-0.0091	0.1
-0.0008	-0.0091	0.0105	-0.0195	0.4
-0.0008	-0.0091	0.0105	-0.039	0.1
-0.0015	-0.0038	0.0097	-0.0503	0.4
-0.0046	0.0045	0.0067	-0.0323	0.1
-0.003	0.0082	0.006	-0.0046	0.4
-0.0008	0.0075	0.0075	-0.0053	0.1
-0.0008	0.0105	0.003	-0.006	0.3
0	0.0082	0.003	-0.0308	0.1
0.0015	0.0052	0.0105	-0.0293	0.3
0.003	0.009	0.009	0.0082	0.1
0.003	0.0082	0.009	0.012	0.2
0.0045	0.0022	0.0097	0.0195	0.1
0.0022	0.0022	0.0067	0.0225	0.1
0.0007	0.0022	0.0045	0.0225	0.1
0.0007	0.0015	-0.0015	0.027	0.2
-0.0008	0.0022	-0.0068	0.0217	0.1
-0.0008	0.003	-0.006	0.018	0.3
0.0007	0	-0.003	-0.0015	0.2
-0.0008	-0.0015	0.003	-0.0256	0.2
-0.0008	-0.0008	0.0022	-0.0188	0.2
0.0007	-0.0023	0.0015	-0.003	0.2
0.0022	-0.0038	0.0052	-0.0158	0.1
0.0045	-0.0038	0.003	-0.0165	0.2
0.0045	-0.0023	-0.0015	-0.003	0.1
0.006	-0.0023	-0.0008	0	0.3
0.0067	-0.003	0.0015	0.0067	0.1
0.0067	-0.0015	0	0.0105	0.1
0.0067	0.0015	0.003	0.0082	0.2
0.0067	0.003	0.003	0.0015	0.2
0.0045	0.0052	-0.0046	0.0015	0.2
0.0007	0.0067	-0.0068	0.0075	0.1
0	0.0067	-0.0075	0.006	0.2
0.0007	0.0082	-0.0023	0.0052	0.1
-0.0015	0.0082	-0.0015	0.0052	0.2
-0.0023	0.006	-0.0068	0.003	0.1
-0.0023	0.0007	-0.0038	0.0022	0.2
-0.0023	-0.0023	-0.0015	0.003	0.2
-0.0008	-0.0015	-0.0015	0.003	0
0.0015	-0.0046	-0.0015	0.003	0.4
0.0022	-0.003	-0.0015	0.0037	0.1
0.003	-0.0046	0.0007	0.003	0.3
0.0045	-0.0046	0.0007	0.0045	0
0.006	-0.0015	-0.0038	0.003	0.2
0.0045	-0.0008	-0.0053	0.003	0.2
0.0015	0.0007	-0.0015	0.0037	0.2
-0.0008	0.0015	-0.0015	0.0022	0.3
-0.0015	0.0022	0	0.003	0.1
-0.0023	0.003	0	0.0045	0.3
-0.0015	0.0045	-0.0083	0.0067	0
0.0022	0.0067	-0.0053	0.0052	0.3
0.0045	0.003	0.0015	0.0045	0.1
0.0022	-0.0008	0.003	0.003	0.4
-0.0015	-0.0023	0.0045	0.0022	0.1
-0.003	-0.0046	0.0067	0.003	0.3
-0.0015	-0.0038	0.0075	0.0015	0.1
-0.0008	-0.0046	0.0052	-0.0008	0.2
-0.0008	-0.0008	0.0037	0.0007	0.1
0.0007	0.0015	-0.0008	-0.0015	0.3
0.0007	-0.0015	-0.003	-0.0015	0.4
-0.0008	0.003	-0.0015	0.0022	0.2
-0.003	0.0015	0.0015	0.0052	0.4
-0.003	0.0015	0.0015	0.0052	0.3
-0.0023	0	0.0007	0.0022	0.3
-0.0008	-0.0023	0.0015	0	0.1
-0.0008	-0.0015	0.0045	-0.0008	0.3
-0.0015	-0.0008	0.0022	-0.003	0.3
-0.0015	0.003	-0.0008	-0.0038	0.3
-0.003	0.0067	-0.0023	-0.012	0.2
-0.0015	0.0082	-0.0046	-0.0165	0.2
-0.0023	0.0135	-0.0053	-0.006	0.3
-0.0008	0.015	-0.0046	0.0045	0.2
0	0.009	-0.0008	0.0045	0.4
-0.0015	0.0067	0.003	0.0022	0.2
0.0007	0.003	0.0037	0.0045	0.4
0.0022	-0.0015	0.0037	0.0082	0.1
0.003	-0.0023	0.0007	0.012	0.3
0.003	-0.003	0	0.0112	0.2
0.0022	-0.0015	-0.0008	0.0105	0.4
0.0022	-0.0053	-0.0008	0.0105	0.3
0.003	-0.0091	0.0022	0.0067	0.2
0.0045	-0.0143	0.0037	-0.0128	0.4
0.003	-0.0165	0.0045	-0.0293	0.2
0.0022	-0.0181	0.0037	-0.0346	0.4
0.0015	-0.015	0.003	-0.0346	0.2
0	-0.0091	0.006	-0.024	0.4
-0.0008	-0.0046	0.0067	-0.012	0.3
-0.0015	0.0022	0.0007	-0.0008	0.4
-0.0015	0.0082	0	0.0127	0.2
-0.0015	0.0082	0	0.0202	0.4
-0.0008	0.0075	-0.0008	0.0195	0.3
-0.0038	0.0075	-0.0046	0.0187	0.4
-0.003	0.0082	-0.0053	0.0225	0.2
-0.0008	0.0067	-0.0053	0.024	0.3
0.0007	0.0067	-0.0083	0.027	0.3
0.0015	0.0075	-0.0091	0.027	0.4
0.0007	0.0075	-0.0068	0.0255	0.4
0.003	0.0082	-0.0023	0.0097	0.2
0.0015	0.0075	-0.0008	-0.0143	0.4
-0.0008	0.009	0.0022	-0.0256	0.4
0.0007	0.0067	0.0052	-0.024	0.3
0	0.0052	0.0075	-0.0225	0.4
0	0.0052	0.0105	-0.0315	0.3
0.0007	0.0052	0.0112	-0.027	0.4
0.0007	0.0037	0.0127	-0.0046	0.4
0.0007	-0.0038	0.009	-0.006	0.4
0.0007	-0.0068	0.003	-0.0143	0.3
0.0007	-0.0046	-0.0008	-0.0046	0.4
0.003	0.0007	-0.003	0.0075	0.3
0.006	-0.0008	-0.0023	0.0105	0.3
0.0052	-0.0015	-0.0015	0.009	0.4
0.003	-0.0015	-0.0008	0.0135	0.4
0.003	-0.0023	0	0.0127	0.4
0.0045	-0.0008	0.0007	0.015	0.4
0.0045	-0.0008	0.0022	0.0142	0.4
0.0015	0.0045	0.0015	0.012	0.2
-0.0015	0.0052	0.0007	0.0142	0.4
-0.0015	0.0007	0.0015	0.0127	0.3
-0.0008	-0.0053	0.0015	0.0007	0.5
0.0007	-0.0091	0.0007	-0.0105	0.5
0	-0.0038	-0.003	-0.0075	0.3
0.0007	0	-0.0068	-0.0015	0.5
0.0022	-0.0008	-0.0046	0.0045	0.5
0.0045	-0.0015	-0.0038	-0.003	0.4
0.0045	-0.0023	-0.006	-0.0053	0.4
0.006	-0.0046	-0.006	-0.0008	0.4
0.0052	-0.0015	-0.0053	-0.0098	0.4
0.0015	0.003	-0.0008	-0.0053	0.5
0.0015	0.006	0.0037	0.006	0.5
0.0015	0.0045	0.0075	0.0082	0.4
0.0007	0.0045	0.006	0.0112	0.5
-0.0008	0.0045	0.0022	0.0067	0.4
0.0015	0.0007	0.003	0.003	0.6
0.0007	-0.0008	0.0022	-0.0075	0.4
-0.0015	0.003	0	-0.0053	0.6
0.0007	0.0052	-0.0046	-0.0008	0.4
0.0007	0.0052	-0.0053	-0.006	0.6
0.0007	0.0067	-0.0023	-0.0015	0.4
0.0022	0.0045	-0.0023	-0.0015	0.6
0.003	0.003	-0.0008	0.0022	0.4
0.003	0.0007	0	0.0067	0.4
0.003	-0.0015	0.0015	0.0097	0.5
0.0037	-0.0008	0.0015	0.0142	0.7
0.003	-0.0015	0.0037	0.0135	0.5
0.0015	-0.0008	0.0045	0.0112	0.5
-0.0008	0.0007	0.0015	0.009	0.7
0	0.003	0.0015	0.0067	0.5
0.0007	0.0022	-0.003	-0.012	0.6
-0.0015	0.003	-0.0046	-0.0308	0.6
-0.0008	0.0075	-0.0023	-0.012	0.7
0.0015	0.0097	-0.0008	0.0112	0.7
0.0037	0.009	-0.0015	0.009	0.5
0.0015	0.0045	-0.0053	0.0112	0.6
0.0015	0.0015	-0.0068	0.0052	0.4
0	-0.003	-0.0053	-0.003	0.7
-0.003	-0.0091	-0.003	-0.0091	0.6
-0.0046	-0.0105	-0.0015	-0.0225	0.6
-0.003	-0.0083	0.0037	-0.0158	0.7
-0.0053	-0.0091	0.003	-0.0233	0.6
-0.0083	-0.0105	0	-0.0293	0.7
-0.0083	-0.0091	0.0022	-0.0218	0.7
-0.0083	-0.0046	0.0015	-0.0233	0.8
-0.0075	-0.0015	-0.0008	-0.0053	0.8
-0.0038	-0.0015	-0.0008	-0.0008	0.8
-0.0015	0	-0.0015	0.0045	0.6
-0.0023	0	0.0007	0.009	0.8
-0.0008	0.0015	0.0007	0.0037	0.4
-0.0015	0.0022	0.0015	0.0067	0.9
-0.0015	0.0007	0.0052	0.0022	0.6
-0.003	0	0.009	0.0037	0.9
-0.0015	0.0015	0.0112	-0.0008	0.6
-0.0008	0.0015	0.009	-0.003	0.9
-0.0008	0.0045	0.009	0.0052	0.9
-0.0008	0.003	0.0067	0.0105	0.9
0.0007	0.0015	0.003	0.0165	0.9
0.0007	0.003	0.0015	0.0202	0.8
0.0015	0.006	-0.0015	0.0232	0.9
0.0037	0.0067	-0.0038	0.0202	0.7
0.003	0.0052	-0.0038	0.0232	0.9
0.003	0.0045	-0.0046	0.0247	0.7
0.0045	0.003	-0.0053	0.0217	1
0.0052	0.0007	-0.0053	0.0067	0.7
0.0052	-0.0008	-0.0053	-0.012	1
0.006	-0.0008	-0.0068	-0.0165	0.7
0.0067	0	-0.0046	-0.0113	0.9
0.006	0.0037	-0.0053	0.003	0.8
0.0067	0.0067	-0.0083	0.006	0.9
0.0052	0.0022	-0.0068	-0.0128	0.9
0.0052	0.0007	-0.0038	-0.0165	0.9
0.0045	0.0015	-0.0008	-0.0158	0.9
0.0007	-0.003	-0.0008	-0.0165	0.8
0	-0.0068	-0.0068	-0.0083	0.9
-0.0008	-0.0053	-0.0091	-0.0083	0.8
0.0015	-0.006	-0.0068	0.003	0.9
0.0015	-0.0046	-0.0053	0.0165	0.9
0.0007	-0.0015	-0.0038	0.009	1
0	-0.0008	-0.0008	0.0127	0.9
0	0.003	-0.0008	0.0262	1
-0.0008	0.0067	0.0015	0.0232	1.1
-0.0023	0.0067	0.0045	0.0202	1.1
0	0.0097	0.0052	0.0232	1.2
0.003	0.0105	0.0022	0.0105	0.9
0.0045	0.0082	0.0022	-0.0015	1
0.0037	0.009	0.003	0.0082	0.9
0.003	0.0067	0.0045	-0.006	1
0	0.003	0.003	-0.024	0.9
0.0007	-0.0015	0	0.0007	1.1
0.003	-0.0105	-0.0046	-0.0015	1
0.0015	-0.0128	-0.0075	-0.0361	0.9
0.0022	-0.0091	-0.0053	-0.0346	1
0	-0.0091	-0.003	-0.012	0.9
0.0007	-0.0053	-0.0015	0.0007	1.1
0.003	-0.0046	-0.0015	0.006	1.1
0.0007	-0.0053	0.0007	0.0067	1.3
-0.0015	-0.0038	0.003	0.0015	1.1
-0.003	-0.0023	0.0015	-0.0046	1.3
-0.0038	0.0007	0.0045	-0.0098	0.9
-0.003	0.0045	0.0067	-0.0015	1.1
0.0007	0.006	0.0045	0.0045	1.1
0	0.0082	0.003	0.0015	1.1
0.0022	0.0075	0.0082	0.009	1.2
0.0022	0.0045	0.009	0.015	1.1
-0.0008	0.0022	0.0105	0.0165	1.1
-0.0015	0.003	0.0112	0.0157	1.2
-0.003	0.003	0.009	0.012	1.3
-0.0038	0.003	0.0082	0.0112	1.1
-0.006	0.0007	0.0067	0	1.3
-0.006	0.0007	0.003	-0.012	1.1
-0.0053	-0.0015	-0.0023	-0.0143	1.2
-0.0053	0.0007	-0.003	-0.0046	1.2
-0.0038	0.0022	-0.0046	-0.0113	1.1
-0.003	0.0015	-0.0075	-0.0361	1.2
-0.0015	0.0037	-0.0038	-0.0225	1.1
-0.0015	0.003	0	0.0052	1.4
0	0.003	0.0045	0.0112	1.1
0.0045	0.0007	0.0052	0.012	1.3
0.0037	0.0015	0.0037	0.0105	1.1
0.003	0	0.0045	0.0015	1.3
0.0007	-0.0015	0.0067	-0.0181	1.3
-0.0015	-0.0015	0.0067	-0.0181	1.3
0.0037	-0.0008	0.0045	0.0015	1.3
0.009	0.0007	0.0015	0.0007	1.1
0.0105	-0.0015	-0.0015	-0.006	1.3
0.0067	-0.0015	-0.0023	0	1.3
0.0052	0.0007	0	0.0075	1.5
0.0045	0.0015	-0.0008	0.0112	1.3
0.0015	0	-0.0008	0.009	1.4
-0.0008	0.0022	0.0007	0.0097	1.3
0.0007	0.003	-0.0008	0.0105	1.5
0.0022	0.003	-0.0008	0.012	1.4
0.0015	0.003	-0.0023	0.0127	1.5
0.0022	0.0015	-0.0038	0.0105	1.4
0.0007	0.0015	-0.0008	0.012	1.5
0.0007	0.003	0	0.0165	1.4
0	0.003	0.003	0.0217	1.3
-0.0015	0	0.0015	0.0217	1.5
-0.0015	-0.0008	-0.0015	0.024	1.5
-0.0015	0	-0.0038	0.0307	1.6
-0.0015	-0.003	-0.0046	0.0352	1.4
-0.0015	-0.0091	-0.0038	0.0225	1.5
-0.0015	-0.0143	-0.003	-0.024	1.5
-0.003	-0.0083	-0.003	-0.0615	1.5
-0.0046	-0.0015	-0.0068	-0.0608	1.5
-0.0046	0.0037	-0.0091	-0.0593	1.4
-0.0046	0.009	-0.0075	-0.0383	1.6
-0.0008	0.0052	-0.0053	-0.0008	1.5
0.0007	0.003	-0.0023	0.0015	1.7
-0.0008	-0.0008	-0.0015	-0.003	1.5
-0.0015	-0.0008	0	-0.0091	1.7
-0.0008	0.0037	0.0022	-0.0091	1.7
-0.0015	-0.003	0.0022	0.0007	1.8
-0.0015	-0.0068	0.0022	-0.006	1.7
-0.003	-0.0015	0.0007	-0.0008	1.6
0	0.003	0.003	0.0015	1.8
0.003	0.0067	0.0007	-0.0091	1.8
0.0015	0.009	-0.0008	0.0022	1.9
0.0037	0.0082	0	0.0157	1.6
0.003	0.0067	-0.0008	0.012	2
0.003	0.0052	0	0.0067	1.7
0.0022	0.0045	-0.0008	0.012	1.9
0.0015	-0.0008	-0.0015	0.012	1.8
0.0022	-0.0068	-0.003	0.006	2
0.003	-0.006	-0.0046	0.012	1.8
0.0015	-0.0046	-0.0046	0.0165	2.1
0.0007	-0.0046	-0.0053	0.015	1.9
0.0007	0.0015	-0.0083	0.0187	2
0.0015	0.0037	-0.0068	0.0165	2
0.0007	0.0007	-0.0015	0.012	2
0.0015	0.0015	0.0007	-0.0053	2.1
0.0007	0.0045	0.0045	-0.0143	2
-0.0015	0.0067	0.0105	-0.0015	2.1
-0.0015	0.0045	0.012	-0.0075	2.1
-0.0015	0.0037	0.0082	-0.0165	2.2
0.0007	0.006	0.009	-0.015	2.1
0.0007	0.006	0.0075	-0.0075	2.2
0	0.003	0.0037	-0.0015	2.3
0.0015	0.0015	0.0037	0	2.3
0.0007	0.0015	0.0067	0.0037	2.4
0.0015	0.003	0.009	0.003	2.2
0.003	0.0067	0.0045	0.0067	2.4
0.0037	0.0052	-0.0008	0.0052	2.4
0.0045	0.0045	-0.0046	0.0045	2.3
0.006	0.0007	-0.003	0.003	2.4
0.0067	-0.0015	-0.0023	0.003	2.3
0.009	-0.0015	-0.0015	0.003	2.5
0.0082	-0.0038	-0.0015	0.0007	2.4
0.006	-0.0038	-0.0046	0.0045	2.4
0.0045	-0.0046	-0.0038	0.0045	2.4
0.003	-0.0038	-0.0046	0.0067	2.5
0.003	-0.0053	-0.0075	0.0082	2.4
0.0037	-0.0053	-0.0068	0.0082	2.6
0.003	-0.003	-0.0046	0.0105	2.5
0.0037	-0.0023	-0.0023	0.009	2.6
0.0022	-0.0008	0.0007	0.0082	2.6
0.003	0.0007	0.0045	0.0045	2.6
0.003	0.0015	0.0067	-0.0053	2.6
0.0007	0.0015	0.0075	-0.0173	2.7
-0.0008	0.0022	0.006	-0.0173	2.7
0.0007	0.0045	0.0052	-0.0008	2.8
0.0007	0.0037	0.0007	0.0067	2.6
-0.0008	0.0015	0.0007	0.0067	2.6
0.0007	-0.0015	0.0045	0	3
-0.0008	-0.0046	0.0045	-0.0046	2.7
-0.003	-0.0015	0.003	0.0082	3
-0.0015	-0.0015	0.0015	0.018	2.8
-0.003	-0.0008	0.0015	0.0255	2.7
-0.0046	0.0022	0.0007	0.0292	3
-0.0046	0.0022	0.0007	0.0255	2.8
-0.0053	0.0037	-0.0008	0.024	3
-0.0046	0.0037	-0.003	0.018	2.9
-0.0053	0.0022	-0.0008	-0.0113	3
-0.0038	-0.0008	-0.0008	-0.0706	3
-0.003	-0.0008	-0.0015	-0.0938	3.1
-0.0038	0.0007	-0.0008	-0.042	3
-0.0046	-0.0008	-0.0023	0.0007	3.1
-0.0038	-0.0015	-0.0015	0.0082	3.1
-0.0046	-0.0008	0	-0.003	2.9
-0.0038	0.0045	0	-0.0128	3.2
-0.0015	0.0052	0.0007	0.003	3.1
-0.0015	0.0007	0.003	0.0022	3.4
-0.0023	-0.0023	0.0015	-0.0143	3.1
-0.003	0.003	0.003	-0.0315	3.4
-0.0015	0.012	0.0022	-0.0158	3
-0.0008	0.0157	0.0007	0.0165	3.3
-0.0023	0.0157	0.0007	0.012	3.1
-0.0015	0.0105	0.0015	0.021	3.4
0.0007	0.0015	0	0.024	3.3
0.0007	-0.003	-0.0015	0.027	3.4
0.0022	-0.0098	-0.0008	0.042	3.2
0.003	-0.0083	0.0015	0.0165	3.3
0	-0.0046	0.0015	-0.024	3.3
-0.0023	-0.0008	-0.0015	-0.0428	3.3
-0.0015	0.0067	-0.0068	-0.0105	3.4
0	0.003	-0.0091	0.024	3.2
0.003	-0.0046	-0.003	0.003	3.6
0.0015	-0.0181	0.0007	-0.0188	3.3
0.0015	-0.0218	-0.0008	-0.0158	3.6
0.0045	-0.006	-0.0015	-0.0225	3.5
0.0067	0.003	-0.0008	-0.0195	3.6
0.006	0.0037	-0.0046	0.0037	3.5
0.0067	0.0052	-0.0053	0.0067	3.6
0.0067	0.0045	-0.003	0.0127	3.6
0.0067	0.0015	-0.0053	0.0157	3.6
0.0052	0.0022	-0.0053	0.0105	3.7
0.0045	0.003	-0.0038	0.0127	3.6
0.0045	0.0022	-0.003	0.0067	3.7
0.0022	0.003	-0.003	0.0112	3.8
-0.0015	0.0082	-0.0038	0.0112	3.8
0.0037	0.0105	-0.0008	0.0105	3.9
0.0067	0.0097	-0.0015	0.0112	3.8
0.0022	0.0082	-0.003	0.0082	3.9
0.0007	0.0082	0.0015	0.0097	3.8
-0.0015	0.0082	0.0045	0.0082	4.1
-0.003	0.0045	0.0015	0.0105	3.8
-0.003	0.003	0.0015	0.0105	4.1
-0.0023	0.003	0	0.0112	3.9
0	0.0007	0	0.0105	4.2
0.0007	-0.0008	0.0015	0.0097	4.1
0.003	-0.0015	0.003	0.0105	4.3
0.0015	-0.0023	0.0007	-0.0008	4.1
0.0022	-0.0008	-0.0053	-0.0128	4.2
0.0007	-0.003	-0.0091	-0.0105	4.1
-0.0015	-0.0068	-0.0083	-0.0135	4.2
-0.003	-0.006	-0.0046	-0.0248	4.4
-0.0015	-0.0015	-0.0008	-0.012	4.4
-0.0008	0.0015	0	0.0105	4.7
0.0007	0.0022	0.003	0.012	4.4
-0.0008	0.0037	0.003	0.0105	4.6
-0.0023	0.0015	0.0015	0.012	4.4
-0.0015	0.0022	0.0022	0.0165	4.7
-0.003	0.0015	0.0007	0.015	4.4
-0.003	-0.0046	0.0015	0.0082	4.9
-0.0046	-0.0038	0	0.0187	4.6
-0.0046	-0.0053	-0.003	0.0285	4.9
-0.0038	-0.012	-0.003	0.0127	4.8
-0.0015	-0.015	-0.003	-0.0068	4.9
-0.0008	-0.0143	-0.0046	-0.0248	4.9
-0.0008	-0.0098	-0.0038	-0.0361	4.9
-0.0008	-0.0068	-0.006	-0.0195	4.9
-0.0008	-0.0046	-0.0091	-0.0173	4.9
0.0015	0.003	-0.0083	-0.0203	5
0	0.0142	-0.0053	0.006	5.1
0.0015	0.0172	-0.0083	0.027	5.1
0.0015	0.0142	-0.0113	0.018	5.3
0.0037	0.0105	-0.012	0.009	5.2
0.0037	-0.0038	-0.0128	-0.012	5.3
0.0007	-0.0083	-0.0075	-0.054	5.3
0.0007	-0.0053	-0.0046	-0.0525	5.5
-0.0023	-0.0046	-0.0015	-0.0181	5.3
-0.003	-0.0053	0	0.0067	5.4
-0.003	0.0007	0.0022	0.0142	5.5
-0.0046	0.012	0.0082	0.0082	5.7
-0.0068	0.0157	0.0105	0.0015	5.6
-0.0091	0.0142	0.0082	-0.0203	5.6
-0.0083	0.0052	0.0045	-0.03	5.5
-0.0053	-0.0091	-0.0015	-0.0083	5.7
