File Name: sentado.log
Channel 4: 'Recto Femoral', 25258 values, engineering units: mV, no filters.
Channel 5: 'Biceps Femoral', 25258 values, engineering units: mV, no filters.
Channel 6: 'Vasto Medial', 25258 values, engineering units: mV, no filters.
Channel 7: 'EMG Semitendinoso', 25258 values, engineering units: mV, no filters.
Channel 8: 'Flexo-Extension', 25258 values, engineering units: deg, no filters.

0.0007	0.0015	-0.0008	0.0045	77.8
0.0045	0.0037	-0.0068	0.0052	77.7
0.0067	0.0045	-0.0046	0.003	78
0.0045	0.0045	-0.0015	0.0015	77.7
0.0037	0.003	0.0007	0.0015	77.9
0.006	0.0007	0.0007	0.0007	77.4
0.0052	0.003	0.0007	0	78
0.0022	0.003	0.003	0.0007	77.7
0.0015	0.0007	0.0015	0.0007	77.9
0.0022	-0.0015	0.003	-0.0008	77.6
0.0015	-0.0015	0.0022	0.0007	77.9
0.003	-0.0015	0.0015	0.0007	77.7
0.0045	-0.0015	0	-0.0008	77.8
0.003	-0.0015	-0.0015	0.0007	77.8
0.0045	-0.0008	-0.0015	0.0015	77.7
0.0037	0.0007	-0.0053	0.0015	77.8
0.0022	0.0015	-0.0053	-0.0015	77.8
0.0052	0	-0.0046	-0.003	77.6
0.0052	-0.0008	-0.0053	-0.003	77.9
0.003	-0.0008	-0.0046	-0.0053	77.7
0.003	-0.0015	-0.0053	-0.0046	78
0.0022	-0.003	-0.0015	-0.0046	77.6
0.0015	-0.003	-0.0008	-0.0046	77.8
0.0007	-0.003	0.003	-0.0038	77.6
-0.0008	-0.0015	0.006	-0.0046	78
-0.0015	0.0007	0.003	-0.0046	77.7
-0.003	0.0007	0	-0.0015	77.8
-0.0023	0.0007	-0.0008	-0.0008	77.8
-0.003	0.0022	0	0	77.7
-0.003	0.0022	0.0022	0.0015	77.8
-0.0038	0.003	0.0045	0.003	77.7
-0.0008	0.0037	0.006	0.0015	77.9
0.003	0.0015	0.0067	0.0015	77.8
0.0037	-0.0008	0.0052	-0.0008	77.8
0.003	0.0007	0.0052	-0.0008	77.8
0.0037	0.003	0.0067	0.0007	77.8
0.003	0.0052	0.0052	0.0015	77.7
0.0007	0.0045	0.003	0.0022	77.9
0.0015	0.003	0.0007	0.003	77.7
0.0007	0.003	0.0015	0.0015	77.8
0.0007	0.0037	0.0022	0.003	77.6
0.0022	0.0045	0.0007	0.0045	77.9
0.0015	0.0045	-0.0008	0.0045	77.8
0.0007	0.0052	-0.0023	0.0045	77.8
0.0015	0.0052	-0.003	0.003	78
0.0015	0.0045	-0.0008	0.0015	77.7
-0.0015	0.003	-0.0008	0.0015	77.9
-0.0008	0.0037	0.0007	0.0037	77.9
0.0015	0.0045	0.0007	0.0037	78
0.0007	0.0022	-0.0015	0.0022	77.9
-0.0015	0.0022	-0.0015	0.0015	77.9
-0.0015	0.0007	-0.003	0.0007	77.9
-0.0015	-0.0008	-0.003	0.003	77.9
-0.0015	-0.0015	-0.0015	0.003	77.8
-0.0015	-0.0015	-0.0038	0.003	78
-0.0008	-0.0008	-0.0038	0.0045	77.7
-0.0008	0	-0.0015	0.003	78
0	-0.0015	-0.0038	0.0022	77.8
0.0015	-0.0008	-0.003	0.0015	78
0.003	0.0007	-0.0023	0.0007	78.2
0.003	0.0007	-0.003	0.0007	77.8
0.0007	-0.0015	-0.003	0.0007	78.2
0.0007	-0.0015	-0.0015	0.0007	77.9
0	-0.0015	-0.0008	-0.0008	77.9
0	-0.0008	0.0007	-0.0015	77.9
-0.0008	-0.0008	0.0022	-0.0015	78
0	-0.0015	0.0037	-0.0038	78.1
0.0022	-0.0008	0.003	-0.003	77.9
0.0045	-0.0015	0.0015	-0.003	78
0.0037	-0.0015	0.003	-0.003	78
0.0045	0.0007	0.0007	0	78
0.006	0.0015	-0.0023	-0.0008	78
0.0045	0.0022	-0.0038	0.0007	78.2
0.0037	0.0022	-0.003	0.0022	78
-0.0015	0.0022	0.0007	0.0015	78.1
-0.0053	0.0015	0.003	0.0015	77.9
-0.006	0.003	0.0045	0.0037	78.1
-0.0053	0.0022	0.0037	0.0052	77.9
-0.0046	0.0015	0.0045	0.0045	78
-0.0038	0	0.0052	0.0022	78.2
-0.003	-0.0023	0.0075	0.0015	78
-0.0008	-0.003	0.0067	0.0022	77.9
0	-0.0023	0.0045	0.0037	78.1
-0.0008	-0.0015	0.003	0.0045	77.9
0.0007	0	0.0007	0.0045	78.2
0.0015	0	-0.0015	0.0022	77.9
0.0022	0	-0.0046	-0.0015	78.3
0.003	0	-0.0053	-0.0008	78
0.0015	-0.0023	-0.0046	-0.0008	78.1
0.0007	-0.0023	-0.0068	0	78
0.0007	-0.0038	-0.0068	0.0007	78
0.0022	-0.003	-0.006	-0.0015	78
0.0015	-0.0038	-0.006	-0.0008	78
0.0015	-0.0038	-0.0046	0	78.1
0.0007	-0.0015	-0.003	0.0022	78.1
0.0022	-0.0015	-0.0038	0.0037	78.2
0.003	0	-0.0046	0.003	78.2
0.0045	0.0007	-0.006	0.0015	78
0.0067	0.0022	-0.0091	0.0015	78
0.0052	0.0015	-0.0091	0.0037	78.1
0.0052	0.0022	-0.0075	0.0045	78
0.0067	0.003	-0.006	0.0052	78.1
0.003	0.0007	-0.003	0.003	78
0.0037	0.0015	-0.0023	0.0015	78
0.0045	0.0022	-0.003	0.0007	78
0.0015	0.0022	0.0007	0	78
0.0037	0.003	0.0045	0.0015	78.3
0.0082	0.0037	0.0045	0.0015	78
0.009	0.0015	0.003	0.0007	78.2
0.009	0.0015	0.0045	0.0007	78.1
0.0067	0.0007	0.0052	0	78
0.0045	0.0007	0.0052	-0.0015	78.2
0.0007	0.0015	0.0052	-0.0015	78.2
-0.0008	0.0007	0.003	-0.0015	78.2
-0.0046	0	0.0015	-0.003	78.1
-0.0091	0.0007	0.0015	-0.0053	78.1
-0.0105	0.0007	0.0022	-0.003	78.3
-0.015	-0.0008	0.0052	-0.0023	78
-0.0128	0.0015	0.0067	-0.0015	78.1
-0.0083	0.0022	0.0037	0	78.3
-0.0023	0.0015	-0.0008	-0.0015	78.2
-0.0008	0.0007	-0.0015	-0.0038	78.2
0.0007	0.0015	0	-0.003	78.1
0.0015	0.0015	-0.0008	-0.003	78.1
0.0015	0.0022	0.0015	-0.003	78.2
0.003	0.0045	0.0052	-0.0038	78.2
0.003	0.003	0.0045	-0.003	78.2
0.003	0.003	0.0037	-0.0015	78
0.0037	0.0037	0.006	-0.003	78.2
0.0037	0.0037	0.003	-0.0038	78.3
0.0037	0.0052	0.0007	-0.0023	78
0.0045	0.0045	0.0015	-0.0008	78.3
0.003	0.0022	0.0015	0	78
0.003	0.003	0.0015	0.0015	78.3
0.003	0.0037	0.0037	0.0015	78.1
0.003	0.0022	0.0052	0.003	78.2
0.003	0.0015	0.003	0.0045	78.3
0.0022	0.0007	-0.0008	0.0045	78.3
0.0007	0.0015	-0.0023	0.0037	78.3
0.0015	0.0015	-0.0038	0.003	78.2
0.0022	0.0007	-0.0046	0.0037	78.1
0.0045	0.0015	-0.0046	0.0045	78.3
0.0045	0.0015	-0.0046	0.003	78.2
0.0045	0.0007	-0.0038	0.0022	78.3
0.0022	0.0015	-0.0046	0.0022	78.3
0	0.0015	-0.0023	0.0007	78.2
0.0007	0.0015	0.0007	0.0007	78.4
0	0.0015	0.003	0.0007	78.2
0	0.0022	0.0022	0.0015	78.3
0.0015	0.0007	-0.0008	0.0037	78.3
0.003	-0.0008	-0.0015	0.0045	78.3
0.0045	-0.0023	0.0007	0.0045	78.3
0.0052	-0.003	0.003	0.0045	78.3
0.0067	-0.0008	0.003	0.0045	78.4
0.0075	-0.0015	0.0022	0.0052	78.2
0.0067	-0.0008	0.0022	0.0045	78.3
0.0045	0.0015	0.003	0.0045	78.3
0.0045	-0.0008	0.0037	0.003	78.3
0.0015	0.0007	0.0052	0.003	78.3
-0.0015	0.0015	0.0052	0.003	78.3
-0.0015	0.0007	0.0037	0.003	78.1
-0.0008	-0.0008	0.0045	0.003	78.3
0.0015	-0.0015	0.0052	0.0037	78.3
0.0007	-0.0015	0.003	0.0015	78.3
-0.0008	-0.0038	0.0015	0	78.3
-0.0023	-0.0023	0.0015	0.0007	78.3
-0.0046	0.0007	0.0007	0	78.3
-0.0046	0.0007	-0.0008	0.0007	78.3
-0.0038	-0.0008	0.0007	-0.0015	78.5
-0.0053	0.0007	-0.0015	-0.0015	78.4
-0.0053	0.0007	0.0007	0.0007	78.5
-0.0046	0.0007	0.003	0.0015	78.5
-0.0046	-0.0008	0.0015	0.0022	78.3
-0.0046	-0.0015	0	0.0007	78.6
-0.0046	0	-0.0008	0.0007	78.4
-0.0038	-0.0023	-0.0008	0.0007	78.5
-0.0053	-0.0046	-0.0023	0.0007	78.5
-0.0023	-0.0023	-0.003	-0.0015	78.4
0.0007	-0.0015	-0.003	-0.003	78.5
0.0007	-0.0008	-0.0038	-0.003	78.3
0.0007	0.0007	-0.0046	-0.0038	78.5
0.0007	0.0015	-0.0091	-0.0053	78.4
-0.0023	0.0015	-0.0075	-0.006	78.4
-0.0038	0.0037	-0.0083	-0.0046	78.5
-0.003	0.003	-0.0091	-0.0038	78.4
-0.0023	0.003	-0.0068	-0.0015	78.5
-0.0008	0.003	-0.0068	-0.0008	78.4
-0.003	0.003	-0.0053	-0.0008	78.4
-0.0008	0.006	-0.0038	0.0015	78.6
-0.0008	0.0067	-0.0015	0.0007	78.4
0.0007	0.006	-0.0008	-0.0008	78.5
0.0052	0.0052	0	-0.0008	78.5
0.0067	0.0052	0.0015	0.0015	78.5
0.015	0.0045	0.003	0.0037	78.6
0.0157	0.003	0.0037	0.0022	78.4
0.009	0.0045	0.0007	0.0015	78.6
0.0067	0.0045	-0.0008	0.0045	78.6
0.006	0.0045	-0.0023	0.0045	78.6
0.0067	0.0037	-0.0023	0.003	78.6
0.0037	0.0015	-0.0008	0.0007	78.3
-0.0046	0.0007	-0.0015	0.0007	78.7
-0.0128	-0.0008	0.0015	0.0022	78.6
-0.021	0.0007	0.0052	0.0022	78.6
-0.0233	0	0.0045	0.0015	78.6
-0.0128	-0.0015	0.0045	0.003	78.5
-0.0038	-0.0008	-0.0008	0.0037	78.6
-0.0068	0.0007	-0.0046	0.0052	78.4
-0.006	0.0007	-0.0015	0.0052	78.6
0.0022	0.0015	-0.003	0.0045	78.6
0.009	0.0015	-0.003	0.0045	78.6
0.015	0.003	-0.0015	0.0022	78.6
0.0142	0.0015	-0.0008	0.0015	78.7
0.012	0.0022	0.0007	0.0015	78.5
0.0127	0.0007	0.003	0.0015	78.7
0.0112	-0.0008	0.0052	0.0022	78.6
0.0105	-0.0023	0.0052	0.0022	78.7
0.0067	-0.003	0.0037	0.0007	78.6
0.0052	-0.003	0.003	0.0015	78.5
0.0067	-0.003	0.003	0.0015	78.7
0.0067	-0.0015	0.0015	0.0015	78.5
0.0082	-0.0015	0.0007	0.0007	78.7
0.0052	-0.0015	0.0007	0	78.6
0.006	-0.0015	0.003	0.0007	78.6
0.0067	-0.0008	0.0015	0.0007	78.7
0.0052	0	0.0015	-0.0008	78.6
0.0022	0.0007	0.0022	-0.0008	78.6
0.0022	0.0015	0.0022	0.0007	78.7
0.0022	0.0007	0.0022	0.0007	78.6
0.003	0.0007	-0.0015	-0.0008	78.6
0.003	0.0015	-0.0038	-0.0008	78.5
0	0.0022	-0.0023	-0.0008	78.6
-0.0046	0.0015	-0.003	0	78.6
-0.0046	0.0037	-0.0046	0	78.6
-0.0008	0.0052	-0.0046	0.0007	78.7
0	0.0037	-0.0038	0.0022	78.6
0.003	0.003	-0.0046	0.0007	78.7
0.0037	0.003	-0.003	0	78.5
0.0052	0.003	-0.0023	0.003	78.7
0.0052	0.0015	-0.0046	0.0045	78.6
0.003	-0.0008	-0.003	0.006	78.7
0.003	-0.0015	0.0022	0.0045	78.8
0.0052	-0.0015	0.0067	0.003	78.7
0.0067	-0.003	0.006	0.0045	78.6
0.0075	-0.0008	0.0052	0.003	78.8
0.0052	0	0.003	0.0022	78.7
-0.0023	0	0.0015	0.0022	78.7
-0.0098	-0.0008	0.0007	0.0015	78.6
-0.0165	-0.0023	0	0	78.8
-0.0188	-0.0015	0.0015	-0.0008	78.8
-0.0165	0	0.0015	-0.003	78.6
-0.0128	0.0007	0.0022	-0.003	78.8
-0.0068	0.0015	0.003	-0.0015	78.6
-0.0023	0	0.0045	-0.0023	78.7
0.0007	-0.0023	0.006	-0.0023	78.7
0.0045	-0.0015	0.0045	-0.0015	78.7
0.0045	-0.0023	0.0045	0	78.7
0.003	-0.0023	0.0045	0.0015	78.8
-0.0008	-0.0015	0.0022	0.0007	78.9
-0.0008	-0.0008	0.003	-0.0008	78.9
-0.0008	0.0007	0.0037	-0.0008	78.6
-0.0008	0.003	0	-0.0008	78.7
0.0045	0.0037	0.0007	0.0007	78.8
0.0067	0.0045	0.0015	0.0015	78.7
0.006	0.0037	-0.0008	0.0007	78.9
0.006	0.003	-0.0015	0.0022	78.8
0.0045	0.0022	-0.003	0.0015	78.9
0.0045	0.0022	0.0007	0.0015	78.7
0.0045	0.003	0.0015	0.0015	78.9
0.003	0.0022	-0.0008	0	78.9
0.0045	0.0015	-0.0015	-0.0008	78.7
0.003	0.003	0	-0.0015	78.8
0.0015	0.0022	0.0015	-0.0015	78.9
0.0015	0.0007	0.0015	-0.0015	78.9
0	-0.0008	0.0045	-0.003	78.9
-0.0008	-0.0015	0.003	-0.0023	78.8
-0.0015	-0.0015	0.0037	-0.003	78.9
-0.0015	-0.003	0.003	-0.0015	78.7
-0.0023	-0.0008	-0.0015	0.0007	78.8
-0.0023	0.0007	-0.0023	0	78.9
-0.0023	0.0015	-0.0023	0.0007	78.6
-0.0008	0.0037	-0.003	0.0007	79
0.0015	0.0052	-0.0015	-0.0015	78.7
0.0022	0.003	0	-0.0015	78.9
0.0007	0.003	0.0007	-0.0015	78.7
0.0007	0.003	0.003	-0.0015	78.7
0	0.0015	-0.0008	-0.0008	79
-0.0008	0.0007	-0.0015	0.0007	78.8
0	0	0	0.0007	78.9
-0.0008	-0.0015	-0.0008	0.0022	78.8
0.0007	-0.0008	-0.0008	0.0045	79
0	-0.0023	-0.0023	0.0045	79
-0.0008	-0.0015	-0.0038	0.0045	78.8
0	-0.0008	-0.0046	0.0037	78.9
0	-0.0008	-0.0068	0.003	78.9
0	0.0007	-0.0053	0.0045	78.8
-0.0008	0.0007	-0.0046	0.0052	79
-0.0008	0.0007	-0.0015	0.0067	78.8
0.0015	0.0015	-0.0008	0.0075	79
0.003	0.003	-0.003	0.0082	78.9
0.0045	0.003	-0.0008	0.0052	79.1
0.0037	0.0015	0.0007	0.003	79
0.003	0.0007	0.0015	0.003	78.8
0.0045	0.0007	0.0022	0.0015	79
0.0037	0.0007	0.003	-0.0008	79
0.0022	0.0015	0.0037	0.0007	79
0.003	0.0007	0.0022	0.0007	78.9
0.0037	-0.0015	0.0007	0.0007	79.1
0.0052	-0.0008	-0.0008	0.0015	78.9
0.0015	-0.0015	-0.0008	0.0007	79.2
-0.0008	-0.0015	-0.0008	0.0015	78.9
-0.0008	0	-0.0015	0.0015	79.2
-0.0015	-0.0008	0	0.0007	78.9
-0.0008	0.0007	-0.003	0	79.2
-0.0015	0.0015	-0.0053	-0.003	79
0	0.0037	-0.0053	-0.003	79.2
0.0015	0.0052	-0.0053	-0.0038	78.9
0.0015	0.0045	-0.0068	-0.003	79
0.0082	0.0037	-0.0068	-0.0023	79.2
0.0202	0.003	-0.0083	-0.0008	78.9
0.0285	0.003	-0.0075	-0.0023	78.9
0.027	0.0007	-0.006	-0.0023	79.1
0.0135	0.0007	-0.0075	-0.0023	78.9
-0.0023	-0.0008	-0.0105	-0.0046	79
-0.015	-0.0008	-0.0128	-0.0046	79.2
-0.0225	-0.0015	-0.012	-0.003	78.9
-0.0203	-0.0023	-0.0083	-0.0008	79.2
-0.0181	0.0007	-0.003	0	79
-0.0248	0	0.0037	-0.0008	79.2
-0.0346	0	0.0097	0	79.1
-0.0233	0.0007	0.0195	0.0007	79.1
-0.0046	0.0022	0.0255	0.0015	79.2
-0.0008	0.0015	0.0255	0.0015	78.9
0	0.0015	0.0292	0.003	79.3
0.0022	0.0007	0.0255	0.0037	79.1
0.006	0.0007	0.012	0.003	79.3
0.012	0	0.0037	0.003	79.2
0.0105	0	0.0022	0.0015	79.2
0.0105	-0.0008	0.0007	0.0022	79.2
0.0105	-0.0015	-0.0008	0.0022	79.2
0.0112	-0.003	-0.0023	0.003	79.1
0.009	-0.003	-0.003	0.0022	79.1
0.009	-0.003	-0.0015	0.003	79.1
0.0082	-0.0015	-0.0015	0.0045	79.1
0.0067	0.0007	-0.0023	0.003	79.2
0.0067	0.0007	-0.003	0.0022	79.2
0.0067	-0.0008	-0.0053	0.003	79.4
0.0052	0	-0.0046	0.003	79.2
0.0045	-0.0008	-0.0038	0.0045	79.2
0.0015	-0.0008	-0.0023	0.0052	79.2
-0.0008	0	0	0.0037	79.1
0.0007	-0.0015	-0.003	0.003	79.2
0.0022	-0.0008	-0.0046	0.003	79.1
0.0037	0.0015	-0.0046	0.0015	79
0.003	0.0015	-0.0046	0.0015	79.1
0.0015	0.0045	-0.0053	0.0007	79.1
0.0015	0.0045	-0.0046	0.0007	79.2
0.0052	0.003	-0.0015	0.0007	79.2
0.009	0.0037	0.0007	0.0015	79.2
0.012	0.003	0.0015	0.0015	79.2
0.0067	0.0022	0.0015	0	79.1
0.0007	0.003	0.0022	0.0007	79.2
-0.003	0.0045	0.0015	-0.0008	79
-0.0075	0.003	-0.0008	-0.0015	79.3
-0.0083	0.0022	-0.0015	-0.0023	79.1
-0.0105	0.0007	-0.0015	-0.0015	79.2
-0.0113	0.0007	-0.0008	-0.0015	79.2
-0.0053	0	0.0015	0	79.1
-0.0008	0	0.0015	-0.0008	79.1
0.012	0	0.003	-0.0015	79
0.0285	0	0.0022	0.0015	79.1
0.0345	0	0	0	79.1
0.0337	0.0007	-0.0015	-0.0015	79.1
0.0292	0.0015	-0.0046	-0.003	79
0.0195	0.0015	-0.006	-0.0046	79
0.0105	0.003	-0.0053	-0.003	78.9
-0.0075	0.0037	-0.0038	-0.0008	79.1
-0.0368	0.003	0.0015	-0.0008	78.9
-0.0623	0.0007	0.0105	-0.0015	79.1
-0.0765	0.003	0.0142	0.0007	79
-0.0608	0.0045	0.0142	0.0022	79.1
-0.033	0.0007	0.0082	0.0015	79.1
-0.0128	0.0007	0.0007	0	78.9
-0.0008	-0.0015	-0.003	0.003	79.2
0.0045	-0.003	-0.0068	0.0045	78.9
0.0097	-0.003	-0.0053	0.003	78.9
0.0157	-0.003	-0.003	0.0045	78.9
0.018	-0.0023	-0.0015	0.0037	79
0.0172	-0.0015	-0.0015	0.0052	79
0.0142	-0.0015	-0.0015	0.006	79
0.0142	-0.0008	-0.0015	0.0067	78.9
0.0127	-0.0008	-0.003	0.0052	79
0.0127	-0.0008	-0.0046	0.0045	78.9
0.0112	0	-0.003	0.0045	78.9
0.0097	0.0007	-0.003	0.003	78.9
0.0097	0.003	-0.003	0.0022	78.8
0.0105	0.003	-0.0015	0	78.9
0.0082	0.003	0	-0.0008	78.7
0.0075	0.0045	0.0015	-0.0008	78.8
0.0052	0.0052	0.0022	-0.0008	78.5
0.0052	0.0037	0.0015	0.0015	78.7
0.006	0.0045	0.0015	0	78.8
0.0037	0.0067	0.0015	-0.0008	78.6
0.0022	0.0067	0.003	-0.0015	78.6
0.0022	0.0045	0.003	-0.0015	78.6
0.003	0.0045	0	-0.0023	78.6
0.003	0.003	0.0037	-0.003	78.6
-0.0008	0.0015	0.0037	-0.0015	78.4
-0.0046	0.0007	0.0052	-0.003	78.6
-0.0053	0.0015	0.0037	-0.0015	78.6
-0.0068	0.0007	0.0007	0.0015	78.5
-0.0075	-0.0008	-0.0015	0.0015	78.6
-0.0053	0.0007	-0.0046	0.0015	78.3
-0.0046	-0.0008	-0.003	0.0007	78.5
0.0007	0.0007	-0.003	-0.0008	78.2
0.0022	0.0022	-0.0038	0	78.3
0.0007	0.0015	-0.0015	0.0007	78.3
0.003	0.0015	-0.0023	0.0015	78.2
0.0007	0.0007	-0.0023	0.0015	78.2
-0.0008	0.0015	-0.003	0.003	78.3
-0.0008	0.0015	0	0.0052	78.2
-0.0008	0	0.0015	0.0052	78.3
-0.0008	0.0015	0.003	0.0045	78
-0.0015	0.0015	0.0022	0.003	78.2
-0.0008	0.0015	0	0.0015	77.9
-0.0023	0.0015	-0.0015	0.0015	78
-0.0015	0	-0.003	-0.0008	77.9
-0.0023	-0.0008	-0.0015	-0.0015	78
-0.0053	-0.0015	-0.0008	0.0007	78
-0.0083	-0.0023	-0.0008	0.0015	77.7
-0.003	-0.0023	0.0037	0.0007	77.8
0.0052	0	0.0045	0	77.8
0.0097	-0.0008	0.0015	-0.0023	77.7
0.0112	-0.0023	0	-0.0023	77.7
0.0082	-0.0046	-0.0015	-0.0023	77.8
0.0045	-0.0038	-0.003	-0.003	77.6
0.0015	-0.0008	-0.0053	-0.0008	77.7
0.0022	0.0007	-0.0046	0	77.4
0.003	0	-0.0053	0.0007	77.6
-0.0023	-0.0038	-0.0075	-0.0008	77.3
-0.0068	-0.0046	-0.0046	0.0015	77.5
-0.0083	-0.0038	-0.003	0.0015	77.4
-0.0068	-0.0046	-0.0015	-0.0015	77.2
0.0015	-0.0046	-0.0008	-0.0008	77.3
0.0007	-0.0023	0	-0.0023	77.2
-0.0046	-0.0008	0.0015	-0.0015	77.3
-0.003	0.0015	0.0022	-0.0008	77.1
0.0015	0.0037	-0.0015	-0.0008	77.2
0.0105	0.0052	-0.0046	-0.0008	77.1
0.0157	0.006	-0.003	-0.0015	76.9
0.0217	0.0045	-0.0046	-0.0008	76.9
0.024	0.003	-0.0083	0	76.9
0.0157	0.0022	-0.0105	-0.0008	76.9
0.012	0.003	-0.0105	-0.0015	76.9
0.0082	0.003	-0.0068	-0.003	76.7
0.003	0.0037	-0.0046	-0.0023	76.9
-0.003	0.0067	0.0007	-0.0015	76.7
-0.0128	0.006	0.0067	-0.003	76.7
-0.027	0.0052	0.0097	-0.0023	76.9
-0.03	0.0052	0.0105	0	76.6
-0.0105	0.0067	0.0112	0.0007	76.7
-0.0091	0.0052	0.0105	0.0007	76.5
-0.0113	0.0052	0.0097	0.0015	76.5
-0.0098	0.0045	0.012	0.0022	76.5
-0.0068	0.003	0.012	0.0045	76.5
-0.0038	0.0007	0.0105	0.0037	76.5
-0.0105	0.0007	0.012	0.0045	76.5
-0.0038	0.0015	0.012	0.006	76.3
0.0045	0.0015	0.009	0.009	76.3
0.012	0.0015	0.0022	0.0112	76
0.0142	0.0007	-0.003	0.0105	76.3
0.0135	-0.0015	-0.0046	0.0105	76
0.0142	-0.0023	-0.0075	0.0075	76
0.0105	-0.003	-0.0098	0.0052	76
0.009	-0.003	-0.0098	0.0045	75.8
0.0097	-0.003	-0.0083	0.0022	75.9
0.0157	-0.0038	-0.0068	0.0015	75.8
0.0165	-0.003	-0.0091	0.003	75.6
0.0052	-0.003	-0.0091	0.0037	75.7
0.0007	-0.0038	-0.0083	0.0022	75.4
0.0157	-0.0038	-0.0068	0.0015	75.7
0.024	-0.0015	-0.0046	0.0015	75.5
0.0217	-0.0008	-0.003	0	75.3
0.0127	0	-0.0008	0.0007	75.3
-0.0068	0	0.003	-0.0008	75.3
-0.0256	0.0015	0.0067	0	75.3
-0.0195	0.003	0.0135	0.0007	75.4
-0.0113	0.0007	0.015	0	75.3
-0.0068	0.0007	0.0082	0	75.3
-0.003	0.0037	0.0007	0	75.1
-0.0083	0.0037	-0.0015	0.0007	75.1
-0.0098	0.003	0.0045	0.0015	74.8
-0.0098	0.003	0.0045	0.0015	74.9
-0.0008	0.003	0	-0.0008	74.8
0.003	0.0045	0	-0.0008	74.7
0.0045	0.0037	-0.0008	0	74.9
0.0082	0.0052	-0.0008	0	74.7
0.009	0.0067	0.0037	-0.0008	74.7
0.0112	0.0067	0.003	0	74.7
0.0082	0.0067	0	0.0007	74.4
0.003	0.0052	-0.0008	0	74.3
-0.0038	0.0052	-0.0015	-0.0008	74.4
-0.0083	0.0045	-0.0015	0.0007	74.3
-0.0046	0.0007	-0.0008	-0.0008	74.3
-0.0008	0.0007	0.0007	-0.0015	74.1
0.0015	0	0	-0.0008	74.2
0.006	-0.0008	0.0007	-0.0008	74.1
0.0112	-0.0008	0.003	-0.003	73.9
0.009	-0.0038	0.0052	-0.0038	74.1
0.0067	-0.0046	0.0067	-0.0038	73.7
0.0052	-0.0046	0.0045	-0.0053	74
-0.0015	-0.003	0.0015	-0.0038	73.7
-0.0083	-0.0023	0.0007	-0.003	73.8
-0.0105	-0.0023	0.0052	-0.003	73.8
-0.0143	-0.0015	0.003	-0.003	73.5
-0.0173	-0.0008	0.0015	-0.003	73.4
-0.0105	0.0015	0.0015	-0.003	73.5
-0.0038	0.003	-0.0008	-0.0008	73.4
0.0015	0.0015	-0.0008	-0.0008	73.2
0.0082	0.0045	-0.0038	-0.0008	73.1
0.0067	0.003	-0.0053	-0.0023	73.1
0.006	0.0022	-0.0053	-0.0008	73
0.0127	0.0037	-0.0053	0	72.8
0.0157	0.003	-0.0053	0.0007	72.9
0.012	0.003	-0.0068	0	72.6
0.0045	0.0007	-0.003	-0.0015	72.9
0.0015	-0.003	-0.0046	-0.0015	72.6
-0.0008	-0.003	-0.0046	0	72.6
-0.0008	-0.0008	-0.0015	0.0007	72.4
-0.003	-0.0008	-0.0038	0.003	72.4
-0.0128	-0.0008	-0.0015	0.003	72.4
-0.015	-0.0015	-0.003	0.0037	72.3
-0.012	-0.0008	-0.0008	0.0045	72
-0.0098	0.0007	0.0015	0.003	72.2
-0.0091	-0.0015	-0.0008	0.003	71.9
-0.0015	-0.0015	-0.0008	0.003	72.1
0.018	-0.0008	-0.0046	0.0052	71.8
0.0292	0	-0.006	0.0067	71.8
0.0255	0	-0.0053	0.006	71.6
0.0165	0.0007	-0.003	0.006	71.7
0.0127	0.0022	-0.0046	0.0045	71.5
0.0082	0.003	-0.0015	0.0037	71.5
-0.0046	0.003	0.0045	0.0022	71.4
-0.027	0.003	0.006	0.0037	71.3
-0.0428	0.0015	0.0075	0.0022	71.3
-0.0346	0	0.0097	0.003	71.1
-0.0068	-0.0008	0.0082	0.003	71
0.0172	-0.0015	0.0015	0.0007	71.1
0.0232	-0.0015	-0.0008	-0.0008	70.8
0.0202	-0.0015	-0.0008	-0.0023	70.6
0.009	-0.0015	0.0007	-0.0008	70.7
-0.0023	-0.0015	-0.0023	-0.0015	70.6
0.0022	-0.0008	-0.0046	-0.0008	70.6
0.0105	0.003	-0.003	-0.0008	70.5
0.0202	0.003	-0.0023	0	70.3
0.0202	0.0045	-0.0008	0	70.3
0.024	0.0052	-0.003	0.0015	70.1
0.0217	0.0045	-0.0038	0.0015	70.2
-0.0038	0.0037	-0.0015	0.0007	70
-0.0195	0.0022	0.0007	-0.0008	69.9
-0.0315	0.0022	0.0045	-0.0015	69.6
-0.045	0.0007	0.0037	-0.0015	69.7
-0.0503	0	0.0007	-0.0015	69.6
-0.0405	0.0015	-0.003	-0.0008	69.4
-0.0158	0.0022	-0.0053	0.0007	69.3
0	0.003	-0.0068	0.0015	69.3
0.009	0.0022	-0.0128	0.0007	69
0.0195	0.0015	-0.0128	0.0007	69.1
0.0135	-0.0015	-0.0083	0.0007	69.1
0.0105	-0.003	-0.003	-0.0015	69.1
0.024	-0.0038	0.0067	0	68.9
0.0187	-0.003	0.012	0.003	68.7
0.0157	-0.0023	0.0127	0.0015	68.8
0.0135	-0.0008	0.0075	-0.0008	68.5
0.0045	-0.0008	-0.0015	0	68.5
-0.0008	-0.0015	0	0.0007	68.5
0.003	0	-0.0015	0.0015	68.4
0.015	0.0007	-0.0046	0.0022	68.3
0.0247	0.0007	-0.0068	0.0007	68.1
0.0307	-0.0008	-0.0053	-0.0008	68
0.018	0.0007	0	-0.0015	68.1
-0.003	0.0007	0.0037	0.0007	67.7
-0.0128	0.0007	0.0105	0.0007	68
-0.012	0.0015	0.0127	0.0007	67.7
-0.0046	0.003	0.0097	0.003	67.7
-0.0105	0.003	0.006	0.0022	67.5
-0.0256	0.0015	0.0075	0.003	67.5
-0.0233	0.003	0.0105	0.003	67.4
-0.0128	0.003	0.0082	0.0022	67.1
-0.0015	0.0015	0.003	0.0015	67.2
0.0037	0.0045	-0.0008	0.003	67.1
0.0037	0.0045	0.0015	0.003	67
0.003	0.0022	0.003	0.003	66.7
0.0052	0.0015	0	0.006	66.7
0.0202	0.003	-0.0046	0.0052	66.6
0.0307	0.003	-0.0083	0.0045	66.4
0.0202	0.003	-0.0083	0.0045	66.4
0.0157	0.003	-0.0068	0.003	66.5
0.0157	0.0022	-0.0083	0.003	66.1
0.006	0.003	-0.0075	0.0052	66
-0.0075	0.0015	-0.0046	0.0052	66
-0.0203	0.0007	0.0007	0.0022	66
-0.0263	0.0007	0.0067	0.003	66
-0.0361	-0.0008	0.0127	0.0015	65.6
-0.033	-0.0023	0.009	0.003	65.8
-0.015	-0.0015	0.0022	0.0045	65.5
-0.0068	-0.0008	0.0015	0.0015	65.5
-0.0008	-0.0008	0.003	0.0015	65.3
0.0007	-0.0008	0.0045	0	65.2
0.0075	-0.003	0.0022	-0.0015	65.2
0.0157	-0.0015	0.0022	-0.0023	65
0.015	0.0007	0.003	-0.003	65.1
0.012	0.0015	0	-0.0038	64.9
0.0075	0.0015	-0.0008	-0.0023	64.6
0.0127	0.0007	0	-0.0015	64.8
0.021	0.0015	-0.003	-0.0015	64.5
0.0217	0.0007	-0.0053	-0.0015	64.5
0.0157	0	-0.0053	-0.0008	64.3
0.0037	0.0015	-0.0046	0.0022	64.3
0.0075	0.003	-0.0015	0.0022	64.3
0.0142	0.0045	-0.0046	-0.0008	63.9
0.015	0.003	-0.0075	-0.0015	64
0.0082	0.0015	-0.0068	-0.0015	63.9
-0.0128	0.0015	-0.006	-0.0008	63.6
-0.0173	0.0007	-0.0008	-0.0008	63.7
-0.0105	0.0015	0.0007	-0.0023	63.7
-0.0128	0.0015	-0.0068	-0.0046	63.4
-0.012	0.0007	-0.0083	-0.006	63.3
-0.0105	0.0007	-0.0038	-0.0046	63.1
-0.0143	-0.0015	-0.0008	-0.003	63.3
-0.0046	-0.0015	0.003	-0.0023	63.1
0.0075	-0.0015	0.0052	-0.0023	63.2
0.003	-0.0008	0.003	0	63
-0.0008	-0.0008	-0.0008	0.0015	63
-0.0046	-0.0008	0.0015	0.0037	62.8
-0.0113	-0.0008	0.003	0.0045	62.6
-0.0083	-0.0015	0.006	0.0037	62.5
0.003	0	0.0067	0.0037	62.5
0.0037	0	0.003	0.0045	62.4
0.0007	-0.0015	0.0015	0.0037	62.3
0.0045	0	0	0.0022	62.2
0.009	0.0015	-0.003	0.0015	62.1
0.0082	0.0007	-0.0015	0	61.8
0.0075	-0.0008	-0.0015	-0.0008	61.8
0.0105	-0.0008	-0.0023	0	61.8
0.009	0.0015	-0.0023	0.0015	61.6
0.009	0.0007	-0.0023	0.0015	61.6
0.0052	0.0007	-0.0023	0.0015	61.2
0	0.003	-0.0015	0.003	61.4
0.0052	0.0045	-0.0046	0.0022	61.1
-0.0038	0.0052	-0.0091	0	60.8
-0.0128	0.0045	-0.0098	-0.0023	61
-0.0053	0.0045	-0.0105	-0.0015	60.7
0.0067	0.0015	-0.0098	-0.0015	60.7
0.0292	-0.0008	-0.0083	-0.0023	60.4
0.039	-0.0015	-0.0091	-0.0015	60.4
0.042	-0.0046	-0.0128	-0.0015	60.2
0.0352	-0.003	-0.0083	-0.0008	60.3
0.009	-0.0015	0.0007	0	60.1
0	-0.0015	0.0037	0.0022	59.9
-0.0083	-0.0023	0.0015	0.0045	59.9
-0.024	-0.003	0.0082	0.0045	59.8
-0.039	-0.0015	0.0105	0.0045	59.7
-0.048	-0.0008	0.0112	0.0052	59.7
-0.0473	0.003	0.015	0.0045	59.4
-0.0405	0.0045	0.009	0.003	59.3
-0.042	0.0045	0.0037	0.003	59.3
-0.0548	0.0045	0.0022	0.0007	59
-0.0405	0.0037	-0.0015	0	59.1
-0.0046	0.0045	-0.0015	-0.0015	58.8
0.0435	0.0045	-0.003	-0.0046	58.8
0.0607	0.0022	-0.0015	-0.0046	58.5
0.0525	0.0007	-0.0053	-0.003	58.5
0.0457	0.0007	-0.0091	-0.0015	58.3
0.033	0.0007	-0.0083	-0.0015	58
0.0157	0.0007	-0.012	-0.003	58.1
-0.012	0.0015	-0.0181	-0.003	58
-0.024	0.0015	-0.0135	-0.0046	57.8
-0.0203	-0.0008	-0.0053	-0.0023	57.9
-0.0046	0.0007	0.0007	0.0015	57.6
-0.0046	0.0015	0.0082	0.0022	57.6
-0.0128	0.0015	0.0165	0.003	57.2
-0.0083	0.0007	0.0202	0.0015	57.4
0.0015	-0.0008	0.0217	0.003	57.1
0.0105	-0.0008	0.0165	0.0052	57.1
0.0097	0.0007	0.012	0.0045	57
0.0127	-0.0008	0.012	0.003	56.8
0.0052	0	0.0165	0.003	56.7
-0.0008	-0.0008	0.0202	0.003	56.5
-0.0015	-0.0015	0.0157	0.0015	56.5
0.0037	0	0.0105	0.003	56.5
0.0105	0.0015	0.0067	0.0052	56.4
0.0255	0.003	-0.0015	0.0052	56.2
0.0352	0.0015	-0.0105	0.0052	55.9
0.0142	0.003	-0.015	0.0067	55.9
-0.0075	0.0045	-0.021	0.0082	55.9
-0.0008	0.0045	-0.0203	0.0082	55.7
0.009	0.0052	-0.0203	0.0067	55.7
0.0255	0.003	-0.0195	0.0045	55.3
0.0292	0.0007	-0.0143	0.0022	55.5
-0.0008	0	-0.003	0.003	55.4
-0.0053	-0.0008	0.012	0.003	55.3
-0.0188	-0.0023	0.0217	0.0015	55.3
-0.0383	-0.0015	0.0187	0.003	55
-0.0398	-0.0015	0.0142	0.0015	55.2
-0.0375	-0.0038	0.009	-0.0008	55
-0.0263	-0.0023	0.0015	0	54.7
-0.0098	-0.003	0.0045	-0.0015	54.7
0.003	-0.0023	0.0052	-0.003	54.5
-0.0068	-0.003	0.0045	-0.0023	54.6
-0.0023	-0.0015	0.0045	-0.0015	54.2
0.0052	0.0007	-0.0008	-0.0023	54.4
0.0105	-0.0008	-0.006	-0.003	54
0.0082	0.003	-0.0105	0.0007	54
0.009	0.0045	-0.0113	0.0007	54
0.0127	0.006	-0.0128	0.0007	53.7
0.0075	0.0067	-0.0091	0.0007	53.8
0.0082	0.0052	-0.0053	-0.0008	53.6
0.0075	0.003	-0.0023	-0.003	53.6
0.015	0.0015	-0.0008	-0.0015	53.5
0.0232	0	-0.003	-0.0008	53.5
0.0247	-0.0015	-0.0038	0	53.3
0.0195	-0.0008	-0.0083	-0.0008	53.2
0.012	-0.0015	-0.0091	-0.0008	53.2
0.0007	-0.0015	-0.012	-0.0015	53.2
-0.0068	-0.0008	-0.0091	0.0007	53
0	0.0007	-0.0068	0.0015	53
-0.0128	-0.0023	-0.0083	0.0015	52.8
-0.0195	-0.003	-0.0008	0.0015	52.8
-0.0143	-0.0008	0.0067	0.0022	52.8
-0.0075	0.0007	0.0105	0.003	52.5
0.0045	-0.0008	0.0105	0.003	52.6
0.0007	-0.0015	0.0052	0.0015	52.3
0.0007	0	-0.0008	0.0015	52.5
0.0022	0.0007	-0.0015	0.0007	52.2
-0.0008	0.0007	0.0015	-0.0015	52.1
0.0007	0.0007	0.0007	-0.0008	52
-0.0008	-0.0015	0.003	-0.0015	51.9
0.0007	0	-0.0008	-0.0023	51.7
0.0037	-0.0008	-0.0046	-0.0015	51.5
0.009	-0.0015	-0.0038	-0.0015	51.5
0.0082	-0.0008	-0.0046	0.0015	51.4
0.0052	0.0015	-0.006	0.003	51.3
0.0075	0.0007	-0.0053	0.0015	51.2
0.0247	0	-0.0046	0.0007	50.9
0.0457	0.0007	-0.0046	0.0007	50.8
0.033	0.0007	-0.003	0.0007	50.8
0.0067	0.0015	0.0015	0	50.5
0.0015	0.0015	0.0052	0	50.5
-0.012	0.0022	0.0082	0	50.3
-0.0428	0.003	0.012	0.0007	50.2
-0.0683	0.0037	0.0157	0.0015	50
-0.0675	0.003	0.0105	-0.0008	49.9
-0.0308	0.0037	0.0037	-0.0008	49.7
-0.0008	0.003	0.0037	0	49.8
-0.0023	0.0045	0.0015	-0.0015	49.5
-0.0091	0.0037	0.0022	0.0007	49.4
0.0142	0.0015	0.0015	-0.0008	49.1
0.0255	0.0007	0.0007	-0.0023	49.2
0.0165	0.0007	0.0022	-0.0023	48.9
0.0007	0.0007	-0.0008	-0.003	49.1
-0.0135	0	-0.0015	-0.003	48.8
0.0112	0.0022	-0.003	-0.0008	48.5
0.033	0.003	-0.0083	0.0007	48.5
0.0465	0.0037	-0.0068	0.003	48.2
0.0457	0.0045	-0.003	0.003	48.2
0.0315	0.0037	0.003	0.0022	48
0.0142	0.0045	0.0052	0.003	48.1
-0.0053	0.0037	-0.0015	0.003	48.1
-0.012	0.003	0.0007	0.003	47.8
-0.0346	0.0022	0.0067	0.0037	47.6
-0.0383	0.0052	0.0097	0.0052	47.5
-0.0173	0.0067	0.0097	0.0037	47.3
0.0045	0.003	0.006	0.0045	47.3
-0.003	0.003	0.0045	0.0052	47
-0.0203	0.0015	0.0007	0.0022	47
-0.0165	-0.0015	0.0045	-0.0008	46.6
-0.0143	-0.0015	0.003	-0.0015	46.8
-0.0083	-0.0015	-0.0008	-0.0008	46.7
-0.0046	-0.0008	0	-0.0023	46.5
0.0172	-0.0008	-0.003	-0.003	46.3
0.0495	-0.0015	-0.0098	-0.0008	46.2
0.0412	0.0007	-0.0195	0	46.1
0.0157	0	-0.0203	0	45.9
0.0195	0.0007	-0.0195	-0.0008	45.9
0.0045	0.003	-0.0181	0.0007	45.6
-0.0511	0.0007	-0.0091	0	45.4
-0.0743	0	0.0127	-0.0008	45.6
-0.045	0.003	0.0337	0.0015	45.4
-0.0105	0.0037	0.0292	0.0015	45.2
0.006	0.003	0.0157	0.0022	45.2
0.0172	0.003	0.0112	0.0022	45
0.0157	0.0015	0.015	0.003	44.8
0.015	0	0.018	0.0022	44.8
0.006	-0.0008	0.0045	0.0015	44.7
0.0052	-0.0015	-0.003	0.0015	44.6
0.012	-0.0008	-0.0053	0.0015	44.3
0.0127	0.003	-0.0075	0.0045	44.3
0.0157	0.0037	-0.0053	0.0015	44
0.0007	-0.0008	-0.0046	0.0007	44.2
0.0045	0	0	-0.0008	44
0.0247	0.0015	-0.0015	-0.0015	43.9
0.0292	-0.0008	-0.0068	-0.0008	43.6
0.018	-0.003	-0.0068	0	43.6
0.0075	-0.0015	-0.0091	0.0007	43.5
0.012	-0.0015	-0.0075	0.0007	43.4
0.012	-0.003	-0.0091	0.0015	43.1
0.0082	-0.003	-0.0113	0.0022	43.2
0.0052	-0.0038	-0.0083	0.0022	42.9
0.0127	-0.0023	-0.0008	0.003	43.1
0.0015	-0.0015	0.003	0.0015	42.7
-0.0293	-0.003	-0.003	-0.0015	42.9
-0.027	-0.0023	-0.0068	-0.0015	42.5
-0.0053	-0.0015	-0.0083	-0.0023	42.4
-0.0091	-0.0008	-0.0105	-0.0015	42.4
-0.0105	-0.0015	-0.0068	-0.0015	42.2
-0.0023	-0.0023	-0.0015	-0.003	42.2
0.0007	-0.003	0.0075	-0.0008	41.9
0.0067	-0.0015	0.0052	0	41.9
-0.0008	0.0007	-0.0008	0	41.9
-0.003	0.0007	0.006	0.0007	41.7
-0.0053	0.003	0.0045	0.003	41.5
-0.0068	0.003	0.0037	0.006	41.4
-0.0008	0.0052	0.0045	0.0045	41.2
-0.003	0.0067	0.0015	0.006	41.3
0.0045	0.0052	0.003	0.0052	40.9
0.0045	0.0052	-0.0038	0.0045	41
0.0052	0.0037	-0.003	0.0045	40.6
0.006	0.0037	-0.003	0.0037	40.7
0.0045	0.0037	-0.0068	0.0015	40.5
0.0112	0.003	-0.0046	-0.0023	40.2
0.0217	0.0007	-0.0068	-0.0046	40.3
0.033	-0.0038	-0.0068	-0.0068	40
0.0217	-0.003	-0.006	-0.0068	40
0.0052	-0.0015	-0.0105	-0.0046	39.9
-0.0068	-0.0015	-0.0091	-0.003	39.8
-0.0195	0.0022	-0.0008	-0.0023	39.6
-0.0323	0.0015	0.0075	-0.003	39.6
-0.0353	0.0007	0.0105	-0.0053	39.4
-0.0158	0.0007	0.0135	-0.0053	39.3
-0.003	0.0007	0.0105	-0.0046	38.9
-0.0098	0.0022	0.0082	-0.003	39.1
-0.0158	0.0015	0.0007	-0.0015	38.9
-0.0135	0	-0.0046	-0.0015	38.8
-0.0165	-0.0008	-0.0023	-0.0008	38.6
-0.0135	0	-0.0046	0.0022	38.4
-0.003	0.0007	-0.0023	0.003	38.3
0.0105	0.0007	-0.006	0.0015	38
0.027	0.0015	-0.0091	0.0022	38.2
0.027	0.0015	-0.012	0.003	37.8
0.0382	-0.0008	-0.0128	0.0052	37.8
0.0502	-0.0008	-0.0143	0.0067	37.7
0.0397	-0.0023	-0.015	0.0067	37.5
0.027	-0.0023	-0.0113	0.0082	37.3
0.012	-0.0023	-0.0046	0.0082	37.2
-0.0165	-0.0023	0.0022	0.0067	37
-0.0593	0	0.0105	0.006	37
-0.0706	0.0007	0.0157	0.0052	36.7
-0.0368	0.0015	0.0105	0.0052	36.8
-0.0158	0.0007	0.0075	-0.0008	36.4
-0.0105	0.0007	0.0082	-0.0023	36.4
0.003	0.0015	0.0157	-0.003	36.2
0.012	0.0007	0.0202	-0.0038	36.1
0.0075	0	0.0172	-0.003	36
0.0007	-0.0008	0.0165	-0.0015	35.8
0.0045	0.0007	0.0112	-0.0008	35.7
0.0007	0.003	0.0015	0.0007	35.6
-0.0068	0.0045	-0.0091	0.0052	35.4
0.0037	0.0067	-0.0181	0.0045	35.2
0.0345	0.0067	-0.0218	0.0052	35.3
0.0382	0.006	-0.0181	0.0052	34.9
0.0165	0.0052	-0.0091	0.003	35
0.018	0.003	0.0037	0.0015	34.7
0.012	0.003	0.0202	0.0015	34.8
-0.0195	0.003	0.0277	0.0015	34.6
-0.0368	0.0015	0.0277	0	34.5
-0.003	0.0015	0.0277	0.0007	34.3
0.0135	0.0015	0.0127	0.0015	34.2
-0.0008	0.0015	0.0082	-0.0008	34.1
0.0015	-0.0008	0.0075	-0.003	33.9
-0.0046	0.0007	-0.0023	-0.003	34
0.0045	0.0015	-0.0105	-0.0015	33.6
0.0142	-0.0008	-0.0203	-0.003	33.5
0.036	-0.0015	-0.0173	-0.0008	33.6
0.0442	-0.0015	-0.0165	-0.0008	33.3
0.0352	-0.0015	-0.0128	0.0007	33.3
0.0247	-0.0015	-0.0053	0.003	33
-0.0248	-0.0023	-0.0091	0.003	33.1
-0.048	-0.0038	-0.0038	0	33.2
-0.0353	-0.0046	0.003	-0.0015	32.8
-0.033	-0.003	0.0045	0.0007	32.8
-0.024	-0.0046	0.0037	0	32.8
-0.0091	-0.0068	0.0045	-0.0008	32.6
-0.0105	-0.0046	-0.0008	-0.0008	32.5
-0.0046	-0.0023	0.0015	0.0007	32.4
0.015	-0.0023	0.0142	0.0007	32.5
0.0277	-0.0023	0.015	0.0015	32.1
0.0165	0.0015	0.0082	0.0045	32.3
-0.0023	0.0052	-0.0008	0.0052	32
-0.0383	0.0045	-0.0128	0.0045	31.9
-0.0525	0.0045	-0.0098	0.0037	31.9
-0.0353	0.006	-0.0075	0.0022	31.8
-0.0225	0.006	-0.0113	0.0037	31.6
0.0022	0.0052	0.0022	0.0037	31.7
0.027	0.006	0.0127	0.0045	31.5
0.0315	0.0067	0.0067	0.0067	31.6
0.018	0.0067	-0.0023	0.0075	31.1
0.0165	0.0052	-0.0083	0.0052	31.4
0.021	0.0022	-0.0046	0.0022	31.1
0.0202	0.0015	-0.0046	0.0007	31
0.0307	0.0007	-0.0098	-0.0008	30.9
0.03	-0.0008	-0.012	-0.003	30.8
0.036	-0.0023	-0.015	-0.0023	30.8
0.042	-0.003	-0.0165	-0.0023	30.7
0.0127	-0.0023	-0.0173	-0.0038	30.6
-0.03	0.0007	-0.0008	-0.003	30.7
-0.0495	0.0007	0.018	-0.0015	30.5
-0.0458	-0.0015	0.0217	-0.0008	30.4
-0.0308	-0.0008	0.0142	0	30.4
-0.0098	0	0.009	-0.0008	30.2
0.0082	-0.0015	0.0105	0.0007	30.2
0.006	0	0.0075	0.0022	30
-0.0053	0.0015	0.003	0.003	30
-0.003	0.0007	-0.0008	0.003	29.9
0.0015	0.003	-0.0053	0.003	29.9
0.0037	0.0015	-0.0068	0.0022	29.6
0.006	0.0015	-0.0091	0.0037	29.4
0.0075	0.0015	-0.0105	0.0045	29.7
0.006	-0.0008	-0.012	0.0045	29.2
0.0067	-0.0015	-0.0105	0.0045	29.4
0.0075	0.0007	-0.0075	0.0022	29.2
0.0067	0.0007	-0.0053	0.0015	29.3
0.0082	0.0007	-0.0046	0.0015	29.3
0.0157	0.0007	-0.0046	-0.0008	29
0.024	-0.0015	-0.0015	-0.0015	29
0.0232	-0.0023	-0.003	-0.0023	28.8
0.0127	-0.0023	-0.0046	-0.0015	28.7
-0.003	-0.0015	-0.0068	-0.0008	28.7
-0.0083	-0.0008	-0.0068	-0.0008	28.3
-0.0091	-0.0008	0.0007	-0.0023	28.5
-0.0083	0	0.0052	-0.0015	28.2
-0.0008	0.0007	0	-0.0023	28.2
0.003	0.0007	-0.0015	-0.0023	28
0.0105	0.003	-0.0015	-0.0015	27.9
0.0045	0.0015	-0.0068	-0.003	27.9
-0.0143	0.0015	-0.0098	-0.0008	27.6
0.0007	0.0022	-0.0143	0.0015	27.6
0.009	0.0022	-0.012	0.0007	27.8
0.0007	0.003	0.003	0.0015	27.6
0.0202	0.003	0.0187	0.0015	27.4
0.0142	0.0015	0.0255	0.0007	27.3
-0.0173	0.0015	0.0202	0.0007	27.3
-0.0158	-0.0008	0.009	0.0007	27.2
0.0142	-0.0008	-0.003	0.0007	27
0.0292	0.0007	-0.0135	0.0007	27
0.024	0.003	-0.0165	0.0022	26.7
0.0487	0.0052	-0.0105	0.0015	26.8
0.081	0.0045	-0.0053	0.0007	26.8
0.042	0.0007	0.003	-0.003	26.6
-0.0346	0.0007	0.0172	-0.0038	26.5
-0.09	0.0037	0.0165	-0.0038	26.5
-0.1478	-0.0008	0.0142	-0.0046	26.6
-0.15	-0.0008	0.0217	-0.0008	26.4
-0.0623	0.003	0.0232	0.003	26.2
0.0052	0.003	0.0165	0.003	26.1
0.0135	0.0045	0.0097	0.0022	26.1
0.0195	0.0015	0.0097	-0.0015	26.1
0.0165	-0.0008	0.009	-0.003	26.1
0.0015	0.0007	0.0052	-0.0015	25.8
0.0045	0.0022	0.0015	-0.0015	25.9
0.0217	0.003	0.0022	0.0007	25.5
0.0367	0.003	0.0045	0.003	25.9
0.0495	0.0052	-0.0068	0.0052	25.6
0.0345	0.006	-0.0165	0.0045	25.4
0.0142	0.0045	-0.0233	0.003	25.5
0.0232	0.0022	-0.024	0.003	25.2
0.0502	0.0007	-0.0158	0.0015	25.4
0.0307	-0.0015	-0.0046	-0.0008	25.1
0.0045	-0.0046	0.0097	-0.0046	25.2
0.018	-0.0053	0.0172	-0.003	25.1
-0.0075	-0.0053	0.012	-0.003	25
-0.0098	-0.0053	0.0067	-0.0038	25
0.018	-0.0038	0.0052	-0.003	24.9
0.0067	-0.0038	-0.0046	-0.0015	24.7
-0.024	-0.003	-0.0128	-0.0015	24.7
-0.0195	-0.0008	-0.0068	0.0007	24.7
0.0292	0.0015	-0.003	0.0037	24.7
0.0157	0.0015	-0.003	0.006	24.7
0.0045	0.0015	0.003	0.009	24.4
0.0037	0.0007	0.0097	0.009	24.5
-0.0638	-0.0008	0.0142	0.0097	24.3
-0.0945	0.0007	0.0165	0.0112	24.4
-0.042	0	0.0165	0.0105	24.3
-0.0046	-0.0046	0.0105	0.0067	24.2
-0.0158	-0.0053	0.0022	0.0052	24.2
-0.0046	-0.0023	-0.006	0.0082	24
0.012	0.0022	-0.0135	0.012	24.1
0.0307	0.0052	-0.0143	0.0127	24
0.0457	0.0052	-0.0158	0.012	23.7
0.0465	0.0037	-0.0158	0.0082	23.8
0.0307	0.0022	-0.012	0.003	23.6
0.0037	-0.0015	-0.0105	0	23.8
-0.0098	-0.0038	-0.0128	-0.003	23.5
-0.0225	-0.003	-0.012	-0.003	23.7
-0.003	-0.0015	-0.0046	-0.0038	23.7
0.0015	-0.0008	-0.0015	-0.006	23.4
-0.0128	-0.0008	-0.0008	-0.0053	23.5
-0.0353	-0.0008	-0.0008	-0.0068	23.3
-0.054	-0.0023	0.0007	-0.0083	23.3
-0.0158	-0.003	0.0007	-0.0083	23.1
0.0135	0.0007	0.0045	-0.0083	23
0.0172	0.0015	0.006	-0.0053	23.2
0.0157	0.0052	0.006	0	23.1
0.0045	0.009	0.0067	0.0015	23
-0.0105	0.0082	-0.0023	0.0015	23
-0.0053	0.006	-0.006	0.0007	22.7
0.0045	0.0045	-0.0075	0	22.9
0.0052	0.0045	-0.0113	0.003	22.8
0.0157	0.003	-0.0128	0.0037	22.7
0.0217	0.0052	-0.012	0.0045	22.7
0.0232	0.0067	-0.0068	0.0045	22.5
0.0165	0.0037	-0.0053	0.0007	22.7
0.0165	0.0015	-0.0105	-0.0015	22.4
0.009	0.0015	-0.0143	-0.0015	22.5
0	0.0015	-0.0128	0	22.4
-0.0015	-0.0008	-0.0091	0.0015	22.2
-0.0046	-0.0023	-0.003	0.0007	22.3
0	-0.0038	0	-0.0015	22.2
0.003	-0.0008	0.0105	-0.0015	22.2
0.003	0.0015	0.0142	-0.003	22.2
0.0022	0	0.0082	-0.0046	22
0.0067	-0.0008	0.0052	-0.0046	22.1
0.003	0	0.0037	-0.003	22
0	0.0007	0.003	-0.0023	22
-0.0091	-0.0008	0.0052	-0.0038	22
-0.0233	0	0.012	-0.0015	21.9
-0.0158	0.0007	0.0165	0.0015	22
0	0.0015	0.0082	0.0037	21.7
0.0007	0.003	0.0052	0.0045	21.9
0.003	0.0007	0.0067	0.003	21.6
0.0232	-0.0008	0.0015	0.003	21.7
0.0292	-0.0015	-0.003	0.0015	21.8
0.0217	-0.0015	-0.0053	0.0007	21.5
0.0022	-0.003	-0.0068	0.0015	21.5
-0.0405	-0.0046	-0.0046	0.0007	21.5
-0.063	-0.0015	0.0007	0	21.4
-0.0346	-0.0015	0.0037	0.0007	21.5
0.0075	-0.0015	0.0045	0.0015	21.3
0.0262	-0.0015	0.0112	0.0007	21.5
0.0202	-0.0008	0.009	0	21.2
0.0112	-0.0008	-0.0075	-0.0015	21.3
0.009	0	-0.0181	-0.0015	21.2
0.0127	0.0052	-0.0068	0.003	21
0.0082	0.0105	0.0082	0.0067	21.1
-0.0075	0.009	0.0202	0.0075	21.1
-0.0113	0.0052	0.0225	0.0052	21
0.0067	0.0022	0.012	0.0037	21
0.0135	0	0.0015	0.0015	20.9
-0.003	0	0.0022	0.0007	20.9
-0.0053	-0.0015	0.0097	-0.0015	21
-0.0083	-0.003	0.0105	-0.003	20.8
-0.0046	0.003	0.0052	0.0015	20.9
0.012	0.0075	0.0007	0.0045	20.7
0.0262	0.0067	-0.0015	0.003	20.9
0.051	0.0067	-0.0091	0	20.5
0.0787	0.006	-0.0188	-0.0015	20.6
0.0742	0.0045	-0.0278	-0.0008	20.7
0.0397	0.0037	-0.03	-0.003	20.5
0.0067	0.0015	-0.015	-0.003	20.7
-0.0256	0.003	0.0075	-0.003	20.5
-0.042	-0.0008	0.021	-0.003	20.7
-0.0518	-0.0023	0.0255	-0.0015	20.5
-0.057	-0.0015	0.0217	-0.003	20.5
-0.0615	-0.003	0.0127	-0.003	20.5
-0.066	-0.0015	0.0105	-0.0038	20.4
-0.0278	-0.0046	0.012	-0.0053	20.4
-0.0038	-0.0068	0.0127	-0.0083	20.5
-0.0165	-0.0068	0.0082	-0.0068	20.4
-0.0098	-0.0068	0.003	-0.0053	20.3
-0.0015	-0.003	-0.0046	-0.0023	20.2
-0.0008	-0.0015	-0.0068	0.003	20.2
0.0037	-0.0023	-0.0008	0.0045	20.4
0.0022	0	-0.0075	0.0067	20
0.0045	0.003	-0.0075	0.0127	20.2
0.0135	0.0082	-0.0091	0.0165	20
0.0127	0.0097	-0.0135	0.0157	20.2
0.018	0.0082	-0.0053	0.0142	20.1
0.0292	0.0067	-0.0053	0.0127	20
0.0277	0.0045	-0.0083	0.0067	20.2
0.0277	0.0022	-0.0091	0.0007	19.8
0.0217	-0.0008	-0.0105	-0.003	19.8
0.0307	-0.0008	-0.0135	-0.0046	19.9
0.0532	-0.003	-0.0195	-0.0068	19.8
0.0555	-0.0046	-0.027	-0.0053	19.8
0.039	-0.0046	-0.03	-0.0038	19.7
0.0165	-0.0053	-0.0203	-0.003	19.8
-0.0105	-0.0015	-0.0083	-0.0038	19.8
-0.0361	-0.003	0.0112	-0.0038	19.7
-0.0518	-0.0015	0.027	-0.0015	19.6
-0.0683	0.0007	0.0367	-0.0023	19.6
-0.0743	0.0015	0.0472	-0.003	19.7
-0.063	0.0007	0.039	-0.003	19.6
-0.0346	0.0007	0.018	-0.0015	19.5
-0.0158	0.003	0.003	-0.0008	19.5
-0.0113	0	-0.003	-0.0008	19.4
-0.003	0.0007	-0.0053	0.0015	19.6
-0.0023	0.0037	-0.0068	0.0045	19.3
0.0045	0.0045	-0.0053	0.0052	19.3
0.009	0.0037	-0.0068	0.0075	19.4
0.012	0.003	-0.0091	0.0052	19.2
0.018	0.0045	-0.012	0.0045	19.3
0.021	0.003	-0.012	0.003	19.3
0.0247	0.0037	-0.0083	0.0015	19
0.0225	0.003	-0.0091	0.0007	19.1
0.024	0.0037	-0.0091	-0.003	18.9
0.018	0.0015	-0.0053	-0.003	19.3
0.0082	-0.0008	0	-0.0038	19
0.0105	0.0007	0.0015	-0.003	19.1
0.0135	-0.0015	-0.0015	-0.0015	18.9
0.0075	-0.0015	0	-0.0015	18.9
0.0007	-0.0023	0.0022	0.0007	18.9
0	-0.0023	0.003	0.0007	18.7
-0.0075	-0.003	-0.0015	-0.0015	18.9
-0.0091	-0.003	-0.0053	-0.0023	18.8
-0.012	-0.0046	-0.0008	-0.0015	18.7
-0.0203	-0.0038	-0.003	-0.0008	18.8
-0.0173	-0.0023	-0.0008	0.0015	18.6
-0.0135	-0.0015	0.0045	0.003	18.7
-0.0143	0.0007	-0.0008	0.006	18.6
-0.0068	0.0045	0.0015	0.0082	18.5
0.0067	0.0067	0.0007	0.009	18.7
0.0112	0.0082	0.003	0.0075	18.4
0.018	0.0045	0.0045	0.003	18.5
0.012	0.003	-0.006	0.0045	18.2
0.0082	0.0052	-0.006	0.006	18.3
0.0142	0.0052	-0.0015	0.0052	18.4
0.021	0.0045	0.0015	0.003	18.3
0.0277	0.003	0.0052	0.0015	18.5
0.0195	0.003	0.0105	0.0015	18.3
0.0067	0.0007	0.0105	0	18.3
0.006	-0.0023	0.003	0.0015	18.4
0.003	-0.003	-0.0023	0.0022	18.2
-0.0038	-0.0023	-0.0053	0	18.3
-0.0046	-0.0015	-0.0105	-0.0015	18.2
-0.0105	-0.0023	-0.0091	-0.0008	18.2
-0.0181	-0.0015	-0.003	-0.0008	18.4
-0.0203	0.0015	-0.0015	-0.0015	18.2
-0.0293	0.0052	0.0075	-0.0008	18.2
-0.033	0.0067	0.018	-0.0038	18
-0.0256	0.0052	0.0195	-0.0068	18
-0.003	0.0082	0.0135	-0.003	18.1
0.018	0.0067	0.0097	-0.0015	18.1
0.0352	0.0045	0.0067	-0.003	18.2
0.0637	0.0007	-0.0075	-0.0008	17.9
0.0795	-0.0015	-0.0203	-0.0008	18
0.0742	-0.003	-0.0233	-0.0015	18
0.0412	-0.0046	-0.0188	-0.003	18
0.006	-0.0046	-0.0091	-0.0008	18
-0.0405	-0.0053	-0.0008	0.0015	17.9
-0.0803	-0.0046	0.012	0	18.1
-0.0698	-0.0053	0.0232	-0.003	18
-0.0728	-0.0091	0.0307	-0.003	17.9
-0.0735	-0.0083	0.0255	-0.0008	18.1
-0.0428	-0.0046	0.018	0.0045	17.9
-0.0165	-0.0015	0.0075	0.009	18
0.012	0.0052	-0.006	0.012	17.9
0.0232	0.0082	-0.0008	0.0135	18
0.0255	0.009	0.0015	0.0127	17.9
0.024	0.0067	-0.0068	0.0067	17.8
0.024	0.0045	-0.0083	0.003	17.8
0.0232	0.0037	-0.012	0.0015	17.6
0.018	0.0022	-0.012	0.0007	17.7
0.015	0.0022	-0.0143	0.0007	17.7
0.0097	0.003	-0.0158	0.0007	17.6
0.0195	0.0037	-0.0135	0.0015	17.8
0.0382	0.0037	-0.012	0.003	17.6
0.045	0.0015	-0.0128	0.0037	17.5
0.0255	0.0015	-0.0113	0.0022	17.6
-0.0091	0.0015	-0.0143	0.0015	17.4
-0.0181	-0.0008	-0.0113	0.0007	17.6
-0.012	0.0007	-0.0068	-0.0015	17.5
0.0105	0	-0.0075	-0.0015	17.5
0.0525	-0.0015	-0.0113	0	17.3
0.063	-0.0023	-0.0165	0.0007	17.4
0.045	0.0007	-0.0203	0.0022	17.4
0.0322	0.0015	-0.0158	0.0015	17.2
0.0045	0	-0.0091	-0.003	17.4
-0.0428	-0.0023	-0.0015	-0.003	17.4
-0.066	-0.003	0.0052	-0.003	17.1
-0.057	-0.0053	0.0187	-0.003	17.2
-0.0668	-0.0038	0.0307	-0.0008	17
-0.075	-0.0015	0.0262	-0.0008	17.2
-0.0578	-0.0008	0.021	-0.0008	17
-0.0278	0.0022	0.0165	0	17.2
-0.0046	0.0045	0.0112	-0.0008	17
0.0007	0.0067	0.0112	0	16.8
0.0015	0.0082	0.009	-0.0008	16.9
-0.0038	0.0075	0.0082	-0.0015	16.8
0.0007	0.0045	0.0052	-0.003	16.9
0.0067	0.006	0.003	-0.0015	16.7
0.0165	0.0067	-0.0038	0.0015	16.6
0.0352	0.0052	-0.0158	0.003	16.7
0.051	0.0045	-0.0308	0.0022	16.4
0.057	0.003	-0.042	0.0015	16.4
0.0585	0.0015	-0.033	0.0007	16.4
0.0187	0.0015	-0.0165	0.0007	16.4
-0.0503	0.0015	0.0007	-0.0008	16.6
-0.0518	-0.0008	0.0022	-0.0023	16.2
-0.0038	-0.0015	-0.0046	-0.003	16.4
0.0202	-0.0008	0.006	-0.0046	16.4
0.0127	-0.003	0.0247	-0.0083	16.2
0.0022	-0.0046	0.0382	-0.0083	16.2
-0.024	-0.003	0.0345	-0.0046	16.1
-0.0143	0.003	0.021	0.0022	16.2
0.033	0.0075	0.012	0.0067	16
0.066	0.0082	-0.0008	0.0082	16.2
0.069	0.0067	-0.0135	0.006	15.9
0.0262	0.0007	-0.0165	0.0015	15.9
-0.0053	-0.0023	-0.0105	0.0007	16.1
-0.0293	-0.003	0.0097	0.0022	16.1
-0.0765	-0.0023	0.0292	0.003	15.9
-0.0638	-0.0008	0.0292	0.0015	15.9
-0.0285	-0.0053	0.0202	-0.0046	15.9
-0.0353	-0.0046	0.009	-0.0038	16
-0.0323	-0.003	-0.0083	-0.003	15.8
-0.0218	-0.0015	-0.0173	-0.0008	15.8
-0.003	0.003	-0.0181	0.0045	15.8
0.006	0.0067	-0.0128	0.0082	15.7
0.0127	0.0082	-0.0128	0.006	15.8
0.018	0.0067	-0.0195	0.0045	15.6
0.0135	0.003	-0.0248	0.0052	15.8
0.0217	0.0007	-0.0203	0.0022	15.7
0.033	-0.0015	-0.0091	0.0015	15.7
0.039	-0.0023	-0.0091	0.0007	15.8
0.0202	-0.0038	-0.015	-0.0023	15.6
-0.0068	-0.0068	-0.0046	-0.003	15.7
-0.0098	-0.0083	0.0195	-0.0015	15.7
-0.0008	-0.0068	0.027	-0.0008	15.7
0.0015	-0.0046	0.0217	0	15.8
-0.0038	-0.0053	0.0112	-0.003	15.6
-0.0158	-0.0083	-0.0008	-0.0046	15.7
-0.0248	-0.0075	-0.0023	-0.0015	15.7
-0.0195	-0.0008	0.0015	0.0052	15.7
0.0052	0.0052	0.0105	0.0105	15.7
0.027	0.0052	0.0007	0.0097	15.5
0.0352	0.0067	-0.0083	0.009	15.4
0.0555	0.0052	-0.0083	0.0067	15.4
0.0532	0.003	-0.003	0.0045	15.6
0.0165	0.0015	0.0067	0.0045	15.6
-0.0091	0.0007	-0.003	0.0045	15.3
-0.0195	-0.0015	-0.0098	0.003	15.6
-0.0293	-0.0046	-0.0098	-0.0008	15.3
-0.0256	-0.0046	-0.0038	0	15.5
-0.0015	-0.0053	-0.0015	-0.0015	15.5
-0.0008	-0.0038	0	-0.003	15.5
-0.0068	-0.003	0.0052	-0.0008	15.4
-0.003	-0.0038	0.0067	-0.0015	15.3
-0.012	-0.0023	0.015	-0.0015	15.3
-0.0135	0.0007	0.0082	0.0022	15.3
-0.015	0.006	0.0082	0.0045	15.2
-0.0128	0.0097	0.0202	0.0082	15.5
0.0075	0.0112	0.009	0.0097	15.3
0.0202	0.012	-0.0053	0.0097	15.3
0.0225	0.0105	-0.0015	0.0082	15.3
0.0217	0.0067	-0.006	0.0067	15.3
0.015	0.0052	-0.006	0.006	15.2
0.012	0.0045	-0.0015	0.0037	15.1
0.0007	0.003	-0.003	0.0015	15.1
-0.0083	0.0015	0.003	0.0015	15.3
-0.0091	-0.0008	0.0037	-0.0008	15.1
-0.0068	-0.0015	0.0007	-0.0023	15
0.0045	-0.0015	-0.0046	-0.0023	14.9
0.0225	-0.0015	-0.0165	-0.0046	14.9
0.0435	-0.0015	-0.024	-0.0068	14.8
0.0495	-0.0008	-0.027	-0.0068	14.7
0.012	0	-0.0165	-0.0075	14.9
-0.0428	-0.0015	-0.0068	-0.0083	14.7
-0.0323	-0.0008	-0.0023	-0.0083	15
-0.0083	0	0.0052	-0.0083	14.7
-0.0128	-0.0046	0.0082	-0.0091	14.8
-0.0008	-0.0091	0.009	-0.0113	14.7
-0.0315	-0.0053	0.0127	-0.0083	14.6
-0.0863	0.0007	0.0157	-0.0038	14.7
-0.0615	0.0037	0.0165	-0.0015	14.5
-0.0233	0.0045	0.0105	0.003	14.4
-0.0083	0.006	0.0022	0.0075	14.4
0.0015	0.0082	-0.003	0.009	14.4
0.003	0.009	-0.003	0.0082	14.4
0.0067	0.0097	0.006	0.0075	14.3
0.0045	0.009	0.0052	0.0067	14.4
0.0142	0.0067	-0.0023	0.0022	14.2
0.0352	0.0067	0	0	14.4
0.0517	0.0045	-0.0023	-0.0008	14.1
0.075	0.0022	-0.012	-0.0008	14
0.1027	0.0007	-0.024	-0.0008	14
0.1095	-0.0023	-0.0361	-0.0023	13.9
0.0787	-0.0038	-0.0233	-0.0008	14.2
0.0015	-0.003	0.003	0.0007	14
-0.0983	-0.0015	0.0292	-0.0015	13.9
-0.1658	-0.0053	0.045	-0.0053	13.9
-0.1223	-0.0075	0.048	-0.0068	13.8
-0.0443	-0.0046	0.0367	-0.0046	13.9
-0.0203	-0.0038	0.0142	-0.0046	13.9
-0.003	-0.0053	0.0045	-0.003	13.6
0.0015	-0.0008	0	0	13.9
-0.0023	0.0015	-0.006	0.0015	13.5
-0.0181	0.0015	-0.0083	0.0007	13.7
-0.0203	0.0037	-0.0053	-0.0015	13.6
-0.0128	0.0082	0.0007	0.0045	13.6
-0.0023	0.0135	-0.0015	0.0097	13.5
0.0232	0.015	-0.0195	0.0127	13.4
0.033	0.0142	-0.021	0.0127	13.6
0.0345	0.0105	-0.0091	0.0075	13.3
0.0315	0.006	-0.0046	0.0052	13.5
0.0307	0.0045	0.0015	0.003	13.5
0.0232	0.0015	-0.0023	0	13.5
0.021	-0.0008	-0.0068	-0.0023	13.4
0.0285	-0.003	-0.0135	-0.0015	13.4
0.0307	-0.0053	-0.0293	-0.0008	13.3
0.0285	-0.0053	-0.0346	-0.0008	13.3
0.039	-0.006	-0.027	-0.0008	13.3
0.0465	-0.0068	-0.0128	-0.0038	13.3
0.0315	-0.0075	0.0037	-0.0053	13.1
0.0165	-0.0098	0.0105	-0.0068	13.3
-0.0188	-0.0083	0.012	-0.0068	13.2
-0.0691	-0.0091	0.015	-0.0083	13.3
-0.105	-0.0091	0.0195	-0.006	13.3
-0.075	-0.0053	0.0292	0.0015	13.1
-0.027	0.003	0.0352	0.0075	13.2
-0.0181	0.0067	0.0217	0.0082	13.1
-0.0158	0.006	0.0067	0.0082	13.1
-0.015	0.0052	0.0067	0.0105	13
0.003	0.006	0.0082	0.0157	13.1
0.0202	0.009	-0.0015	0.0165	13
0.0255	0.0045	-0.006	0.0112	13.2
0.027	0	-0.0015	0.0075	13
0.0277	-0.0015	-0.0075	0.003	13
0.0315	-0.0046	-0.0128	-0.0023	13
0.0322	-0.0068	-0.0203	-0.0053	13.1
0.0315	-0.0091	-0.0315	-0.0068	13
0.0277	-0.0091	-0.0308	-0.0068	13
0.027	-0.0098	-0.0181	-0.0083	12.8
0.0142	-0.0091	-0.0015	-0.0083	13
-0.0053	-0.0083	0.0015	-0.006	13
-0.021	-0.0083	-0.0008	-0.0091	13
-0.0383	-0.0091	0.0015	-0.0105	13
-0.0368	-0.0046	0.0022	-0.0053	12.8
-0.0248	0.0037	0	0.003	13
-0.0068	0.0105	0.009	0.009	12.9
0.0105	0.0135	0.018	0.009	12.9
0.0195	0.0127	0.0052	0.0082	12.8
0.0292	0.0097	-0.0083	0.0045	12.6
0.0375	0.0082	-0.0098	0.0007	12.7
0.0435	0.009	-0.0083	0	12.8
0.0517	0.0075	-0.006	-0.0046	12.6
0.0315	0.0037	-0.0023	-0.0068	12.8
-0.0225	0.0007	0.0052	-0.0046	12.5
-0.054	-0.0008	0.0082	-0.003	12.8
-0.0578	-0.003	0.0075	-0.0053	12.7
-0.0428	-0.0038	-0.0015	-0.0046	12.6
-0.0158	-0.003	-0.0091	-0.0046	12.5
-0.0068	-0.003	-0.0083	-0.003	12.5
0.0007	-0.0023	-0.0046	-0.0008	12.5
0.0082	-0.003	-0.0046	-0.0008	12.5
-0.0068	-0.0023	-0.0098	0.0037	12.4
-0.0158	-0.0008	-0.0068	0.0052	12.3
0.0082	0.0007	0.0037	0.0052	12.3
0.0202	0	0.0127	0.0045	12.4
0.0255	0.0007	0.0195	0.0015	12.3
0.0315	0	0.0187	0.0007	12.3
0.0037	-0.003	0.0037	-0.0015	12.1
-0.0195	-0.0008	-0.0053	-0.0015	12.1
-0.048	0.0015	-0.0038	-0.0008	12.1
-0.0608	0.0037	-0.0053	0.0022	12
-0.0323	0.009	0.0007	0.0067	12.1
-0.0173	0.0105	0.0007	0.0067	11.8
-0.0083	0.0082	-0.003	0.0052	11.9
0.0075	0.006	0.0165	0.0052	11.9
0.0202	0.0052	0.0232	0.0067	11.7
0.0427	0.006	0.0045	0.006	11.8
0.069	0.0015	-0.0143	0.0007	11.7
0.0892	-0.0023	-0.0315	0.0015	11.7
0.078	0	-0.0308	0.003	11.6
0.078	-0.0015	-0.0256	0.003	11.6
0.0667	-0.0015	-0.024	0.0015	11.7
-0.0046	-0.003	-0.0165	-0.0023	11.5
-0.0713	-0.0068	0.0037	-0.0046	11.5
-0.135	-0.0053	0.0397	-0.0046	11.6
-0.1215	-0.0053	0.0532	-0.0083	11.5
-0.0375	-0.0091	0.0352	-0.012	11.5
-0.0436	-0.0128	0.0262	-0.0165	11.3
-0.0795	-0.0135	0.018	-0.0158	11.5
-0.084	-0.0091	0.0262	-0.0098	11.2
-0.0525	0.0075	0.0352	0.0052	11.3
-0.0091	0.0277	0.0292	0.0217	11.2
0.0157	0.039	0.0127	0.0285	11.4
0.0517	0.036	-0.0143	0.0262	11.2
0.0525	0.0225	-0.0181	0.0172	11.2
0.0427	0.0142	-0.0053	0.0082	11.2
0.036	0.0067	-0.0038	0.003	11.2
0.0247	0.003	-0.0015	-0.0008	11.1
0.027	0.0015	-0.006	-0.0008	11.1
0.021	-0.0015	-0.0053	-0.003	11.1
0.021	-0.0038	-0.0046	-0.0046	11
0.0142	-0.0053	-0.012	-0.0038	11
0.0127	-0.0046	-0.0158	-0.0015	10.8
0.0127	-0.0075	-0.0188	-0.0023	11
0.0105	-0.0083	-0.0165	-0.003	10.9
0.0082	-0.0098	-0.0113	-0.0046	10.9
0.0097	-0.0105	-0.0143	-0.0053	10.9
0.0142	-0.0083	-0.0158	-0.0046	10.8
0.0037	-0.0053	-0.0158	-0.003	11
-0.0008	-0.0046	-0.0158	-0.0038	10.7
-0.0075	-0.0053	-0.0181	-0.0053	10.7
-0.0195	-0.0053	-0.0218	-0.0053	10.7
-0.0181	-0.0015	-0.0173	-0.003	10.6
-0.0046	0.0007	-0.003	-0.0015	11
0.0075	0.0015	0.0022	0.0015	10.7
0.009	0.0045	-0.0008	0.0052	10.8
0.0052	0.0052	0.006	0.0045	10.7
0.0067	0.0015	0.0127	0.0015	10.7
0.0112	-0.003	0.003	0.0015	10.6
0.0217	-0.0023	-0.0128	0.0007	10.6
0.0292	-0.0008	-0.0263	-0.0008	10.7
0.0217	0	-0.0248	-0.0008	10.5
0.0127	-0.0008	-0.0068	-0.0008	10.7
0.009	-0.0008	0.0037	0.0015	10.7
0.0067	0.0007	0.0037	0.0007	10.6
0.0007	-0.0053	-0.0015	-0.0038	10.6
-0.0181	-0.0083	-0.003	-0.0068	10.6
-0.033	-0.0083	0.009	-0.0053	10.4
-0.0315	0	0.018	0.0045	10.6
-0.0263	0.0142	0.0127	0.0142	10.4
-0.0008	0.0165	0.0097	0.0142	10.6
0.0045	0.0105	0.003	0.0112	10.5
-0.0135	0.009	0.0022	0.009	10.3
-0.0143	0.0105	0.0067	0.0105	10.4
-0.0083	0.0127	0.0082	0.0165	10.3
0.0067	0.018	0.0142	0.0172	10.5
0.0157	0.0142	0.009	0.0112	10.3
0.021	0.0052	-0.0008	0.0045	10.4
0.0352	-0.0008	-0.003	0.0007	10.3
0.0637	-0.0038	-0.0165	-0.003	10.2
0.093	-0.006	-0.033	-0.0091	10.2
0.0952	-0.0083	-0.042	-0.0105	10.1
0.0532	-0.0091	-0.0263	-0.012	10.3
-0.0158	-0.0068	0.0157	-0.0105	10.2
-0.0615	-0.0075	0.033	-0.0113	10.2
-0.0856	-0.012	0.0172	-0.0135	10.2
-0.0983	-0.0128	0.0157	-0.0143	10.1
-0.12	-0.0158	0.024	-0.0181	10.2
-0.1095	-0.012	0.0307	-0.012	10.1
-0.057	0	0.0337	0.0007	10.1
0.0045	0.0082	0.0307	0.0075	10.1
0.024	0.0067	0.027	0.009	9.9
0.0082	0.003	0.0165	0.0067	10.1
-0.0046	0.003	0.015	0.0045	10
-0.0023	0.0045	0.0262	0.0067	9.9
0.0217	0.009	0.0127	0.0142	10
0.0247	0.0142	0.0082	0.0142	9.9
0.0292	0.0105	0.0127	0.0075	9.8
0.027	0.0052	-0.0008	0.003	9.9
0.0202	0.0022	-0.0083	-0.0008	9.8
0.0217	-0.0023	-0.0075	-0.003	9.8
0.018	-0.0046	-0.0105	-0.0038	9.6
0.018	-0.0046	-0.0128	-0.0053	9.7
0.012	-0.003	-0.0181	-0.0053	9.5
0.0142	-0.0046	-0.0135	-0.0046	9.6
0.0052	-0.0046	-0.0091	-0.003	9.5
-0.0046	-0.0023	-0.0105	-0.0008	9.5
-0.0046	-0.0023	-0.0091	-0.0008	9.5
0.0007	-0.0023	-0.0091	0.0015	9.5
0.006	-0.0008	-0.012	0.0037	9.3
-0.003	-0.0008	-0.0181	0.0022	9.3
-0.0053	-0.0015	-0.0233	0.0015	9.4
-0.0008	-0.0023	-0.024	-0.0008	9.3
-0.0015	-0.003	-0.0165	0.0007	9.2
0.0045	-0.003	-0.0091	0.003	9.3
0.0052	-0.0008	-0.003	0.0045	9.1
-0.0128	-0.0015	-0.0008	0.003	9.1
-0.015	-0.0038	-0.0091	0.0007	9.2
-0.0083	-0.0008	-0.012	0.0022	9
-0.003	0.0037	0.0007	0.0037	9
0.0315	0.0045	0.0105	0.006	9.1
0.0705	0.0082	-0.0053	0.0082	9
0.0547	0.0082	-0.0113	0.0075	9
0.0172	0.0082	0	0.0045	8.9
0.006	0.0045	0.0157	-0.0008	8.9
-0.054	-0.0015	0.033	-0.0015	8.7
-0.0788	-0.0038	0.0345	-0.003	9
-0.0285	-0.006	0.0307	-0.0068	8.7
-0.0203	-0.0046	0.018	-0.003	9
-0.0285	-0.0023	-0.0075	-0.0046	8.7
-0.0375	-0.0008	-0.0165	-0.0046	8.7
-0.0181	0.003	-0.0218	-0.0008	8.8
0.0045	0.0097	-0.0158	0.0052	8.6
0.0045	0.0142	-0.0083	0.009	8.5
0.009	0.0105	-0.0068	0.0045	8.7
-0.0046	0.0082	-0.0068	0.0037	8.6
0.003	0.009	0.0015	0.0045	8.7
0.009	0.009	0.0112	0.0015	8.7
0.0105	0.0082	0.0052	-0.0015	8.7
0.0352	0.003	-0.0046	-0.006	8.7
0.0622	-0.0015	-0.0278	-0.0068	8.5
0.1065	-0.0053	-0.054	-0.0083	8.7
0.144	-0.006	-0.042	-0.0098	8.5
0.1155	-0.0091	-0.0165	-0.0105	8.7
0.036	-0.012	0.0015	-0.0105	8.5
-0.057	-0.012	0.027	-0.0105	8.7
-0.1515	-0.0173	0.0337	-0.0128	8.7
-0.18	-0.024	0.0187	-0.0165	8.6
-0.1328	-0.0233	0.0052	-0.0158	8.6
-0.0818	-0.0015	0.0052	0	8.7
-0.0405	0.0202	0.024	0.0157	8.7
-0.0038	0.0202	0.0285	0.0202	8.9
0.0307	0.0195	0.0202	0.021	8.8
0.048	0.0202	0.0157	0.0165	8.8
0.042	0.0172	0.0097	0.0127	8.6
0.0405	0.0127	-0.0008	0.0105	8.9
0.033	0.0075	-0.0008	0.0052	8.7
0.0247	0.0015	0	0.0015	8.9
0.0217	-0.003	-0.003	-0.0015	8.7
0.0217	-0.0053	-0.003	-0.0046	8.7
0.021	-0.0083	-0.012	-0.0075	8.8
0.027	-0.0091	-0.0143	-0.0091	8.6
0.0307	-0.0091	-0.0195	-0.0091	8.9
0.0367	-0.0098	-0.0278	-0.0083	8.8
0.0547	-0.0105	-0.0346	-0.0083	8.6
0.0547	-0.0105	-0.0405	-0.0083	8.7
0.0427	-0.0091	-0.0398	-0.0068	8.7
0.018	-0.0075	-0.03	-0.0046	8.7
-0.0428	-0.0068	0.0045	-0.0046	8.9
-0.093	-0.006	0.0277	-0.003	8.7
-0.0953	-0.0046	0.0202	-0.0015	9
-0.0698	-0.0038	0.0157	-0.0023	8.6
-0.0533	0.0037	0.0165	0.0052	8.7
-0.0368	0.0127	0.0285	0.012	8.7
-0.015	0.0142	0.042	0.0135	8.7
0.0105	0.0157	0.0352	0.0157	8.7
0.0232	0.012	0.027	0.0135	8.8
0.018	0.012	0.021	0.0142	8.7
0.0157	0.0142	0.012	0.0142	8.7
0.009	0.0097	0.0037	0.0082	8.6
0.0067	0.0045	0.003	0.0075	8.8
0.0127	0.0022	0.0037	0.0075	8.5
0.0165	-0.0008	0.0007	0.0037	8.8
0.0232	-0.0038	-0.0015	0.003	8.5
0.027	-0.0046	-0.0105	0.0015	8.6
0.0307	-0.003	-0.0158	-0.0008	8.5
0.048	-0.0083	-0.0165	-0.006	8.5
0.06	-0.0128	-0.0315	-0.0068	8.4
0.0555	-0.0113	-0.048	-0.0046	8.5
0.0517	-0.012	-0.0525	-0.0053	8.5
0.0255	-0.0113	-0.0165	-0.0083	8.4
-0.0323	-0.0075	0.0292	-0.0083	8.5
-0.0728	-0.0046	0.0465	-0.0068	8.3
-0.0968	-0.0023	0.039	-0.0083	8.3
-0.1155	-0.0015	0.0157	-0.012	8.4
-0.1283	-0.003	0.0195	-0.0113	8.4
-0.1006	0.0067	0.033	0.003	8.3
-0.0353	0.033	0.0292	0.0255	8.4
0.0157	0.0397	0.0052	0.0277	8.3
0.0352	0.0315	-0.0181	0.021	8.4
0.033	0.0255	-0.0165	0.015	8.1
0.024	0.0195	-0.0181	0.0067	8.2
0.015	0.0142	-0.0143	0.0045	8.1
0.0225	0.009	-0.0046	0.003	8.2
0.0285	0.0045	-0.0046	-0.0008	8.4
0.0262	-0.0008	-0.0128	-0.0015	8.2
0.0232	-0.0046	-0.0105	-0.0053	8.4
0.015	-0.0068	-0.0046	-0.0083	8.1
0.0067	-0.0075	-0.0023	-0.0068	8.4
0.0105	-0.0091	-0.006	-0.0083	8.2
0.012	-0.0098	-0.0181	-0.0075	8.2
0.012	-0.0105	-0.0233	-0.006	8.2
0.018	-0.0105	-0.027	-0.0068	8.1
0.0172	-0.0091	-0.0181	-0.0068	8.2
0.0142	-0.0083	-0.0023	-0.0083	8.3
0.0202	-0.0091	0.0007	-0.0083	8.2
0.009	-0.0083	-0.003	-0.006	8.4
-0.0143	-0.0053	0.003	-0.0046	8.1
-0.003	-0.0015	0.0112	-0.0015	8.1
-0.0015	0.0015	0.0142	0.0015	8.1
-0.0173	0.0037	0.0367	0.003	8.3
-0.012	0.0015	0.0292	0.0022	8.2
0.0007	0.003	-0.0068	0.0045	8.1
0.0135	0.006	-0.015	0.0045	8.4
0.0045	0.003	-0.0068	0.0067	8.1
0.003	0.006	0.0015	0.009	8.2
-0.0038	0.0082	0.0052	0.0067	8.2
-0.0068	0.0045	0.003	0.0045	8.2
-0.0015	0.0045	-0.0038	0.0015	8.2
-0.0203	0.0052	-0.0023	0	8.3
-0.012	0.0052	0.0217	-0.0008	8.2
-0.0068	0.009	0.0232	0.0037	8.2
0.009	0.012	-0.0091	0.0082	8.1
0.036	0.0067	-0.042	0.006	8.3
0.015	-0.0008	-0.0443	0.003	8.2
-0.0181	-0.0053	-0.0128	-0.003	8.3
0	-0.0135	0.0105	-0.0053	8.2
-0.0023	-0.012	0.0067	-0.003	8.2
-0.0233	-0.0091	-0.0083	-0.0023	8.1
-0.0181	-0.0083	-0.0135	-0.0023	8.2
-0.03	-0.0068	-0.0015	0.0015	8.4
-0.0143	0.0007	0.0225	0.0067	8.3
0.0052	0.0067	0.042	0.009	8.2
0.0195	0.0045	0.0225	0.009	8.4
0.0232	0.0067	-0.0015	0.0105	8.3
0.0157	0.0075	0.003	0.0067	8.4
0.0262	0.0052	0.0082	0.0045	8.2
0.0517	0.0045	-0.0008	0.0037	8.3
0.0975	0.0045	-0.021	0.0022	8.2
0.0937	0.0022	-0.0353	-0.0015	8.2
0.0457	0	-0.0315	-0.0053	8.4
-0.0098	-0.0015	-0.0181	-0.006	8.3
-0.0803	-0.0038	0.0127	-0.0075	8.4
-0.0915	-0.0053	0.0337	-0.0098	8.2
-0.024	-0.0068	0.027	-0.0113	8.4
-0.0091	-0.0075	0.0172	-0.0098	8.2
-0.0578	-0.0046	0.0195	-0.0038	8.2
-0.0615	0.003	0.0262	0	8.2
-0.0548	0.0052	0.0195	0.003	8.3
-0.0256	0.0067	-0.0053	0.0045	8.2
-0.0083	0.006	-0.0068	0.0052	8.4
-0.0091	0.0045	-0.003	0.0045	8.1
0.0082	0.0045	-0.0135	0.003	8.3
0.0142	0.0037	-0.0195	0.0022	8.1
0.0307	0.0045	-0.0181	0.0022	8.3
0.0427	0.0052	-0.0158	0.003	8.2
0.0577	0.0045	-0.0173	0.003	8.2
0.0517	0.003	-0.0188	0.0007	8.2
0.0405	-0.0023	-0.0188	-0.0038	8.1
0.0352	-0.0068	-0.0135	-0.0068	8.2
0.0067	-0.0068	0.0007	-0.0068	8.2
0.0045	-0.0046	0.0127	-0.003	8.2
-0.0023	-0.0015	0.0105	-0.0008	8.3
-0.0158	-0.0008	0.006	-0.0008	8.1
-0.0143	0.003	0.0045	0.0022	8
-0.042	0.0045	0	0.0015	8.1
-0.048	0.0007	0.0022	-0.0015	7.9
-0.0465	0	0.0142	0	8.1
-0.0443	0.003	0.0217	0.0037	7.9
-0.024	0.0052	0.0202	0.0045	8
-0.0181	0.0045	0.0232	0.0037	7.9
-0.0015	0.0045	0.0142	0.0037	8
0	0.0045	-0.0008	0.0045	7.9
0.003	0.0045	0.0022	0.0045	7.8
0.0105	0.003	0.0037	0.003	8
0.0067	0.0037	0	0.0015	7.8
0.0142	0.0015	-0.006	0.0015	7.8
0.0105	-0.0008	-0.012	0.0022	7.8
0.0075	-0.0015	-0.0105	0.0037	7.8
0.0157	-0.003	-0.012	0.0045	7.8
0.0307	-0.0038	-0.0181	0.0045	7.8
0.0517	-0.0046	-0.0188	0.0045	7.9
0.054	-0.0038	-0.0256	0.0037	7.8
0.0277	-0.0046	-0.0248	0.0015	7.6
0.0127	-0.0046	-0.006	-0.0023	7.8
-0.0038	-0.003	0.0127	-0.0038	7.7
-0.0368	-0.0046	0.0195	-0.0068	7.8
-0.0593	-0.0083	0.0232	-0.0113	7.6
-0.0638	-0.0091	0.0247	-0.0105	7.7
-0.0473	-0.0053	0.027	-0.006	7.8
-0.027	0.009	0.0382	0.006	7.5
-0.0083	0.0187	0.0307	0.0165	7.7
0.0172	0.015	0.0187	0.015	7.5
0.018	0.0135	0.003	0.0135	7.7
0.024	0.0157	-0.0105	0.0142	7.5
0.0337	0.0202	-0.0135	0.0142	7.6
0.0285	0.0165	-0.0263	0.0105	7.6
0.0322	0.0067	-0.0203	0.0082	7.6
0.0285	0.0022	-0.0128	0.0022	7.7
0.03	-0.0015	-0.0158	-0.003	7.7
0.0465	-0.0046	-0.0278	-0.0046	7.7
0.0615	-0.0091	-0.0473	-0.0098	7.7
0.0772	-0.0105	-0.0593	-0.0128	7.5
0.0712	-0.0128	-0.048	-0.0143	7.7
0.024	-0.012	-0.0135	-0.0143	7.6
-0.0165	-0.0143	0.0105	-0.0135	7.9
-0.042	-0.0173	0.0187	-0.015	7.8
-0.0735	-0.0165	0.0135	-0.0143	7.9
-0.1006	-0.0158	0.0052	-0.0143	7.8
-0.1335	-0.0113	0.0052	-0.0128	7.8
-0.1305	0.0007	0.024	-0.0008	7.9
-0.0706	0.0142	0.0532	0.015	7.8
0.0007	0.0262	0.045	0.024	7.9
0.0532	0.027	0.0232	0.0225	8
0.0652	0.0195	0.0105	0.0127	7.9
0.0457	0.0165	0.003	0.0067	7.9
0.0292	0.009	0.012	0.003	8
0.0217	0.0015	0.0067	-0.0008	8
0.0127	-0.0015	-0.003	-0.003	8.1
0.0195	-0.0038	-0.0128	-0.0046	7.9
0.0165	-0.0053	-0.024	-0.0083	8.1
0.0045	-0.0083	-0.0285	-0.0068	7.8
0.0127	-0.006	-0.0263	-0.0038	7.9
0.0367	-0.0068	-0.0173	-0.0053	7.8
0.0277	-0.0068	-0.0083	-0.0053	7.9
-0.0015	-0.0068	-0.003	-0.0083	8
-0.0278	-0.0091	-0.0135	-0.0075	7.9
-0.0473	-0.003	-0.0091	0.0007	8.1
-0.0375	0.0045	0.003	0.0052	8.1
-0.0278	0.006	0.0097	0.009	8
-0.0075	0.0127	0.0247	0.0142	8.1
0.0105	0.0142	0.0217	0.0127	7.8
0.018	0.006	0.003	0.0082	8.1
0.0165	-0.0015	-0.0046	0.0045	8
0.0082	0	0.0067	0.0052	8.2
0.012	0.0015	0.0082	0.006	8.1
0.0045	-0.0038	-0.0008	0.003	8.1
0.0105	-0.0053	-0.0023	-0.0015	8.1
0.0165	-0.0075	-0.006	-0.003	7.9
0.0225	-0.0068	-0.0091	-0.0023	8.2
0.0232	-0.0046	-0.0105	-0.0023	8.1
0.0105	-0.0046	-0.0075	-0.0015	8
0.0082	-0.0046	-0.0053	-0.0023	8.2
-0.0083	-0.0046	-0.0023	-0.0015	8.1
-0.0256	-0.0038	0.0007	-0.0008	8.1
-0.0263	-0.0046	-0.0038	0	8.1
-0.0038	-0.0046	-0.0068	0.0007	7.9
0.0015	-0.003	-0.0098	0.0007	8.1
-0.0143	-0.003	-0.0015	-0.0008	7.9
-0.012	-0.0015	0.0135	-0.0038	8.1
-0.0083	-0.0008	0.0127	-0.0038	7.9
-0.0195	0.003	0.0067	-0.0023	8.1
-0.0113	0.0067	0.012	-0.003	8
0.0015	0.0082	0.0232	-0.0015	7.8
-0.006	0.009	0.0195	-0.0015	8.1
-0.0203	0.0045	0.0172	-0.0023	7.8
-0.0293	0.0052	0.0255	0.0015	8.1
-0.0233	0.0112	0.0127	0.0105	7.8
0	0.0157	-0.0008	0.015	7.9
0.0255	0.0142	-0.0091	0.0127	7.9
0.024	0.006	-0.0158	0.0082	7.8
0.0195	0.003	-0.0105	0.0052	7.8
0.0135	0.0007	-0.0091	0.0052	7.8
0.0112	-0.0023	-0.012	0.0015	7.8
0.0277	-0.0046	-0.0143	-0.0008	7.8
0.042	-0.006	-0.0135	-0.0023	7.6
0.042	-0.0046	-0.0075	-0.0038	7.9
0.0217	-0.0038	0.0015	-0.0046	7.8
0.009	-0.0053	0.0112	-0.0068	7.9
-0.0068	-0.0068	0.0172	-0.0083	7.8
-0.0233	-0.006	0.0195	-0.0068	7.7
-0.0375	-0.0038	0.018	-0.0053	7.8
-0.0458	-0.0038	0.015	-0.0075	7.8
-0.0353	-0.0023	0.006	-0.0046	7.9
-0.0165	0.0067	-0.0023	0.003	7.8
0.0022	0.012	-0.0053	0.006	7.9
0.0007	0.0067	-0.0225	0.0052	7.8
0.0105	0.0045	-0.0548	0.0075	7.9
0.0165	0.006	-0.0428	0.0082	7.8
0.0045	0.0052	-0.0015	0.0052	8
0.003	0.0015	0.018	0.0015	7.9
0.0067	-0.0008	0.0367	0.0007	8.1
0.0082	0.0007	0.0345	-0.0015	7.9
0.0082	-0.0023	0.0217	-0.0038	8.1
0.0112	-0.0053	0.0202	-0.0046	7.9
0.0097	-0.0068	0.0165	-0.0015	8.1
0.009	-0.0008	-0.0046	0.0067	7.9
0.0112	0.0037	-0.0263	0.0075	8.1
0.0082	0	-0.0315	0.003	8.1
-0.0188	-0.0015	-0.0293	0.0007	7.9
-0.0293	-0.0015	-0.012	0.0015	8.1
-0.0113	0.0067	-0.0053	0.0082	8.1
0.0015	0.009	-0.0023	0.009	8.2
0.033	0.0052	-0.0165	0.0082	8.1
0.0457	0.0007	-0.0458	0.0045	8
0.048	-0.0046	-0.039	-0.0053	8.1
0.0562	-0.0083	-0.0278	-0.0091	8.1
0.0292	-0.0015	-0.0015	-0.0046	8.2
-0.0098	0.0105	0.033	0.0015	8.4
-0.0413	0.0165	0.048	0.0045	8.1
-0.063	0.0142	0.0337	0.0052	8.3
-0.0608	0.009	0.0142	0.0007	8.1
-0.015	0.003	0.0105	-0.006	8.2
0.0007	-0.003	0.0075	-0.0075	8.3
-0.0105	-0.0023	0.0105	-0.0075	8.2
0.0067	-0.0015	0.009	-0.0053	8.2
0.0367	-0.003	0.0105	-0.006	8.1
0.0427	-0.0053	-0.0128	-0.0053	8.3
0.0255	-0.0046	-0.0383	-0.0053	8.3
0.0082	-0.003	-0.0315	-0.0068	8.1
-0.0188	-0.0038	-0.0075	-0.0053	8.1
-0.0503	-0.0046	0.0165	-0.006	8.1
-0.084	-0.0083	0.0165	-0.0083	8.2
-0.0495	-0.0098	0.009	-0.0091	8.1
-0.0128	-0.0105	0.0052	-0.0098	8.2
-0.0353	-0.0075	0.0142	-0.0046	8.2
-0.0128	-0.0008	0.015	0.0052	8.1
0.0067	0.0067	0.012	0.0135	8.2
0.0082	0.012	0.0112	0.0165	8.1
0.0277	0.0172	0.006	0.0195	8.1
0.0292	0.018	0.0082	0.0172	8.1
0.0315	0.0105	-0.003	0.0127	8
0.033	0.0082	-0.0128	0.012	8
0.0277	0.0067	-0.0128	0.0082	7.9
0.021	0.0007	-0.0113	0.0037	8
0.0142	-0.003	-0.0046	0	8
0.006	-0.0038	-0.0015	-0.0023	8
-0.0008	-0.0046	0.0045	-0.0015	8.1
-0.0008	-0.0023	0.0045	-0.0015	7.8
-0.0023	-0.0023	0.003	-0.0015	7.8
-0.0008	-0.0023	0.0015	-0.0023	7.9
-0.0008	-0.0015	-0.003	0	7.8
-0.0083	-0.0008	-0.0083	0	7.8
0.0022	0.0007	-0.012	-0.0008	7.6
0.0322	-0.0008	-0.0128	-0.0008	7.9
0.0277	0.0007	-0.003	-0.0015	7.6
0.0007	0.0007	0.0105	-0.0023	7.8
-0.0248	0.0007	0.018	-0.0015	7.6
-0.048	0.0015	0.009	-0.0008	7.7
-0.0308	-0.0008	-0.0038	0	7.7
-0.0105	-0.0015	0.003	0.0022	7.8
-0.0068	-0.0015	0.0165	0.0045	7.7
-0.006	-0.0015	0.0195	0.0052	7.7
-0.015	-0.0008	0.0187	0.0045	7.5
-0.0158	-0.0023	0.006	0.0045	7.7
-0.0105	-0.0015	-0.0053	0.0045	7.6
-0.0046	0.0007	-0.006	0.0045	7.6
0.003	0.0045	-0.0091	0.0067	7.6
0.0067	0.0067	-0.0143	0.0082	7.6
0.0097	0.0052	-0.0188	0.0082	7.6
0.0142	0.0037	-0.0225	0.0052	7.4
0.0127	0.0007	-0.0225	-0.0008	7.7
0.0112	-0.0015	-0.024	-0.003	7.6
0.0127	-0.003	-0.0278	-0.006	7.8
0.0105	-0.006	-0.0188	-0.0091	7.6
0.0082	-0.0091	-0.012	-0.0083	7.7
0.009	-0.0091	-0.0046	-0.0091	7.6
0.0067	-0.0053	-0.0008	-0.006	7.7
0	-0.003	-0.0053	-0.0046	7.8
-0.003	0	-0.0015	-0.0023	7.7
0.0127	0.0052	-0.0046	0.003	7.6
0.0255	0.0082	-0.0091	0.0037	7.7
0.0172	0.0052	-0.0083	0.003	7.6
0.0105	0.0075	0.0075	0.0022	7.9
0.0052	0.0067	0.0202	0	7.6
-0.006	0.0015	0.027	0	7.9
-0.0113	0.0022	0.0405	0.0007	7.8
-0.0143	0.0045	0.0277	0.003	7.9
-0.0046	0.0127	0.0202	0.009	7.9
0.009	0.0142	0.0157	0.0105	7.8
0.0112	0.0142	-0.0075	0.0097	7.9
0.0135	0.012	-0.0128	0.0067	7.8
0.0112	0.003	-0.0128	0.0015	7.9
0.0052	0.003	-0.0158	0.0007	7.9
0.006	0.0007	-0.0308	-0.0015	7.8
0.027	0.003	-0.0375	0.0015	8
0.057	0.0007	-0.0165	-0.0008	7.9
0.0532	-0.0105	-0.012	-0.0091	8
0.0292	-0.0143	-0.0105	-0.0105	8.2
-0.0143	-0.012	-0.0046	-0.0098	8.1
-0.0533	-0.0053	0.0135	-0.0083	8.3
-0.0473	-0.0053	0.0337	-0.0098	8.1
-0.0315	-0.006	0.0397	-0.0091	8.2
-0.0165	0.0015	0.0345	-0.0046	8.2
0.0067	0.0075	0.018	-0.0008	8.2
0.0045	0.0052	0.012	0	8.4
-0.0105	0.003	0.0195	-0.0008	8.1
-0.0533	0.0037	0.039	0.0007	8.4
-0.054	0.0045	0.0165	0.009	8.4
-0.0105	0.0127	-0.0053	0.0165	8.3
0.012	0.0105	-0.0023	0.0135	8.2
0.0375	0.0045	-0.0188	0.0105	8.1
0.0495	0.0015	-0.0195	0.0082	8.4
0.078	-0.0015	-0.0278	0.0052	8.1
0.108	-0.003	-0.0368	0.003	8.4
0.084	-0.0068	-0.0353	-0.0008	8.4
0.0405	-0.0068	-0.0285	0.0007	8.2
-0.015	-0.0068	0.006	-0.0023	8.3
-0.1155	-0.0083	0.033	-0.0046	8.2
-0.1823	-0.0091	0.0382	-0.0075	8.4
-0.129	-0.0091	0.024	-0.0068	8.2
-0.0188	-0.0046	0.006	-0.0008	8.4
0.024	-0.0038	0.0067	0.0015	8.1
0.0202	-0.003	0.0082	0.0007	8.1
0.0262	-0.0015	-0.003	0.0015	8.1
0.003	0.003	-0.0128	0.006	8.1
0.0007	0.006	-0.0233	0.0067	8.1
0.0052	0.0052	-0.0225	0.0052	8.1
-0.003	0.0037	-0.0053	0.0022	8.1
-0.0105	0.0022	0.0007	-0.0008	8.4
-0.0053	0.0037	0.0015	0.0022	7.9
0.0045	0.003	0.0015	0.0015	8
-0.0046	0.0015	0.003	0.0007	8.1
-0.0046	0.0007	0.009	-0.0008	7.9
-0.012	-0.0008	0.012	-0.0008	8.1
-0.0128	0	0.003	0	7.9
-0.0038	0	0.0022	-0.003	7.9
0.0007	0.0015	0.0082	-0.003	7.8
0.0052	0.0022	0.009	-0.0038	7.9
0.0082	0.0015	0.006	-0.0046	7.8
0.012	0.0015	0.003	-0.003	8
0.0225	-0.0008	0.003	-0.0046	7.8
0.0345	-0.0015	-0.0008	-0.0038	7.8
0.0382	0	-0.0046	-0.0038	7.8
0.03	0.0022	-0.003	-0.0008	7.9
0.0082	0.003	-0.0038	0.0022	7.8
-0.0158	0.003	-0.0015	0.0022	7.8
-0.0278	0.0022	-0.0053	0.0007	7.6
-0.0293	-0.0015	-0.0075	-0.0015	7.7
-0.0218	-0.0046	-0.003	-0.0023	7.8
-0.012	-0.006	-0.0008	-0.0015	7.6
0.0045	-0.0046	-0.0046	-0.0008	7.8
0.0022	-0.003	-0.0068	-0.0015	7.7
-0.0165	-0.0015	0.0022	0	8
-0.0203	0.0022	0.0142	0.0022	7.8
-0.0195	0.0052	0.0112	0.0045	7.8
-0.0068	0.0135	0.0015	0.0105	7.8
0.0195	0.0232	-0.0015	0.0157	7.8
0.033	0.0202	-0.0203	0.0142	7.9
0.0195	0.0105	-0.027	0.0097	7.8
0.0165	0.0052	-0.0165	0.006	7.7
0.0255	0.003	-0.021	0.003	8
0.027	0.0007	-0.027	0.003	7.6
0.0337	-0.0015	-0.0428	0.0007	8
0.0307	-0.0053	-0.0353	-0.003	7.8
0.0262	-0.0083	-0.0248	-0.003	8.1
0.027	-0.003	-0.0181	0.0007	8
0.0082	-0.003	0.0157	-0.0023	8
-0.0165	-0.0091	0.0345	-0.0091	8.1
-0.0368	-0.0128	0.0352	-0.0098	8.1
-0.03	-0.012	0.039	-0.003	8.2
-0.0165	0.0007	0.0292	0.006	8.1
-0.0315	0.0037	-0.0008	0.003	8.1
-0.048	-0.0068	-0.0105	-0.0038	8.3
-0.0495	0.003	-0.0015	0.0082	8.3
-0.0203	0.0202	0.0082	0.018	8.3
0.0135	0.0262	0.009	0.0195	8.3
0.0315	0.021	0.003	0.0165	8.4
0.0442	0.0172	0.0187	0.012	8.4
0.0382	0.0112	0.0285	0.0067	8.4
0.0315	0.0015	0.024	0.0007	8.5
0.027	-0.003	0.0157	-0.0068	8.4
0.0217	-0.0083	0.0022	-0.0113	8.5
0.0157	-0.0083	-0.0053	-0.0105	8.4
0.0037	-0.0098	-0.012	-0.0113	8.4
-0.0046	-0.0105	-0.0128	-0.0105	8.4
-0.0053	-0.0105	-0.0128	-0.0083	8.4
0.0045	-0.0091	-0.015	-0.0083	8.5
0.012	-0.0098	-0.0233	-0.0091	8.4
0.0195	-0.0128	-0.0173	-0.0098	8.6
0.0277	-0.012	0.0082	-0.0091	8.5
0.012	-0.0135	0.0232	-0.0091	8.4
-0.0128	-0.012	0.0157	-0.0068	8.6
-0.0428	-0.0083	-0.0046	-0.0046	8.5
-0.0488	-0.0053	0.0007	-0.0015	8.6
-0.0195	-0.0015	-0.0008	0.0015	8.4
-0.0143	0.006	0.0015	0.0067	8.4
-0.0203	0.0142	0.012	0.009	8.4
-0.0143	0.0127	-0.0165	0.0112	8.3
-0.0046	0.0142	-0.0285	0.012	8.3
0.0082	0.0135	-0.0158	0.009	8.2
0.0187	0.0105	-0.0091	0.006	8.1
0.0165	0.0105	-0.0046	0.0045	8.3
0.0067	0.0082	0.0007	0.0015	8.2
0.0022	0.0052	0.0045	-0.0008	8.1
-0.0008	0.0022	0.006	-0.0038	8.2
0.003	0.0022	0.0082	-0.0046	8.1
0.0052	0	0.0082	-0.0053	8.1
0.0067	-0.0015	0.0082	-0.0046	8
0.006	-0.0015	0.006	-0.0046	8.1
-0.0008	-0.0023	0.0037	-0.0038	7.9
0.006	-0.003	0.0007	-0.003	7.9
0.0127	-0.003	-0.0053	-0.0015	7.8
0.0007	-0.0015	-0.0128	0.0007	7.7
0.0142	-0.0015	-0.0263	0.0015	7.7
0.0607	0.0015	-0.0203	0.006	7.7
0.072	0.0037	-0.0008	0.0082	7.8
0.0307	0.0045	0.0202	0.0067	7.6
-0.039	0.0037	0.039	0.0052	7.7
-0.0945	0.0022	0.0412	0.0045	7.5
-0.0975	0	0.0277	0.0045	7.6
-0.0691	-0.0015	0.018	0.003	7.6
-0.0353	-0.003	0.0097	0	7.5
-0.0038	-0.0008	0	0	7.5
-0.0015	-0.0015	0.0015	0.0007	7.5
-0.0256	0.003	0.006	0.0052	7.4
-0.0256	0.0075	0.0007	0.0052	7.5
-0.0143	0.0052	-0.0008	0.0015	7.3
0.0007	0.0052	0.0037	-0.0008	7.5
0.0195	0.003	0.0015	-0.0015	7.4
0.0232	0.003	0.0007	-0.0008	7.3
0.0232	0.0015	-0.0053	-0.0008	7.4
0.0052	-0.0015	-0.0113	-0.003	7.2
0	-0.003	-0.0091	-0.0015	7.4
0.0195	-0.0053	-0.0083	-0.003	7.2
0.015	-0.0068	-0.0008	-0.0046	7.5
0.0097	-0.0083	-0.0015	-0.006	7.4
0.0022	-0.0083	-0.0135	-0.006	7.3
0	-0.0046	-0.0083	-0.0046	7.4
0.0052	-0.0023	0.0045	-0.0015	7.4
0.009	-0.0015	0.009	0.0015	7.6
0.0232	0.0007	0.0015	0.0052	7.6
0.0127	0.0015	0.0015	0.0045	7.4
0.0007	0.0022	0.0052	0.003	7.6
0.0007	0.0037	0.0037	0.003	7.5
-0.0165	0.003	0	0.0022	7.7
-0.024	0.0052	-0.0143	0.0067	7.6
0.0037	0.0127	-0.015	0.0142	7.6
0.0232	0.0142	-0.0263	0.0172	7.6
0.0142	0.0045	-0.063	0.0075	7.6
0.0007	-0.0015	-0.0691	0.0015	7.7
0.0007	0.0007	-0.0428	0.003	7.7
0.0082	0.0022	-0.0188	0.0015	7.8
0.0105	-0.0008	0.003	0.0022	8
0.018	-0.003	0.033	-0.0008	7.8
0.0195	-0.003	0.0427	-0.0008	7.9
0.0142	-0.0015	0.0405	0.0022	8
0.0217	0.003	0.0457	0.0067	8
0.0307	0.0067	0.0345	0.0082	8.1
0.0322	0.0022	0.0007	0.0052	8.1
0.0277	-0.0046	-0.0143	0.0022	8.3
0.0127	-0.0046	-0.015	-0.003	8.1
0	-0.0053	-0.0203	-0.0053	8.4
-0.0008	-0.0068	-0.0263	-0.0105	8.3
-0.0008	-0.012	-0.0368	-0.0135	8.4
0	-0.0135	-0.0383	-0.015	8.5
-0.012	-0.0128	-0.0256	-0.0165	8.4
-0.0293	-0.0091	-0.006	-0.0113	8.7
-0.033	-0.003	0.0142	-0.0046	8.5
-0.0278	0.0007	0.033	-0.0023	8.4
-0.0128	0.0052	0.03	0.0015	8.5
0.0022	0.012	0.0075	0.0067	8.5
0.009	0.015	-0.0075	0.0082	8.7
0.0082	0.0157	-0.0053	0.0112	8.5
0.012	0.0142	-0.0015	0.0135	8.7
0.012	0.0105	0.0015	0.012	8.7
0.012	0.0082	0.015	0.0075	8.6
0.0127	0.003	0.0082	0.003	8.7
0.006	0.0007	0.003	0.0007	8.6
0.0082	0	0.0112	-0.003	8.6
0.0105	-0.0015	0.0082	-0.0053	8.5
0.0105	-0.0015	0.0075	-0.0046	8.5
0.009	-0.0015	0.0007	-0.0038	8.6
-0.0046	-0.0008	-0.0008	-0.0015	8.5
-0.0308	0.0007	0.0075	0	8.5
-0.0428	-0.0015	0.0105	-0.003	8.4
-0.0263	-0.0053	0.0135	-0.0053	8.3
-0.0143	-0.0023	0.0142	-0.003	8.3
-0.0015	0	0.006	-0.0046	8.1
0.0105	-0.0008	0.0037	-0.003	8.3
0.0105	-0.0015	0.0142	-0.0008	8.1
0.0105	-0.0023	0.0105	0.0007	8.4
0.0015	-0.0008	0.009	0.0045	8.1
-0.003	-0.0015	0.0135	0.0037	8.1
0.0052	0.0007	0.012	0.0022	8.2
-0.0053	0.0007	0.006	0.0015	8
-0.0128	0.0007	0.0082	0.0007	8.1
0.0007	0.0007	0.012	0.003	7.9
-0.0098	-0.003	0.0105	0	8
-0.0233	-0.003	0.0112	0.0007	7.9
-0.0203	-0.0008	0.003	0.0022	7.9
-0.0158	0.0015	-0.0091	0.0045	7.7
0	0.0045	-0.0091	0.0052	7.6
0.0007	0.0052	-0.0008	0.0052	7.7
0	0.0067	0.003	0.0052	7.6
-0.003	0.0067	-0.0008	0.006	7.6
-0.0046	0.0097	-0.0053	0.009	7.6
0.0165	0.0075	-0.0068	0.0082	7.6
0.0262	0.003	-0.0008	0.0045	7.6
0.0195	-0.0008	0.0075	0.0007	7.6
0	-0.0015	0.0135	-0.0008	7.4
-0.0181	0	0.0127	0.0007	7.7
-0.0105	0.0007	0.0082	0.0007	7.4
-0.0105	0.0007	-0.0008	-0.0008	7.7
-0.0233	-0.0015	0.0015	-0.003	7.6
-0.0225	-0.0008	0.0142	0	7.5
-0.012	0.0067	0.0045	0.006	7.4
-0.003	0.012	-0.0203	0.009	7.5
-0.0075	0.0112	-0.0293	0.0082	7.5
0.0007	0.0097	-0.0195	0.0082	7.4
0.0165	0.0075	-0.0165	0.0037	7.5
0.0165	0.0007	-0.0188	-0.0015	7.6
0.0097	-0.0046	-0.0165	-0.0046	7.4
-0.0068	-0.0046	-0.0165	-0.0053	7.6
-0.0083	-0.003	-0.0128	-0.0015	7.4
0.0007	-0.0015	-0.0068	-0.0015	7.7
0.0187	-0.0053	-0.021	-0.0015	7.6
0.0315	-0.0068	-0.0315	-0.0023	7.6
0.0397	-0.0083	-0.0256	-0.0053	7.6
0.0382	-0.0105	-0.0383	-0.0075	7.6
0.0112	-0.0098	-0.0511	-0.0091	7.7
-0.0165	-0.0113	-0.0495	-0.0091	7.6
-0.0405	-0.0105	-0.0308	-0.0083	7.7
-0.042	0.0007	-0.0046	0	7.8
-0.0368	0.0097	0.0015	0.0052	7.8
-0.0308	0.009	0.021	0.0075	7.8
-0.0038	0.012	0.0525	0.0105	7.9
0.0277	0.0187	0.0412	0.012	8
0.0427	0.0165	0.018	0.0127	8.1
0.0502	0.0157	0.0105	0.0142	7.9
0.051	0.0165	0.003	0.0112	8.3
0.0277	0.009	0.0015	0.003	8
0.0157	0.0045	-0.0015	-0.0008	8.2
0.012	0.0015	-0.003	-0.0046	8.1
0.006	0.0007	-0.0023	-0.0068	8.1
0.0015	-0.0015	-0.0068	-0.006	8.3
0.0007	-0.0038	-0.0053	-0.0083	8.1
0.0045	-0.0046	-0.0105	-0.0075	8.3
0.0022	-0.0068	-0.0256	-0.0053	8.3
0.0007	-0.0075	-0.0233	-0.0068	8.1
0.0015	-0.0068	-0.0098	-0.0068	8.2
-0.0015	-0.0053	-0.0038	-0.0046	8.2
-0.0083	-0.0053	0.0045	-0.0053	8.4
-0.0023	-0.0053	0.006	-0.0038	8.2
0.003	-0.0053	0.0015	-0.0023	8.4
0.003	-0.0068	0.0045	-0.0008	8.4
0.003	-0.0053	0.0067	0.0022	8.5
0.003	-0.0015	0.009	0.006	8.5
0.018	-0.0008	0.021	0.0082	8.3
0.009	0	0.0255	0.0075	8.4
-0.0158	-0.0008	0.0165	0.0067	8.2
-0.015	-0.0015	0.0142	0.0045	8.2
-0.0225	-0.0008	0.0105	0.0022	8.3
-0.0278	-0.0015	0.0112	0.0015	8.1
-0.0158	0.0007	0.0157	0.0007	8.1
-0.0091	0.003	0.0165	0.0022	8.3
-0.0046	0.0045	0.012	0.0015	8.2
-0.0038	0.0037	0.003	0.0007	8.3
-0.003	0.0045	0.0015	0.0007	8.1
0.0015	0.006	0.012	0.0007	8.3
0.0045	0.0045	0.0187	-0.0015	8
0.006	0.0045	0.0105	-0.0046	8.1
0.0052	0.0015	0.009	-0.0068	8
0.0037	0.0007	0.0105	-0.006	8
0.0022	-0.0015	0.0142	-0.006	8
0.003	-0.0038	0.0157	-0.006	7.9
0.0045	-0.0046	0.0105	-0.003	7.9
-0.0023	-0.0015	0.0067	0	7.8
-0.015	-0.0015	0.003	-0.0023	7.8
-0.0158	0	0.0022	-0.0015	7.7
-0.003	0.0052	0.0052	0.0015	7.8
-0.0046	0.0067	0.0045	0.0015	7.8
-0.012	0.0052	0.0007	0.0015	7.7
-0.0023	0.0045	0.003	0.003	7.8
0.0067	0.003	0.0082	0.0007	7.7
0.009	-0.0008	0.009	0.0007	7.6
0.0022	-0.0008	0.012	0.0015	7.6
-0.0098	0.0007	0.0082	0.0022	7.5
-0.0091	0.0015	0.0045	0.0045	7.6
-0.0008	0.0015	0.0045	0.0052	7.6
-0.0068	0.0007	-0.0046	0.006	7.4
-0.0068	0.0007	-0.0046	0.0045	7.6
0.0007	0.0015	0.0015	0.0045	7.5
0.0007	0.0015	-0.003	0.006	7.6
0.0022	0.0015	-0.0053	0.0052	7.6
0.0015	0.0022	-0.003	0.006	7.6
0.0127	0.0015	-0.0008	0.006	7.6
0.018	0	-0.0105	0.0022	7.5
0.0202	-0.003	-0.0218	-0.0008	7.4
0.0225	-0.0053	-0.0203	-0.0046	7.6
0.015	-0.0053	-0.0173	-0.0053	7.7
0.0037	-0.003	-0.0143	-0.003	7.6
-0.0195	0.0007	-0.0113	-0.0008	7.6
-0.033	-0.0008	-0.0023	-0.0015	7.8
-0.0068	-0.0008	-0.003	0.0007	7.6
0.0007	0.0067	-0.024	0.0052	7.7
-0.0068	0.0067	-0.024	0.006	7.8
0.0105	0.0037	-0.0105	0.0082	7.7
0.0127	0.006	-0.0068	0.0105	7.8
0.0075	0.006	-0.0173	0.0097	7.7
0.0007	0.0015	-0.0285	0.0052	8
-0.003	-0.0015	-0.0338	0.003	7.8
0.0127	0.0015	-0.0293	0.0037	7.9
0.0217	0.0022	-0.0195	0.0022	8
0.0217	-0.0015	-0.0128	0.0007	8.1
0.0082	-0.0008	0.003	-0.0008	8
0	-0.003	-0.003	-0.0038	8
0.0022	-0.0053	-0.0113	-0.006	8.1
-0.0015	-0.003	0.0045	-0.0046	8.2
-0.0053	0	0.018	-0.0015	8.1
-0.0091	0.0015	0.0307	0	8.3
-0.0091	0	0.024	0	8.1
-0.0091	-0.0046	0.0165	-0.0015	8.4
0.0015	-0.006	0.0037	0	8.2
0.0157	-0.0023	-0.0143	0.003	8.3
0.0285	0.006	-0.012	0.006	8.2
0.0442	0.0067	-0.0165	0.0052	8.1
0.042	0.0022	-0.0346	0.0007	8.4
0.0495	0.0015	-0.0443	-0.0008	8.2
0.0292	0.0045	-0.0323	-0.003	8.3
-0.0188	-0.0008	-0.0128	-0.006	8.2
-0.024	-0.003	0.0097	-0.0053	8.2
-0.027	-0.003	0.0262	-0.0053	8.5
-0.0473	-0.003	0.0345	-0.0075	8.3
-0.0368	-0.0038	0.0277	-0.0083	8.4
-0.0338	-0.0068	0.024	-0.0068	8.3
-0.0165	-0.0046	0.027	-0.0038	8.4
0.006	0.0007	0.0105	0.0007	8.5
0.0015	0.0052	0.003	0.0052	8.2
0.0022	0.0082	0.0015	0.0045	8.3
-0.006	0.003	0.0015	-0.0008	8.1
-0.0083	-0.0008	0.0067	0	8.2
-0.0165	-0.0008	0.0067	0.0007	8.3
-0.0075	0.0007	0.0097	0.0015	8.1
0.0067	0.0037	0.0097	0.0037	8.2
0.0067	0.0015	0.0067	0.003	8
0.0165	0.0007	0.0022	0.0037	8.1
0.0277	0.0007	-0.003	0.0052	7.9
0.0442	-0.0008	-0.0091	0.0052	7.8
0.042	0.0015	-0.012	0.0015	8.1
0.0427	-0.0008	-0.0105	-0.0015	7.8
0.033	-0.0008	0.0007	0	8.1
-0.0091	0.0007	0.018	0.0015	7.9
-0.0405	0.0015	0.027	0.0007	7.7
-0.0338	0.0022	0.027	0.0015	7.9
-0.0361	0.0015	0.0315	0.0022	7.7
-0.0735	0.0015	0.0427	0.0045	7.9
-0.0728	0.0007	0.0412	0.0045	7.7
-0.039	0.0022	0.0322	0.006	7.8
-0.0308	0.0052	0.0225	0.0082	7.7
-0.0278	0.0045	0.0052	0.0052	7.7
-0.0181	0.0067	-0.0046	0.009	7.6
-0.0023	0.0127	-0.006	0.0142	7.6
0.0195	0.0127	-0.0105	0.0142	7.6
0.0217	0.009	-0.015	0.012	7.7
0.0195	0.0067	-0.012	0.0075	7.6
0.0187	0.003	-0.0091	0.003	7.6
0.0127	0.0015	-0.0091	0.0007	7.5
0.0127	-0.003	-0.0046	-0.0015	7.7
0.0127	-0.003	-0.0068	-0.0023	7.5
0.0157	-0.0046	-0.0105	-0.003	7.5
0.0165	-0.0046	-0.0135	-0.006	7.7
0.021	-0.0046	-0.0203	-0.0083	7.4
0.024	-0.006	-0.0308	-0.0083	7.5
0.0127	-0.0068	-0.0428	-0.0083	7.3
0.0052	-0.0083	-0.0375	-0.0091	7.6
-0.0008	-0.0068	-0.0195	-0.0091	7.5
-0.0105	-0.0053	-0.0128	-0.0083	7.6
-0.0203	-0.0046	-0.0046	-0.0075	7.7
-0.0368	-0.0023	0.0097	-0.006	7.6
-0.0353	0.0037	0.0277	0.0015	7.6
-0.006	0.012	0.042	0.0157	7.8
0.021	0.021	0.0427	0.0225	7.6
0.039	0.0225	0.033	0.018	7.8
0.0405	0.0142	0.0037	0.0105	7.6
0.0382	0.0097	-0.0053	0.0037	7.9
0.033	0.0067	-0.006	0.0015	7.8
0.0247	0.0052	-0.0278	-0.0008	7.8
0.021	0.0015	-0.0315	-0.003	8
0.0082	0	-0.0368	-0.0053	7.8
0.0045	-0.0023	-0.0346	-0.0083	7.9
-0.0008	-0.0068	-0.024	-0.0105	7.9
-0.0015	-0.0083	-0.027	-0.012	8
-0.0068	-0.0098	-0.0181	-0.012	8.1
-0.006	-0.0105	-0.0218	-0.0091	8.1
0.0007	-0.0105	-0.0465	-0.0075	8.1
0.0015	-0.0105	-0.0443	-0.0075	8.3
-0.0008	-0.0105	-0.0195	-0.006	8.1
-0.0046	-0.0068	-0.0083	-0.0023	8.3
-0.0053	-0.0008	0.0082	-0.0008	8.1
-0.0128	0.003	0.0157	0.0007	8.3
-0.021	0.0015	0.0142	0.003	8.3
-0.0165	0.0037	0.0255	0.0052	8.4
0.003	0.0105	0.0397	0.0082	8.4
0.0195	0.0082	0.0382	0.0105	8.3
0.033	0.0052	0.0187	0.0105	8.4
0.0315	0.0037	0.0067	0.0067	8.2
0.018	-0.0008	-0.0068	0.003	8.4
0.0037	-0.0008	-0.0091	0.0007	8.4
-0.0053	-0.003	0.0075	-0.0015	8.4
-0.0158	0.003	0.0135	0.0015	8.5
-0.0263	0.0067	0.012	0.0037	8.5
-0.0105	0.0045	0.009	0.0045	8.4
0	0.003	0.003	0.003	8.6
0.0075	0	-0.0008	-0.0015	8.4
0.012	-0.003	-0.0008	-0.0046	8.4
0.009	-0.006	0.0015	-0.0053	8.4
0.0105	-0.003	0.0105	-0.0046	8.5
0.0067	-0.0008	0.009	-0.0053	8.5
-0.0068	0.0007	0.0075	-0.0046	8.4
-0.0181	-0.0008	0.0105	-0.003	8.5
-0.0165	0.0007	0.0037	-0.003	8.2
-0.0233	0.0015	0.0045	-0.003	8.5
-0.0158	-0.0008	0	-0.0023	8.3
-0.0105	0.0007	0	-0.0015	8.4
-0.0158	-0.0008	0	0.0007	8.2
-0.0105	-0.0008	-0.0015	0	8.2
-0.0128	-0.0008	0.0015	0.0015	8.1
-0.0105	0.0007	-0.003	0.0045	8.2
-0.015	0.0015	-0.0075	0.0037	8
-0.0083	0.0015	-0.0038	0.003	8.3
0.0052	0.0015	0.0015	0.003	7.9
0.0015	0.0015	0.003	0.0045	8.1
0.0052	0.0015	0.0022	0.003	7.9
0.0067	0.0015	0.0022	0.003	8.1
0.015	0.0015	0.0067	0.0052	8.1
0.024	0	0.009	0.0052	7.8
0.027	0.0022	0.0105	0.0067	7.9
0.0232	0.0015	0.009	0.0067	7.7
0.0037	0.0022	0.0082	0.0052	7.8
-0.0181	0.0015	0.0135	0.006	7.8
-0.0158	-0.0015	0.0112	0.0045	7.7
-0.0053	0	0.0082	0.0067	7.7
-0.0046	0	0.003	0.0067	7.7
-0.0165	-0.0008	0.009	0.0037	7.6
-0.0488	-0.0015	0.0165	0.0022	7.7
-0.0593	0	0.0127	0.003	7.6
-0.0263	0.0022	0.012	0.0045	7.8
0.0045	0.0037	0.0165	0.0052	7.5
-0.0046	0.0037	0.027	0.0045	7.6
-0.0046	0.003	0.0232	0.003	7.6
0.0105	0.0015	0.0097	0.003	7.6
0.0165	0.0007	-0.0068	0.0015	7.7
0.0217	0.0007	-0.0188	0.0007	7.3
0.0142	0	-0.027	-0.0008	7.6
0.0165	0.0007	-0.0308	0.0007	7.4
0.0105	-0.0015	-0.0233	0.0015	7.6
-0.0083	-0.003	-0.033	0.0015	7.5
-0.0015	0	-0.0361	0.0037	7.5
0.0105	0.0007	-0.0308	0.003	7.6
0.0045	0.003	-0.03	0.003	7.6
0.0112	0.0082	-0.0143	0.0022	7.6
0.024	0.0097	-0.0015	0.003	7.6
0.0172	0.0105	0.0015	0.0045	7.7
0.0037	0.0082	0.0112	-0.0015	7.7
0.0037	0.0037	0.0105	-0.003	7.7
0.012	0.0045	0.0067	-0.003	7.8
0.0157	0.0045	0.0165	-0.003	7.8
0.0142	0.0082	0.0157	0.0007	7.8
0.0045	0.006	-0.0008	-0.0008	8
0.003	0.0037	-0.0098	-0.0023	7.8
0.006	0.006	-0.0218	-0.0015	7.8
0.0052	0.003	-0.0346	-0.0046	7.9
0.0082	0	-0.0443	-0.0068	7.9
0.0037	-0.0008	-0.0428	-0.0083	7.9
0.003	-0.0046	-0.0203	-0.0091	7.9
0.0052	-0.0068	-0.0046	-0.0098	7.8
0.0067	-0.0075	-0.0038	-0.0113	8
0.0067	-0.0068	-0.0165	-0.0091	8
0.0007	-0.0053	-0.0256	-0.0053	8.2
0.006	-0.0053	-0.0068	-0.003	8
0.0142	-0.006	0.0277	-0.0015	8.2
0.0142	-0.0046	0.033	0.0007	8.1
0.009	-0.0023	0.003	0.003	8.2
-0.0046	-0.0038	-0.0053	-0.0015	8.2
-0.0128	-0.0083	0.0052	-0.0053	8.1
-0.0173	-0.0068	0.0172	-0.0023	8.4
-0.0083	0.0015	0.0307	0.006	8.2
0.0097	0.0082	0.024	0.0142	8.3
0.0225	0.0105	0.0135	0.015	8.2
0.024	0.009	-0.0053	0.0127	8.2
0.018	0.0045	-0.0046	0.0105	8.3
0.0202	0.0007	0.006	0.0045	8.3
0.0195	-0.003	-0.0053	0.003	8.2
0.0045	-0.003	0.0045	0.0015	8.4
-0.0158	-0.0008	0.006	-0.0008	8.2
-0.0256	0.0007	-0.0046	0.0015	8.4
-0.0256	-0.0015	0.0015	-0.0015	8.2
-0.0346	-0.003	0.0052	-0.0038	8.2
-0.0315	-0.003	0.012	-0.0046	8.4
-0.0113	-0.003	0.0157	-0.0068	8.2
-0.0083	-0.0015	0.0105	-0.0023	8.4
-0.003	0.0015	0.003	0.0015	8
-0.0046	0.0037	0.0037	0.0045	8.4
-0.0075	0.003	0.012	0.0067	8.2
0.0037	0.003	0.0052	0.0075	8.1
0.0015	0.0015	-0.0053	0.006	8.1
0.0052	-0.0008	-0.012	0.0052	8.2
0.009	0.0015	-0.0053	0.0052	8.2
0.0097	0.003	0.0082	0.006	8.2
0.0165	0.003	0.0067	0.0037	8.1
0.024	0.0037	0.0037	0.003	8.1
0.0292	0.003	0.0052	0.0007	8
0.0255	0	0.0067	-0.0015	8.1
0.024	0.0015	0.009	-0.0015	8.1
0.0187	0.0015	0.0157	-0.0015	7.9
0.0142	0.0015	0.0172	-0.0023	8.1
-0.0015	0.0015	0.0157	-0.0046	7.8
-0.0338	0.0015	0.0165	-0.0046	7.9
-0.0608	0.0015	0.0195	-0.0023	7.9
-0.066	0.0022	0.018	-0.0023	7.9
-0.045	0.0022	0.0112	-0.003	8
-0.03	0.0007	0.009	-0.003	7.8
-0.0143	0.0015	0.0052	-0.0015	8
-0.0068	0.003	0.0015	-0.0008	7.8
-0.006	0.0022	0.003	0	7.7
0.0015	0.003	0.0007	0.0015	8
0.009	0.0037	-0.0008	0.0037	7.6
0.0187	0.0052	-0.0075	0.0067	7.7
0.021	0.0037	-0.0128	0.0082	7.8
0.0195	0.003	-0.0105	0.0067	7.7
0.0127	0.003	-0.0038	0.0067	7.9
0.009	-0.0008	0.0007	0.0045	7.7
-0.0008	0	0	0.003	7.7
-0.0105	0.0037	-0.012	0.0045	7.6
0.0022	0.0045	-0.0233	0.003	7.8
0.0067	0.0022	-0.0278	0.0007	7.8
0.006	-0.0015	-0.0323	-0.0008	7.7
0.0127	0.0015	-0.024	0	7.8
0.0157	-0.0008	-0.0278	-0.0008	7.7
0.0112	-0.0023	-0.0278	-0.0015	7.8
0.009	-0.0023	-0.0195	-0.0038	7.9
0.0082	-0.0023	-0.0173	-0.0046	7.6
0.0037	0.0015	-0.006	-0.0015	8
-0.003	0.003	0.0037	-0.0008	8
-0.006	0.0037	0.012	-0.0015	7.8
-0.0143	0.0037	-0.0015	-0.0008	8.1
-0.0233	0.0045	-0.027	0.0015	7.8
-0.015	0.0082	-0.0173	0.003	8.1
-0.0046	0.0082	0.0007	0.003	8
-0.003	0.0067	0.006	0.0022	8.1
0.0007	0.0052	0.0052	0.0007	8.1
0.0067	0.0022	0.0015	0.0007	8
0.0067	0.0007	0.012	-0.003	8.1
0.0037	-0.0015	0.024	-0.003	8.2
0.0045	-0.003	0.0315	-0.0023	8.3
0.0105	-0.0038	0.0337	-0.003	8.2
0.0142	-0.0046	0.0217	-0.0046	8.1
0.0097	-0.0083	0.012	-0.0068	8.3
0.0112	-0.006	0.0067	-0.003	8.3
0.0165	-0.0053	0	-0.0015	8.4
0.018	-0.0075	-0.006	-0.0008	8.4
0.018	-0.0083	-0.0091	0.0015	8.1
0.0105	-0.0068	-0.0218	0.0007	8.4
-0.0053	-0.0075	-0.03	-0.0008	8.2
-0.0188	-0.0083	-0.0173	0	8.4
-0.021	-0.0046	-0.0023	0.0037	8.5
-0.0083	-0.0015	0.0127	0.0075	8.5
0.0097	0.0022	0.0112	0.0082	8.5
0.012	0.0052	-0.0046	0.0082	8.3
0.0045	0.0067	-0.003	0.0067	8.3
0.0045	0.0067	-0.0098	0.0067	8.4
0.0082	0.0112	-0.0083	0.0075	8.4
0.0082	0.012	0.0075	0.006	8.5
0.009	0.012	-0.003	0.0037	8.3
0.009	0.0127	-0.0068	0.003	8.4
0.0127	0.0067	0.0045	0.0007	8.5
0.0157	0.0045	-0.003	0	8.2
0.0135	0.0007	0.006	-0.0015	8.3
0.0105	-0.0023	0.0037	-0.0023	8.2
0.0007	-0.003	-0.0105	-0.0015	8.3
-0.0083	-0.0053	-0.0075	-0.0046	8.3
-0.0075	-0.0023	-0.0023	-0.0015	8.3
-0.0068	-0.0038	0.0037	0	8.4
-0.0083	-0.0053	0.0015	-0.0008	8.2
-0.003	-0.0068	0.003	-0.0008	8.2
0.0037	-0.0053	0.003	0.0007	8.2
0.0082	-0.0023	0.0007	-0.0008	8.1
0.0067	-0.003	0.0015	-0.0008	8.1
0.0015	-0.0046	0.003	-0.0015	8.1
0.009	-0.0015	0.009	-0.0008	8.1
0.0187	-0.0008	0.009	0.0015	8.1
0.0067	0.0007	0.0112	0.0007	7.9
-0.0083	0	0.012	0	8.1
-0.0218	-0.0008	0.0165	0	7.8
-0.0383	0.0037	0.021	0	7.8
-0.0488	0.0052	0.015	0.0015	8
-0.0638	0.0082	0.0105	0.0007	7.9
-0.0533	0.0082	0.009	0.0007	7.9
-0.0105	0.0052	0.006	-0.0008	7.9
0.0045	0.0045	0.0045	-0.0015	7.8
-0.0038	0.0037	0.006	-0.0008	7.7
0.0045	0.0037	0.0067	-0.003	7.8
0.0127	0.0015	0.0112	-0.003	7.6
0.0142	0.0015	0.0105	-0.0046	7.7
0.009	-0.0008	0.0022	-0.0046	7.8
0.0067	-0.0023	-0.0015	-0.0023	7.7
0.0015	-0.003	-0.0053	-0.003	7.6
-0.0038	-0.0053	-0.0098	-0.0023	7.7
-0.0053	-0.0023	-0.012	0.0007	7.3
-0.0091	0.0015	-0.0105	0.003	7.6
-0.003	0.0022	-0.0158	0.0015	7.5
0.0157	0.0015	-0.0278	0.0015	7.6
0.027	0.003	-0.0256	0.0022	7.6
0.033	0.0037	-0.012	0.0015	7.4
0.033	0.0045	-0.003	0.003	7.7
0.0135	0.0022	-0.0008	0.003	7.6
-0.0046	0	0.0015	0.003	7.8
-0.0098	-0.0023	0.0022	0.0022	7.6
-0.0068	-0.0038	-0.0015	0.003	7.6
0.003	-0.0008	-0.0083	0.0045	7.6
0.0165	0.0015	-0.0098	0.0067	7.6
0.024	0.0007	-0.0008	0.0067	7.7
0.0172	-0.0023	0.003	0.0045	7.6
0.0045	-0.003	-0.0008	0.003	7.6
-0.0053	-0.0038	0.0007	0.0022	7.8
-0.0128	-0.0038	0.0007	0.0015	7.7
-0.0128	-0.0008	0.009	0.003	7.9
-0.0181	0.0015	0.009	0.0045	7.8
-0.0203	0.0052	0.0037	0.006	7.8
0	0.012	-0.0143	0.0105	7.8
0.0135	0.0157	-0.0405	0.0105	7.7
0.0195	0.0105	-0.021	0.0045	8.1
0.0112	0.0067	-0.012	-0.0008	7.8
0.0015	0.0067	-0.003	-0.0008	8
0.009	0.0067	0.0202	0.0015	8.1
0.0187	0.0082	0.015	0.0007	8
0.0172	0.0022	0.015	-0.0015	8.1
0.0105	0.0007	0.0045	0	8
0.0157	0.0052	-0.0105	0.003	8.1
0.0127	0.003	-0.0091	-0.0008	8.1
0.0067	-0.0023	-0.0113	-0.003	8
0.0067	-0.0038	-0.0083	-0.0015	8.3
0.015	-0.0046	-0.0046	0.0007	8.1
0.012	-0.0075	0.0007	-0.003	8.3
0.0037	-0.0068	0.0037	-0.0038	8.2
-0.003	-0.006	0.009	-0.0046	8.4
-0.006	-0.0068	0.0142	-0.0068	8.4
-0.003	-0.0046	0.0045	-0.0038	8.4
-0.0053	-0.0015	0.0045	-0.0046	8.5
-0.012	-0.0008	0.0015	-0.003	8.4
-0.0165	0.0022	0.0015	0.0007	8.4
-0.0053	0.0052	0.003	0.0015	8.5
-0.0015	0.0022	-0.0046	0.0037	8.4
0.0015	0.0007	0.0007	0.003	8.5
0.006	-0.0008	0.0045	0.003	8.5
0.0097	-0.0023	0.0045	0.0022	8.5
0.0157	-0.0023	-0.0046	0.0007	8.5
0.0142	-0.0046	-0.012	-0.003	8.5
0.0202	-0.0068	-0.0158	-0.0053	8.5
0.0255	-0.0083	-0.0218	-0.0046	8.4
0.0255	-0.0091	-0.0188	-0.0046	8.4
-0.0023	-0.0068	-0.0173	-0.003	8.5
-0.024	-0.0053	-0.0068	0	8.4
-0.0375	-0.003	0.0052	-0.0008	8.5
-0.0615	0.0007	0.012	0.003	8.4
-0.0413	0.0045	0.0292	0.003	8.4
-0.0083	0.0082	0.0345	0.0022	8.5
-0.003	0.0082	0.0195	0.0052	8.4
-0.0053	0.0105	0.0127	0.0067	8.3
-0.0008	0.0112	0.0165	0.0045	8.2
0	0.0075	0.021	0.0045	8.3
0.0007	0.0052	0.0232	0.003	8.4
0.0075	0.0052	0.018	-0.0015	8.2
0.0037	0.0045	0.0097	-0.0015	8.3
0.0045	0.0045	0.0067	-0.0015	8.1
0.0097	0.0045	0.0052	-0.0015	8.2
0.0165	0.003	0.0052	-0.0015	8.2
0.0225	0.0015	0.0015	-0.0023	8
0.0247	0	-0.0075	0	8.1
0.0202	0.0007	-0.0075	0.0022	7.9
-0.0075	0.0007	-0.006	0	8.2
-0.0323	0.0007	0	0.0007	8.1
-0.0413	0.0007	0.0112	0.0015	7.9
-0.0361	0.0022	0.012	0.0015	7.8
-0.0248	0.0015	0.0097	0.0007	8
-0.0195	-0.0015	0.015	-0.0008	7.9
-0.021	-0.003	0.012	-0.0015	7.9
-0.0188	-0.0046	0.006	-0.0008	7.9
-0.0143	-0.003	0.009	0.0007	7.9
-0.0143	-0.003	0.0067	0.0015	7.7
-0.012	-0.0038	0.0045	0.0015	7.8
0.0045	-0.0015	0.0045	0.0045	7.9
0.0217	0.003	-0.003	0.0045	7.8
0.0195	0.003	-0.015	0.003	7.7
0.0142	0.003	-0.0263	0.003	7.7
0.0082	0.0015	-0.03	0.0015	7.8
0.0135	0	-0.03	0.0022	7.6
0.0202	0.0015	-0.0256	0.0037	7.8
0.0165	-0.0015	-0.0135	0.0015	7.7
0.018	-0.0008	-0.012	0.0022	7.7
0.0142	-0.0008	-0.0105	0.003	7.7
0.0052	-0.0008	-0.003	0.0022	7.9
0.0015	0.0007	0.0037	0.0007	7.7
0.0045	0	0.0015	-0.0015	7.9
0.009	0	-0.006	-0.0038	7.6
0.0135	-0.0008	-0.0091	-0.003	7.9
0.0187	-0.0008	-0.0068	-0.0038	7.8
0.0127	-0.0023	-0.0083	-0.0046	7.8
0.0052	-0.0015	-0.0068	-0.0038	7.9
0.003	-0.0015	-0.006	-0.0038	7.6
-0.0105	-0.0015	-0.0165	-0.0068	7.9
-0.0278	-0.0015	-0.0181	-0.0068	7.8
-0.0353	-0.0038	-0.0158	-0.0038	8
-0.0225	0.0015	-0.0143	0.0015	7.8
0.0037	0.009	-0.0083	0.0082	7.9
0.0165	0.0105	-0.0015	0.0097	8.1
0.0232	0.009	-0.0068	0.0097	8
0.024	0.0082	-0.0068	0.0082	8.1
0.0135	0.0052	0.0015	0.0045	8.1
0.0022	0.0015	0.0007	0.003	8.1
-0.0075	-0.0008	-0.0008	-0.0015	8.1
-0.0023	-0.0008	0.0022	-0.003	8.1
0.0082	0	-0.0068	-0.0008	8.1
0.0105	0.003	-0.0195	0.0015	8.1
0.009	0.0022	-0.0128	0.0022	8.1
0.009	-0.0015	-0.0091	0.0007	8.3
0.0045	-0.0038	-0.0046	-0.0015	8.1
0.0045	-0.0046	0.0127	-0.0008	8.4
0.009	-0.003	0.0172	-0.0008	8.4
0.0097	0	0.0075	0.0015	8.4
0.0157	0.0022	0.0082	0.0037	8.4
0.0217	0.0015	0.0202	0.003	8.4
0.024	-0.0008	0.0262	0	8.4
0.0142	-0.0008	0.0187	-0.0008	8.4
0.003	0.0007	0.0142	-0.0008	8.4
-0.0038	-0.0008	0.0345	-0.003	8.4
-0.0075	0.0015	0.051	-0.0023	8.3
0.003	0.0045	0.039	-0.0008	8.5
0.0052	0.0045	0.0127	0.0015	8.4
0.0015	0.0082	-0.0128	0.0067	8.5
0.0007	0.0067	-0.0278	0.0075	8.5
0.0015	0.0015	-0.0173	0.0052	8.4
0.0015	0.0037	0.0007	0.003	8.6
0.0037	0	0.012	0.0007	8.4
0.003	-0.0008	-0.0008	0.0015	8.5
0.0105	0.003	-0.0353	0.006	8.5
0.024	0.0022	-0.0428	0.0045	8.5
0.0397	0.003	-0.039	0.0052	8.4
0.0292	0.0015	-0.0346	0.0052	8.4
-0.0068	-0.0023	-0.0165	0.0045	8.4
-0.0353	-0.0038	0.0052	0.0022	8.5
-0.0623	-0.0023	0.0255	0.0015	8.4
-0.0706	0	0.0307	0.0015	8.5
-0.0428	0.0007	0.0217	0	8.3
-0.0173	0.0015	0.0202	0.0015	8.3
-0.0278	0.0015	0.0225	0.0007	8.3
-0.0293	0	0.018	0.0007	8.3
-0.0143	-0.0008	0.009	0.0015	8.4
-0.0053	-0.0015	0	0.0007	8.3
-0.0038	-0.0023	-0.0008	0.0015	8.3
0	-0.0023	0.0007	0.0007	8.1
0.0105	0.0007	0.0052	0.0037	8.3
0.0157	0.0007	0.0067	0.003	8.2
0.0172	-0.0008	0.0037	0.003	8.1
0.0157	-0.0008	0.0015	0.0037	8.1
0.0142	-0.0008	0.0007	0.0007	8
0.0037	-0.003	-0.0015	0	8.1
-0.0008	-0.003	0.0015	-0.0008	8.2
0.012	-0.0015	0.0052	-0.0015	8
0.009	-0.0008	-0.0015	-0.0023	8.2
0.0045	0.0007	0	0.0007	7.9
0.0067	0.0015	0.0067	0.0015	8
-0.012	0.0022	0.009	-0.0015	8
-0.0278	0.0015	0.0082	-0.0008	7.9
-0.0181	0.0007	0.0007	-0.0015	8
-0.0113	0.0007	-0.0015	-0.003	7.8
-0.0053	0.0022	-0.0038	-0.003	8.1
-0.0008	0.0015	-0.0046	-0.003	8
0	0.003	-0.0083	-0.0046	7.8
0.0037	0.0052	-0.012	-0.006	8
0.003	0.003	-0.0105	-0.006	7.8
-0.0023	0.0022	-0.0098	-0.0068	7.8
-0.012	0.003	-0.0098	-0.0068	7.9
-0.0158	0.0015	-0.006	-0.006	7.8
-0.012	0.003	-0.0023	-0.0015	8.1
-0.0015	0.0082	-0.0015	0.0067	7.8
0.0112	0.0127	-0.0015	0.0142	8
0.024	0.0127	0.003	0.012	7.8
0.0285	0.0105	-0.0046	0.009	7.8
0.0195	0.0075	-0.012	0.0067	8
0.0202	0.0052	-0.0091	0.0045	7.8
0.018	0.0022	-0.012	0.0037	8.1
0.0157	-0.0008	-0.0195	-0.0008	7.8
0.0135	-0.0046	-0.033	-0.003	7.9
0.009	-0.0068	-0.0338	-0.006	7.9
0.0075	-0.0075	-0.0218	-0.006	8
0.0007	-0.0083	-0.0143	-0.0053	7.8
-0.0143	-0.0098	-0.003	-0.0068	8.1
-0.0218	-0.0075	0.009	-0.003	7.9
-0.0173	-0.0015	0.012	0.0007	8.1
-0.012	0.0015	0.012	0.0015	8.1
-0.0083	0.0052	0.0165	0.0045	8.2
-0.0091	0.0067	0.024	0.0045	8.1
-0.003	0.003	0.021	0.0052	8.1
0.015	0.0022	-0.0008	0.0052	8.2
0.0142	0.0052	-0.0165	0.0052	8.1
0.0142	0.009	-0.0143	0.0082	8.3
0.0262	0.0097	-0.0008	0.0082	8.1
0.0255	0.0045	0.0045	0.0045	8.4
0.0217	-0.0015	-0.0105	0.0007	8.1
0.0135	-0.006	-0.0165	-0.003	8.1
0.009	-0.0098	-0.0158	-0.0023	8.2
0.0082	-0.0105	-0.0203	-0.003	8.3
-0.0015	-0.0105	-0.0135	-0.0046	8.3
-0.006	-0.0105	0.0105	-0.0053	8.3
-0.012	-0.0105	0.0405	-0.0068	8.3
-0.0158	-0.0098	0.0487	-0.0046	8.3
-0.0098	-0.003	0.0427	-0.0008	8.2
-0.006	0.0037	0.0247	0.0052	8.4
-0.0015	0.009	0.0142	0.0105	8.3
0.0225	0.012	0.0157	0.012	8.2
0.0337	0.0082	0.0127	0.0067	8.5
0.0247	0.0045	0.0082	0.003	8.2
0.012	0.0045	-0.012	0.0022	8.4
-0.0046	0.003	-0.021	-0.0008	8.1
-0.0091	0.003	-0.012	-0.003	8.3
0	0	-0.0053	-0.0023	8.4
0.006	-0.003	-0.0038	-0.003	8.3
0.0082	-0.0015	-0.0053	-0.0023	8.2
0.0097	-0.0008	-0.0098	-0.0015	8.4
0.0045	-0.0008	-0.0113	-0.0008	8.1
0.0045	0.0015	-0.0046	0.0007	8.4
0	0.0007	0.0022	-0.0008	8.2
-0.0128	-0.0015	0.0052	-0.0023	8.5
-0.021	-0.0015	0.0067	-0.0046	8.4
-0.0233	-0.0015	0.006	-0.0053	8.4
-0.0203	0.0015	0.0022	-0.006	8.3
-0.0195	0.003	-0.0008	-0.006	8.2
-0.0143	0.0045	0.0007	-0.006	8.3
-0.021	0.0052	-0.003	-0.0053	8.2
-0.0263	0.0067	-0.003	-0.003	8.3
-0.0091	0.0067	-0.003	-0.0008	8.2
0.0015	0.0045	-0.0015	0.0007	8.2
0.0045	0.003	0.0045	0	8.1
0.0052	0.0015	0.0007	-0.0008	8.2
0.0105	0.0007	-0.0046	0	8
0.0127	0.0007	0.003	0.0015	8.3
0.0127	-0.0008	0.003	0.003	8
0.0082	-0.0015	0.0082	0.0052	8.1
0.0097	-0.0023	0.0135	0.0045	7.9
0.0127	-0.003	0.0052	0.003	8
0.0037	-0.0046	-0.0046	0.0045	8.1
-0.0068	-0.0023	-0.0068	0.0045	7.8
-0.0105	-0.0008	0.0015	0.0052	8.1
-0.0143	-0.0015	0.0015	0.0052	7.8
-0.0098	0.0007	0.0052	0.0067	8
-0.0015	0.0007	0.0127	0.0052	7.9
-0.0053	0	0.012	0.0045	8
-0.0091	0.0022	0.015	0.0067	7.9
-0.0091	0.0045	0.012	0.0052	7.8
-0.0083	0.0045	0.0052	0.0045	7.8
-0.006	0.0037	0.0007	0.0037	7.8
-0.0046	0.0052	-0.0038	0.0052	7.9
0.003	0.006	-0.0068	0.0045	7.9
0.009	0.003	-0.006	0.0037	7.8
0.018	0.0045	-0.012	0.0045	7.9
0.0135	0.0045	-0.0135	0.0022	7.9
0.006	0.003	0.0007	0.0015	7.8
0.0075	0.0007	0.0067	-0.0008	7.8
0.0045	-0.003	0.006	-0.0008	7.8
0.0045	-0.0046	0.006	0.0015	8
0.0105	-0.0023	0.0007	0.0022	7.8
0.0142	-0.0015	-0.0053	0.0015	7.8
0.0097	-0.003	-0.012	0	7.8
0.006	-0.0023	-0.0128	-0.0008	7.9
-0.0046	-0.0038	-0.0128	-0.003	7.6
-0.0015	-0.0068	-0.0203	-0.0046	8.1
0.0105	-0.0068	-0.0353	-0.003	7.8
0.0142	-0.0046	-0.03	-0.0046	8
0.0157	-0.0046	-0.0091	-0.0046	7.8
0.009	-0.0015	-0.0046	-0.0015	8.1
0	0.0015	-0.003	-0.0008	7.9
-0.012	0.003	-0.003	0	8.1
-0.0203	0.0067	-0.0038	0.003	8
-0.0248	0.009	0.018	0.0037	8
-0.0195	0.0082	0.039	0.0045	8.1
0.0022	0.0105	0.0277	0.0112	8
0.0187	0.012	0.0022	0.0097	8.1
0.0165	0.0045	-0.006	0.003	8
0.0067	0.0015	-0.012	0.0015	8.2
0.0075	0.0007	-0.0091	0	8.2
0.009	0.0007	-0.0053	-0.0008	8.2
0.0067	0	-0.0083	-0.0008	8.1
0	-0.0015	-0.0105	-0.0023	8.3
-0.003	0.0007	-0.0135	0	8.1
-0.0068	0.0015	-0.0098	0.0015	8.4
-0.003	0.0022	-0.0046	0.0007	8.3
0.003	0.003	-0.0068	0.0022	8.3
0.0015	0.0007	-0.0008	0	8.3
-0.0015	-0.0046	0.0105	-0.0015	8.4
0	-0.0046	0.009	0.0007	8.5
0.003	-0.0046	0.0082	0.0015	8.3
0.0015	-0.0046	0.0135	0.003	8.5
0.0022	-0.0053	0.0135	0.0007	8.3
0.0127	-0.0046	0.0105	0.0007	8.4
0.0157	-0.0008	0.0157	0	8.4
0.0082	0.0015	0.0105	-0.0008	8.5
0.0015	0.0045	-0.003	-0.0008	8.4
0.003	0.0022	-0.0128	-0.0015	8.3
0.003	-0.0008	-0.0143	-0.0023	8.3
0.0007	0	-0.0068	-0.003	8.4
-0.0008	0.0022	-0.0068	-0.0023	8.3
0	0.003	-0.003	-0.0038	8.5
-0.0015	0.0015	0	-0.003	8.4
-0.003	0.0007	-0.0023	-0.003	8.4
-0.0023	0	0.0015	-0.0038	8.5
-0.0023	0.0015	0	-0.0015	8.2
-0.0053	0.0015	-0.0008	-0.0008	8.5
-0.0091	0.003	-0.0015	0.0007	8.3
-0.0015	0.0052	0.0037	0.0015	8.4
0.0127	0.0052	0.0082	0.0022	8.4
0.0165	0.0045	0.009	0.0015	8.4
0.0157	0.003	0.006	-0.0015	8.3
0.0112	0.0007	0.003	-0.0008	8.3
0.0052	0.0015	0.0007	0.0007	8.4
-0.003	0	0.0015	0.0007	8.4
-0.0285	-0.0008	0.0067	0.0015	8.1
-0.039	0.0022	0.0097	0.0015	8.3
-0.0353	0.0007	0.006	0.0015	8.1
-0.027	-0.0008	0.003	0.0037	8.2
-0.012	0.0007	0.0045	0.003	8.1
-0.003	-0.0008	0.0075	0.0022	8.1
-0.0053	-0.0015	0.0045	-0.0008	8.1
-0.0098	-0.0015	0	-0.003	8.1
-0.0046	0.0007	0.0015	-0.0015	8.2
-0.0083	0.003	0.006	0.0007	8.1
-0.0143	0.0015	0.0157	0	8.1
-0.0091	-0.003	0.0202	0	8.1
-0.0008	-0.0023	0.0195	0.0015	8.1
0.0082	0.0015	0.0097	0.003	8.1
0.0105	0.0022	0.0007	0.0037	8.1
0.0067	0.003	0.0052	0.003	8
0.0067	0.003	0.0022	0.0037	8.2
0.0172	0.0037	-0.0083	0.0052	7.9
0.021	0.0052	-0.0256	0.0052	8.1
0.0097	0.0052	-0.0248	0.003	7.9
-0.003	0.0052	-0.0165	0.003	8.1
0.0007	0.0052	-0.0188	0.0045	8.1
0.0082	0.0052	-0.0128	0.003	7.9
0.0105	0.003	-0.0173	0.0015	8
0.0082	0.003	-0.0256	0.0015	7.8
0.009	0.0015	-0.0181	-0.0015	8.1
0.0075	-0.003	-0.012	-0.0046	8
0.0015	-0.006	-0.015	-0.006	8.1
-0.0038	-0.0068	-0.0083	-0.0046	8.1
-0.0053	-0.0068	0.003	-0.0046	8.1
-0.0008	-0.0068	0.003	-0.0053	8.2
0.0045	-0.006	0.003	-0.003	8.1
0.0082	-0.003	0.003	0	8.1
0.006	0.0037	0.0082	0.003	8.2
0.006	0.0037	0.0195	0.0045	8
0.012	0.0022	0.027	0.003	8.1
0.015	0.0045	0.0067	0.0045	8.2
0.0172	0.003	-0.0053	0.0015	8.1
0.0082	-0.0008	0.0007	-0.0008	8.2
0.0007	-0.0008	-0.003	0.0007	8.2
0.0037	0	0.0007	0.0015	8.4
0.0105	-0.0008	0.0037	0	8.3
0.0075	-0.0008	0.0067	0.0007	8.2
0.0022	-0.0015	0.0052	0.0007	8.3
0.0045	0.0007	0.0082	0.0015	8.3
0.006	0.003	0.0105	0.0045	8.3
0.003	0.003	-0.0038	0.0045	8.3
-0.003	0.0007	-0.0158	0.003	8.2
-0.003	-0.0008	-0.0218	0.003	8.5
0	0.0007	-0.0165	0.003	8.2
-0.0053	0.0007	-0.0098	0.003	8.5
-0.0083	0.0015	-0.0015	0.003	8.4
-0.003	0.0022	0.0022	0.003	8.4
-0.0068	0.003	0.0007	0.0022	8.4
-0.0046	0.0045	0.0127	0.0015	8.3
0.0045	0.0045	0.0105	0.0015	8.6
0.003	0.0015	0.0105	0	8.3
0.0082	-0.0008	0.003	0.0007	8.4
0.0127	-0.0008	-0.0173	0.0007	8.4
0.0135	-0.0015	-0.0128	-0.0015	8.4
0.0082	-0.0023	-0.0068	-0.0015	8.4
0.0015	-0.0015	0	-0.0015	8.6
-0.0038	-0.003	0.0112	-0.0023	8.6
-0.0105	-0.0038	0.012	-0.003	8.6
-0.0143	-0.0023	0.0052	-0.0008	8.3
-0.0143	0	-0.0008	0.0015	8.5
-0.0091	0.0007	-0.0053	0.0015	8.4
-0.0068	0.0015	-0.0015	0.003	8.5
-0.003	0.0007	-0.0083	0.0037	8.6
-0.0008	0	-0.0143	0.0022	8.3
0.0037	0.0007	-0.0113	0.003	8.5
0.0082	0.0022	-0.0023	0.003	8.5
0.009	0.003	0.0157	0	8.5
0.0082	0.0022	0.0165	-0.0015	8.2
0.0142	0.003	0.012	-0.003	8.5
0.018	0.003	0.0067	-0.0023	8.3
0.0045	0.0015	0.0022	-0.003	8.4
-0.0008	0.0015	0.0045	-0.0038	8.4
0.0037	0.0015	0.0007	-0.0015	8.4
0.0052	0.003	0.0052	-0.0015	8.3
0.0067	0.0037	0.012	-0.0008	8.4
0.0127	0.0045	0.009	-0.0015	8.3
0.012	0.0052	0.0045	-0.0015	8.4
-0.006	0.0045	0.0007	-0.0015	8.2
-0.027	0.0052	-0.0008	-0.0008	8.2
-0.033	0.0045	-0.003	0	8.3
-0.024	0.003	-0.0068	0.0022	8.1
-0.0173	0.0022	-0.0098	0.003	8.3
-0.0105	0.003	-0.0075	0.0022	8.1
-0.0091	0.003	0.0045	0.003	8.1
-0.0165	0.0015	0.0127	0.0015	8.2
-0.0105	0	0.0112	0.003	8.1
-0.003	0.0007	0.0105	0.003	8.2
-0.0008	-0.0008	0.009	0	8.2
0.003	-0.0015	0.0067	-0.0015	8.2
0.0067	-0.0015	-0.0008	-0.0008	8.2
0.012	0.0022	-0.0128	0.0052	8
0.012	0.006	-0.0165	0.009	8.2
0.0127	0.0067	-0.015	0.0082	8
0.0082	0.0067	-0.0158	0.0075	8.2
0.0067	0.0037	-0.0105	0.0052	8.2
0.0052	0.0015	-0.0046	0.0045	8.1
0.0067	0.0007	0.0007	0.0022	8.4
0.0157	-0.0023	0.0105	-0.0008	8.2
0.009	-0.0015	0.0142	-0.0015	8.2
-0.003	0	0.0045	0	8.2
-0.0083	0.0007	0.003	0.0015	8.1
-0.0053	0.0007	0.0052	0	8.2
-0.0105	-0.0015	0.0052	0.0015	8.3
-0.012	0.0007	0.0105	0.003	8.1
-0.0083	0.0022	0.0067	0.0037	8.3
-0.0008	0.0052	-0.006	0.0082	8.2
0.0127	0.009	-0.0158	0.0105	8.4
0.0135	0.0067	-0.0173	0.0067	8.1
0.0112	0.003	-0.0128	0.0052	8.2
0.0105	0	-0.0068	0.0015	8.4
0.0097	-0.0046	-0.0046	0.0015	8.2
0.006	-0.0068	0	-0.0008	8.5
0.0045	-0.0075	0.0015	-0.0015	8.3
0.0067	-0.006	-0.0015	-0.0015	8.6
0.0067	-0.0068	-0.0015	-0.003	8.4
0.009	-0.0083	-0.0083	-0.003	8.5
0.0067	-0.0083	-0.0225	-0.0053	8.4
0.0007	-0.0075	-0.024	-0.0046	8.4
-0.0053	-0.0083	-0.0135	-0.0023	8.4
-0.0105	-0.0083	-0.003	-0.0023	8.6
-0.0113	-0.0053	0.0007	-0.0015	8.5
-0.0105	-0.003	0.003	-0.0023	8.5
-0.015	0	0.0052	-0.003	8.5
-0.0195	-0.0008	0.012	-0.0023	8.7
-0.0143	0.0015	0.0255	0.0015	8.6
0.0015	0.009	0.0367	0.0067	8.6
0.0292	0.0157	0.0285	0.0082	8.8
0.0382	0.0157	0.0157	0.0105	8.6
0.0277	0.009	0.0105	0.006	8.9
0.012	0.0045	0.003	0.0015	8.7
0.0015	0.0007	-0.003	0.0015	8.7
0.0015	-0.0015	-0.0091	-0.0008	8.7
-0.0046	-0.0038	-0.0143	-0.003	8.5
-0.0053	-0.003	-0.0105	-0.0053	8.8
-0.0008	-0.0038	-0.0083	-0.0068	8.7
0.0015	-0.0053	-0.0113	-0.0083	8.7
0.0022	-0.0015	-0.0158	-0.0075	8.7
0.0015	-0.0015	-0.0083	-0.006	8.7
0.0015	-0.0023	0.0015	-0.0068	8.9
0.0015	-0.0008	0.0067	-0.0053	8.7
0.0007	0.0015	0.0097	-0.003	8.8
-0.0008	0.003	0.0015	-0.0008	8.8
-0.0008	0.0037	-0.0008	0.0015	8.9
0.0007	0.003	0.0015	0.0007	8.8
0	0.0007	0.003	-0.0015	8.7
0.0015	0.0007	0.0015	-0.0008	9
0.0007	0.0022	-0.0083	-0.0008	8.8
0.0015	0.003	-0.0091	-0.0008	8.8
0.0007	0.0022	-0.0008	-0.0015	9
-0.0083	0	-0.0008	-0.0015	8.6
-0.0165	0	-0.0075	0.0007	8.7
-0.0233	0.0007	-0.0068	0.003	8.8
-0.0165	0.003	0.003	0.0052	8.8
0.0075	0.003	0.0045	0.006	8.8
0.0165	0.0037	-0.0015	0.0067	8.9
0.0097	0.0052	0.0082	0.0067	8.8
0.0007	0.0045	0.0075	0.0045	9
-0.0053	0.0015	0.0007	0.0015	8.8
0.009	-0.0008	0.0015	0	9
0.0127	0.0007	0.0052	-0.0015	8.7
-0.0023	0.0015	0.0127	0.0015	8.8
-0.0158	0.0022	0.0142	0.0045	8.7
-0.0383	0.0045	0.009	0.0045	8.7
-0.039	0.0037	0.003	0.0045	8.7
-0.015	0.003	0.0007	0.0015	8.7
-0.0023	0.0015	0.0007	0.0007	8.8
-0.0008	0.0015	0.0015	0.0007	8.7
0.0015	0.0015	0	-0.0015	8.7
0.0052	-0.0008	-0.0053	0	8.7
0.0045	-0.0008	-0.0046	-0.0015	8.8
0.006	-0.003	-0.0083	-0.0015	8.5
0.0172	-0.0023	-0.0075	0.0015	8.5
0.021	0.0007	-0.0053	0.0015	8.4
0.0187	-0.0008	-0.0135	0.0007	8.7
0.0195	-0.0015	-0.015	-0.0008	8.5
0.0067	-0.0008	-0.0023	-0.0008	8.7
-0.0038	0.0015	0.006	0.0007	8.7
-0.0038	0	0.0105	0.0007	8.6
-0.0015	-0.003	0.012	0.0007	8.8
-0.0023	-0.0008	0.0142	0.0007	8.5
0.0015	-0.0008	0.0142	0.0015	8.8
0.0045	0.0007	0.0067	0.0037	8.5
-0.0015	-0.0008	-0.0015	0.0052	8.6
-0.003	-0.0015	-0.0053	0.0045	8.6
-0.0008	0	-0.012	0.0045	8.5
0.003	0.0015	-0.012	0.0022	8.7
0.003	0.0007	-0.0098	-0.0008	8.7
0.0052	0.0007	-0.0046	-0.0015	8.7
0.0045	0.0022	0.0015	-0.0008	8.7
0.003	0.003	0.0037	-0.0008	8.7
0.0052	0.0015	-0.0075	-0.0015	8.8
0.0045	0	-0.0143	-0.003	8.8
0.006	0.0015	-0.0128	0	8.8
0.0067	0.003	-0.0181	0.003	8.9
0.0052	0.0022	-0.0188	0.0045	8.7
0.0037	0.003	-0.0165	0.0052	9
0.0007	0.0015	-0.0083	0.0022	8.7
0.0022	0.0015	0.0052	0.0007	9.2
0.0015	0.0007	0.0142	0.0022	9
-0.0008	-0.003	0.0217	-0.0008	9.1
0.0052	-0.0053	0.0232	0	9.1
0.0112	-0.0053	0.0247	0.003	9.3
0.0105	-0.0038	0.0142	0.0045	9
0.003	-0.003	0.0045	0.0022	9.3
-0.0046	-0.0038	0.0082	0.0015	9.1
-0.0038	-0.003	0.0037	0.003	9.3
-0.0023	-0.0015	-0.0015	0.0015	9.2
-0.0046	0	-0.0015	0.0007	9.3
-0.0046	0.0022	0.0045	0.0015	9.3
0.0075	0.003	0.015	0.0045	9.3
0.0157	0.0052	0.009	0.0045	9.4
0.012	0.0075	-0.0091	0.0045	9.3
0.0105	0.003	-0.0293	0.0015	9.4
0.0052	-0.0008	-0.0375	0	9.4
-0.0008	0.0015	-0.0368	0.0015	9.4
-0.012	0.0022	-0.0195	-0.0008	9.4
-0.0173	0.0015	0.009	0	9.5
-0.0098	0	0.0202	0	9.4
-0.0105	-0.003	0.015	-0.0023	9.5
-0.0091	-0.003	0.0105	-0.0008	9.4
-0.0091	-0.0008	0.0142	-0.0008	9.7
-0.0046	0.0022	0.0285	-0.0008	9.5
0.0052	0.0045	0.0277	0.003	9.6
0.0127	0.0082	0.0105	0.0045	9.7
0.0187	0.0082	-0.0008	-0.0008	9.7
0.0127	0.0045	-0.0083	-0.0023	9.8
0.0082	0.003	-0.0091	-0.0008	9.6
0.0067	0.003	-0.0046	-0.0015	9.8
0.0067	0.0015	-0.0075	-0.0015	9.5
0.009	-0.0008	-0.0068	0	9.9
0.0195	-0.0008	-0.0068	0.0037	9.8
0.0322	-0.0008	-0.0053	0.003	9.8
0.0195	0.0007	-0.0046	0.0022	9.7
-0.0023	0.003	-0.006	0.0015	9.7
-0.0165	0.003	-0.0015	0.0007	9.9
-0.0218	0.003	0.0015	0.0015	9.9
-0.0188	0.0007	0.0052	0.0007	9.7
-0.0165	-0.0015	0.0015	-0.0008	9.9
-0.0113	-0.0023	0.0007	-0.0008	9.7
-0.0143	-0.0038	0.003	-0.0023	9.6
-0.0181	-0.0046	0.0007	0	9.9
-0.006	-0.0015	-0.0015	-0.0008	9.7
-0.0046	-0.0008	-0.0015	-0.0023	9.9
-0.0091	-0.0015	0.0007	-0.0046	9.6
-0.0038	-0.0015	0.0015	-0.0053	9.7
-0.0008	0	-0.0008	-0.0038	9.6
0	-0.0008	-0.0008	-0.0046	9.7
0.0015	0.0007	-0.0053	-0.0023	9.5
0.003	0.0015	-0.0083	-0.0015	9.5
0.0067	0.0007	-0.0083	-0.0023	9.4
0.0075	-0.0008	-0.0068	0	9.5
0.0045	-0.0015	-0.003	0.0007	9.5
0.006	0	-0.0008	0.0007	9.5
0.006	0.0015	0.0015	0.0007	9.4
0.0015	0.003	0.0022	0.0007	9.5
-0.0053	0.003	0.0052	0.0007	9.3
-0.0105	0.003	0.0045	-0.0008	9.4
-0.012	0.0007	0.0037	-0.0015	9.5
-0.0105	0.0015	0.0075	0	9.3
-0.006	0.003	0.0105	0	9.4
0.0007	0.0037	0.012	0.0007	9.4
0.0037	0.0045	0.012	0.003	9.4
0.0007	0.0045	0.0105	0.003	9.4
-0.0053	0.0037	0.0075	0.0045	9.3
-0.0068	0.0037	0.006	0.0052	9.4
-0.006	0.003	0.0067	0.0045	9.4
-0.0038	0.0022	0.0045	0.0022	9.3
-0.0023	0.0015	-0.0008	0.0015	9.4
-0.0008	0.0007	-0.006	0.0007	9.1
0.0045	-0.0008	-0.0128	0.0007	9.4
0.0052	0	-0.015	0.0015	9.1
0.0007	0.0022	-0.0113	0.003	9.3
0.0015	0.003	-0.0068	0.0037	9.3
0.0067	0.003	-0.012	0.0045	9.3
0.006	0.0037	-0.0165	0.0067	9.3
0.0052	0.0045	-0.0188	0.0075	9.1
0.009	0.0045	-0.0128	0.0075	9.3
0.0112	0.0037	0.003	0.0075	9.3
0.0127	0.0052	0.0082	0.0067	9.5
0.0105	0.0067	-0.003	0.0052	9.4
0.0067	0.0045	-0.0053	0.0045	9.4
0.006	0.0007	0.003	0.0037	9.3
0.0037	0	0.0127	0.0022	9.4
0.0052	-0.0015	0.0127	0.0007	9.4
0.0067	-0.003	0.0015	0	9.5
0.0067	0.0007	0	0.0007	9.5
0.0045	0.0007	-0.0015	0.0015	9.5
-0.0008	-0.003	-0.003	-0.0015	9.5
-0.006	-0.0068	-0.0083	-0.0053	9.4
-0.0008	-0.0075	-0.0203	-0.0038	9.6
0.0075	-0.0068	-0.0293	-0.0008	9.4
0.0067	-0.0046	-0.0195	-0.0008	9.6
0.0067	-0.003	0.0097	-0.0015	9.5
0.0082	-0.003	0.0135	0	9.7
0.003	0	0.0112	-0.0008	9.7
-0.003	0.0007	0.0217	-0.0023	9.7
0.0045	0.0007	0.0195	-0.0046	9.8
0.012	-0.0015	0.0195	-0.0046	9.8
0.0075	-0.0008	0.0075	0.0015	9.9
0.0045	0.0037	-0.0165	0.0045	9.9
0.009	0.0037	-0.0218	0.003	9.7
0.0105	0.0022	-0.0128	0.0015	10
0.0052	0.003	0.003	-0.0008	9.8
0.0105	0.0007	0.012	-0.0015	10.1
0.0157	0.0007	0.0082	-0.003	10.1
0.0037	-0.0008	0.0015	-0.003	10.2
-0.0098	0.0007	0.0052	-0.0015	10.3
-0.024	0.003	0.0105	0.0015	10.2
-0.0413	0.0052	0.006	0.0052	10.4
-0.0225	0.006	0	0.0052	10.2
0.0277	0.006	-0.0046	0.0045	10.4
0.0367	0.006	-0.0015	0.0015	10.3
0.0142	0.0037	-0.003	-0.0023	10.4
0.0007	0.0015	0.0007	-0.003	10.5
-0.0091	0.0007	0.0052	-0.0023	10.4
-0.0165	-0.0015	-0.0015	-0.0038	10.4
-0.0203	-0.0038	-0.0053	-0.0053	10.7
-0.0203	-0.003	-0.0083	-0.0023	10.4
-0.015	-0.0008	-0.0075	0.0007	10.7
-0.0105	0.0007	0.0052	0.0022	10.7
0.0022	0.003	0.0067	0.0045	10.7
0.006	0.003	0.003	0.0052	10.7
0.009	0.0007	0.0045	0.0067	10.7
0.0187	-0.0008	0.0015	0.0045	11
0.0195	-0.0015	-0.003	0.003	10.7
0.009	0.0007	-0.003	0.003	10.9
-0.0083	0.0022	-0.0015	0	10.8
-0.0128	0.0015	0.0007	0.0015	10.8
-0.0015	0.0007	0.0007	0.0007	10.7
-0.0008	0.0015	-0.0008	-0.003	10.8
-0.0083	0.0037	-0.0046	-0.003	10.8
0.0022	0.0007	-0.0068	-0.003	10.8
0.0097	0.0007	-0.0068	-0.0046	10.7
0.0067	0.0007	-0.0038	-0.0038	11
0.003	0.0007	0	-0.0015	10.9
0.0022	0.0015	0.003	-0.0015	10.9
-0.0008	-0.0015	0.003	-0.0015	10.8
-0.0075	-0.0008	0.0007	-0.0008	10.8
-0.0113	0	0.0052	0.0022	11
-0.0135	0.0015	0.0052	0.003	10.7
-0.0053	0.003	0.006	0.003	11
-0.0008	0.0022	0.0067	0.0045	10.7
0.0052	0.003	0.003	0.0045	10.9
0.0097	0.003	0.0045	0.003	10.7
-0.0008	0.0022	0.003	0.0007	10.8
-0.0046	0.0015	0.0045	0.0015	10.7
-0.0068	0.0022	0.0067	0.0015	10.8
-0.0083	0.0022	0.0037	0.0015	10.7
-0.0053	0.0007	0.0007	0.0037	10.8
-0.006	0.0022	-0.0008	0.0037	10.6
-0.003	0.0037	-0.0008	0.003	11
-0.003	0.003	-0.0008	0.003	10.6
-0.0046	0.003	-0.0015	0.0022	10.7
-0.0038	0.0022	-0.0015	0.0022	10.7
-0.003	0.003	0.0015	0.0015	10.5
0.0015	0.0045	0.0007	-0.0008	10.8
0.0052	0.0037	-0.0008	-0.0008	10.5
0.009	0.0037	0.0015	-0.0008	10.7
0.0075	0.0037	0.0015	-0.0008	10.7
0.0045	0.0015	0.0007	0	10.7
-0.003	0.0015	-0.0015	0.0015	10.7
-0.0083	0.0015	-0.003	0.0007	10.7
-0.0023	0	-0.0046	-0.0008	10.7
0.0052	-0.0008	-0.0046	-0.0008	10.7
0.012	0.0007	-0.0046	0.0007	10.6
0.0277	-0.0008	-0.003	0.0007	10.7
0.0337	-0.0015	0.0007	0.0015	10.6
0.0307	-0.003	0.0015	-0.0008	10.8
0.024	-0.0046	0.0045	-0.0015	10.6
0.009	-0.0038	0.006	-0.0008	10.7
-0.003	-0.0008	0.0045	-0.0015	10.7
-0.0218	0.0007	0.003	0.0007	10.7
-0.0263	0.0007	0.0007	0.0015	10.9
-0.0158	-0.0015	-0.003	0.0007	10.6
-0.0091	-0.003	-0.0105	-0.0008	10.9
-0.006	-0.0038	-0.0143	-0.0008	10.7
-0.0015	-0.003	-0.0195	-0.0008	11
0.0112	-0.0023	-0.0233	-0.0015	10.9
0.0127	-0.0023	-0.0203	-0.0015	11
0.0105	0.0007	-0.0173	-0.0008	11
-0.0008	-0.0015	-0.0083	-0.0015	11.1
-0.0128	-0.003	-0.003	-0.0015	11.1
-0.0143	-0.0046	0.0037	-0.0008	11.2
-0.0053	-0.0046	0.0157	0.0007	11.2
0.003	-0.0046	0.024	-0.0008	11.2
-0.0053	-0.003	0.0232	0.0015	11.2
0.0127	-0.0015	0.0135	0.0052	11.2
0.0307	-0.0023	0.012	0.0045	11.4
0.0352	-0.0015	-0.003	0.0037	11.2
0.0285	-0.0008	-0.0218	0.0052	11.5
0.0165	0.0007	-0.024	0.0067	11.5
0.027	0.0037	-0.0278	0.0105	11.6
0.0067	0.0067	-0.0248	0.0127	11.7
-0.0225	0.0067	-0.0068	0.009	11.8
-0.0346	0.003	0.0045	0.0052	11.9
-0.0308	-0.0008	0.0045	0.0037	11.9
-0.0143	0.0007	0.0067	0.003	11.9
-0.0158	0.0015	0.0142	0.0015	12.1
-0.0165	0.003	0.027	0.0022	11.9
0.0015	0.0045	0.0397	0.0045	12.5
0.0172	0.0052	0.0322	0.003	12.4
0.015	0.006	0.0142	0.0022	12.5
0.0127	0.0067	0.0045	0.0007	12.6
0.0142	0.0052	-0.0015	-0.0008	12.6
0.0157	0.0037	-0.0053	-0.0008	12.7
0.003	0.0022	-0.0046	-0.0038	12.7
-0.0165	-0.0008	-0.0113	-0.006	12.8
-0.0263	-0.0008	-0.015	-0.0046	13
0.0007	-0.0008	-0.0158	-0.003	13
0.045	-0.0015	-0.0195	-0.0015	13.2
0.0577	-0.0038	-0.0165	-0.0023	13.3
0.057	-0.003	-0.0128	-0.003	13.3
0.03	-0.006	-0.0046	-0.0046	13.5
-0.0158	-0.0053	0.003	-0.0023	13.4
-0.0518	-0.0015	0.0007	-0.0015	13.7
-0.0615	-0.0015	0.0037	-0.0023	13.6
-0.0473	-0.0023	0.0075	-0.0008	13.9
-0.0375	-0.0008	0.0052	0.0007	13.8
-0.0233	0.0007	0.0045	0	13.9
-0.012	0.0015	0.003	-0.0015	14
0	0.0015	0.0022	-0.0015	13.9
0.0007	0	-0.0008	0.0007	14.2
-0.0015	0.0015	-0.006	0.0007	14
0.003	0.003	-0.0105	0.0007	14.1
-0.003	0.0045	-0.0128	-0.0008	14.1
0.006	0.0067	-0.0113	-0.0008	14.3
0.0217	0.0045	-0.0083	0	14.2
0.0427	0.0052	-0.0053	-0.0015	14.4
0.0585	0.0045	-0.0053	0	14.4
0.0637	0.0007	-0.0068	-0.0015	14.3
0.069	0.0015	-0.0068	-0.0023	14.2
0.048	0.0007	-0.012	-0.0008	14.4
0.039	0.0007	-0.015	0	14.3
0.03	0.0022	-0.0068	0.0015	14.1
-0.0368	0.0045	0.0142	0.0007	14.4
-0.0743	0.0045	0.0345	0.0007	14.3
-0.096	0.0022	0.0427	0	14.4
-0.1335	0.003	0.0465	-0.0008	14.3
-0.1125	0.003	0.0352	-0.0015	14.4
-0.0608	0.003	0.0255	-0.0015	14.2
-0.0068	0.0045	0.0165	-0.0015	14.3
0.0082	0.0052	0.0067	-0.003	14.2
0.0067	0.0052	0.0052	-0.0023	14.2
0.0157	0.0045	0.0007	-0.0015	14.1
0.0142	0.0045	0.0022	0	14.1
0.0202	0.003	0.0015	0.003	13.9
0.0165	0.0037	0.0015	0.0045	14
0.015	0.0022	0.0022	0.0045	13.9
0.0075	0.0007	-0.0008	0.0052	14
0.0015	0.0015	-0.0008	0.0052	13.9
-0.0015	0.0022	-0.0008	0.0052	13.9
-0.0053	0.0022	-0.0008	0.0052	13.9
-0.003	0.0015	-0.0015	0.0045	13.8
-0.0038	0.0015	-0.0053	0.0052	13.8
-0.003	0.0015	-0.0075	0.0045	13.5
-0.003	0.003	-0.0053	0.0037	13.9
0.0007	0.003	-0.006	0.0037	13.7
0.0007	0.0015	-0.0083	0.003	13.5
-0.0008	-0.0008	-0.0091	0.0015	13.7
0	-0.0015	-0.012	0.0045	13.7
0	-0.003	-0.0113	0.0037	13.7
-0.0008	-0.003	-0.0075	0.0007	13.9
0.0015	-0.0023	-0.0053	0	13.7
0.0045	-0.0015	-0.0046	0	13.9
0.0022	-0.0008	-0.006	-0.0008	13.9
0.003	0.0007	-0.0075	-0.0015	13.9
0.003	0.0007	-0.0083	-0.0008	13.8
0.0082	-0.0015	-0.0083	0.0007	13.7
0.012	-0.0015	-0.0068	0.0007	13.9
0.0142	-0.0038	-0.0053	-0.0008	13.8
0.012	-0.0023	-0.0046	0	14.1
0.006	-0.0015	-0.0053	0.0007	14
0.0097	-0.0023	-0.0075	0.0007	14
0.0127	-0.0015	-0.006	0.0007	14.2
0.018	-0.003	-0.0091	0	14.2
0.0262	-0.0023	-0.0128	-0.0008	14.4
0.036	-0.003	-0.0203	-0.0015	14.2
0.0405	-0.0023	-0.0278	-0.0015	14.4
0.0217	-0.003	-0.0256	-0.0015	14.4
-0.0091	-0.003	-0.0203	-0.0008	14.4
0.0202	0	-0.0083	-0.0008	14.7
0.0562	0.0007	0.0105	-0.0015	14.6
0.0285	-0.0023	0.033	-0.0023	14.8
0.0045	-0.0046	0.0525	-0.003	15
-0.012	-0.0023	0.0487	-0.0015	14.8
-0.0458	-0.0015	0.021	0.0015	15
-0.0503	-0.0015	0.009	0.003	15.1
-0.0181	-0.003	0.0015	0.0022	15.2
0.0097	-0.003	-0.0188	0.0037	15.3
0.009	-0.0023	-0.0233	0.0052	15.3
0.0015	-0.003	-0.015	0.0067	15.4
-0.003	0.0007	-0.0083	0.0127	15.6
0.0007	0.0082	-0.0053	0.0172	15.8
0.0075	0.012	0	0.0165	15.9
-0.0008	0.0082	0.012	0.012	15.9
0.0015	0.0052	0.0015	0.0097	16.2
0.0217	0.0067	-0.0083	0.0082	16.2
0.024	0.0075	0.003	0.0052	16.5
0.0105	0.0052	0.0037	0.003	16.4
0.0217	0.0015	0.006	-0.003	16.7
0.0367	-0.0008	0.0142	-0.0053	16.9
0.027	-0.0015	0.0195	-0.006	16.7
0.0142	-0.0008	0.0165	-0.0068	17.3
0.0007	-0.0008	0.0127	-0.0046	17.3
-0.024	-0.0008	0.0165	-0.0053	17.6
-0.0428	0.0007	0.021	-0.0053	17.7
-0.0405	0.003	0.021	-0.0053	17.8
-0.027	0	0.0195	-0.0053	17.9
0.006	-0.0015	0.0127	-0.0038	18.1
0.0225	-0.0023	0.0045	-0.003	18.2
0.0127	-0.003	-0.0008	-0.0008	18.5
0.0105	-0.003	-0.003	0.0007	18.4
0.0037	-0.0023	-0.0046	0.0045	18.7
-0.0105	0.0007	-0.0083	0.0045	18.8
-0.0203	0.0015	-0.012	0.003	19
-0.0128	0.0015	-0.0158	0.0037	19.1
-0.0053	0.0015	-0.0188	0.003	19.2
-0.0053	0.0007	-0.0188	0.0015	19.6
-0.003	0.0007	-0.021	0.0015	19.5
0	-0.0008	-0.0233	0.0037	19.6
0.0015	-0.0015	-0.0181	0.0045	19.7
0.0015	-0.0015	-0.0135	0.0045	19.9
0.003	-0.0015	-0.0091	0.0052	19.9
0.0037	-0.0008	-0.006	0.0045	20.1
0.0045	0	-0.0068	0.0045	20.2
0.0007	0.0007	-0.0053	0.0045	20.2
-0.0015	0.0007	-0.003	0.003	20.2
-0.0015	0	-0.0038	0.0007	20.4
-0.0015	0.0022	-0.0008	0.0007	20.3
0.003	0.0007	0.0022	-0.0008	20.5
0.0037	0.0015	0.003	-0.0023	20.4
0.003	0.0015	0.003	-0.0008	20.4
0.0037	0.0015	-0.0008	0	20.5
0.003	0.003	-0.0008	0.0015	20.3
0.0022	0.0052	0.0067	0.0007	20.4
0.0022	0.0052	0.0097	0.0007	20.2
0.0022	0.0052	0.009	0.0007	20.2
0.0015	0.0067	0.0105	-0.0008	20.2
0.003	0.0052	0.0105	-0.006	20.1
0.0007	0.0045	0.0097	-0.0068	20.2
-0.003	0.0052	0.0097	-0.0053	20
-0.0075	0.0067	0.0142	-0.006	19.8
-0.0105	0.0082	0.0127	-0.0053	19.8
-0.0143	0.0082	0.0142	-0.0038	19.6
-0.0203	0.009	0.0157	-0.0038	19.8
-0.024	0.009	0.0127	-0.0015	19.5
-0.0256	0.0067	0.012	-0.0015	19.5
-0.0218	0.0045	0.012	-0.0008	19.3
-0.0173	0.003	0.012	-0.0008	19.2
-0.015	0.0015	0.012	-0.0023	19.3
-0.012	-0.0008	0.0105	-0.003	19
-0.0091	-0.0008	0.003	-0.003	19
-0.0068	0.0007	-0.003	-0.003	18.9
-0.0046	0.0007	-0.0053	-0.0015	18.7
-0.0053	0.0007	-0.0068	-0.0015	18.9
-0.0053	0.0007	-0.0091	0	18.6
-0.0038	-0.0008	-0.0128	0.0015	18.7
-0.0008	-0.0008	-0.0105	0.0007	18.7
-0.0015	0.0015	-0.0075	0.0007	18.4
-0.0053	0.0022	-0.0046	0.0007	18.6
-0.0068	0.0045	-0.0038	-0.0008	18.4
-0.0068	0.003	-0.0075	-0.0023	18.4
-0.0053	0.0022	-0.0105	-0.0015	18.4
-0.0068	0.0022	-0.0128	-0.0015	18.3
-0.0046	0.0007	-0.0128	-0.0038	18.4
-0.0015	-0.0008	-0.0128	-0.003	18.3
-0.0023	0	-0.0105	0.0007	18.6
-0.0008	0.0007	-0.0023	0.0015	18.5
-0.0015	-0.0008	0.0022	0.003	18.4
-0.0008	-0.0015	0.0045	0.0022	18.5
-0.0008	-0.0015	0.0082	0.0022	18.4
-0.0008	-0.0038	0.0067	0.0037	18.5
0.0015	-0.003	0.003	0.0022	18.5
0.0067	-0.0023	-0.0008	0.0022	18.6
0.0157	-0.003	-0.0053	0.0022	18.6
0.021	-0.003	-0.0135	0.0015	18.5
0.0307	-0.0053	-0.0165	0.0007	18.7
0.0375	-0.0038	-0.0173	0.0007	18.6
0.033	-0.0023	-0.015	0.0015	18.7
0.0232	-0.0015	-0.012	0.0015	18.7
0.003	-0.003	-0.0098	0.003	18.6
-0.0128	-0.0015	-0.0105	0.0037	18.9
0.006	-0.0008	-0.0218	0.003	18.7
0.0105	-0.0053	-0.0308	0.0007	19
0.0007	-0.0053	-0.033	0	19
0.027	-0.003	-0.0315	-0.0008	19
0.0352	-0.003	-0.0233	0	19.2
0.0292	-0.0023	-0.0143	0.0007	19.2
0.051	-0.0023	-0.012	-0.0008	19.4
0.0682	-0.0008	-0.0053	0	19.3
0.024	-0.0008	-0.0008	0.0015	19.4
-0.0645	-0.003	0.0037	0	19.6
-0.1058	-0.0053	0.0157	-0.0015	19.5
-0.0825	-0.0046	0.0172	-0.0015	19.8
-0.03	-0.003	0.0217	-0.0008	19.8
-0.0105	-0.0023	0.042	-0.0015	20
-0.012	-0.0038	0.057	-0.003	20
0.0165	-0.0046	0.0697	-0.0023	20.2
0.0517	-0.0015	0.066	-0.0015	20.3
0.0562	0.0007	0.0525	0.0007	20.4
0.048	0.0022	0.042	0.0022	20.4
0.0375	0.0015	0.0142	0.0045	20.7
0.0202	0.0052	-0.0143	0.009	20.7
0.0127	0.009	-0.0225	0.012	21
0.0135	0.0097	-0.0263	0.0127	21
0.015	0.0112	-0.0248	0.0127	21.2
0.0157	0.0082	-0.0278	0.0105	21.4
0.0247	0.003	-0.0383	0.0105	21.5
0.0232	-0.0008	-0.0308	0.0082	21.8
0.0007	-0.003	-0.0158	0.0052	21.8
0.0082	-0.0046	-0.0046	0.0037	22.1
0.0292	-0.0023	0.0082	0	22.2
0.018	-0.0008	0.0165	0.0007	22.5
-0.0046	-0.0008	0.0232	-0.0015	22.6
-0.0068	-0.0008	0.018	-0.0015	22.7
-0.0158	0	0.0007	-0.0015	23.1
-0.0248	-0.0015	-0.0046	-0.003	23.3
-0.0165	0	-0.0008	-0.0015	23.4
-0.0105	0.0022	-0.003	0	23.5
0.0015	0.0022	-0.006	0.0007	23.6
-0.0113	0.0022	-0.0068	-0.0008	23.9
-0.0181	0.003	-0.0023	0	24
-0.0158	0.0045	0.0045	0.0015	24.2
-0.0181	0.0045	0.0082	0.0037	24.5
-0.003	0.0075	0.0067	0.0052	24.4
0.003	0.0067	0.0007	0.0052	24.7
0.0052	0.006	-0.0015	0.0037	24.7
0.0067	0.006	-0.0038	0.0015	25
0.0082	0.0045	-0.0046	-0.0015	25.1
0.0045	0.003	-0.0046	-0.0015	25.1
0.0007	0.0015	-0.0091	-0.0008	25.4
-0.0023	0.0007	-0.0113	-0.0015	25.3
-0.0023	-0.0015	-0.0091	-0.0015	25.5
-0.0015	-0.0008	-0.0083	0.0015	25.6
-0.003	0.0007	-0.0053	0.0037	25.8
-0.0075	-0.0008	0	0.0037	25.9
-0.015	-0.0008	0.0015	0.0037	25.9
-0.0105	-0.0015	0.0007	0.0045	25.9
-0.006	0.0007	0.0022	0.0045	26.2
-0.0046	0.0015	-0.0008	0.0045	26
-0.0015	0.0015	-0.0038	0.0045	26.3
-0.0038	0.0022	-0.0023	0.0045	26.1
-0.003	0.003	0.0015	0.003	26.1
0	0.003	0.0052	0.0015	26.5
0.003	0.0015	0.0105	0	26.1
0.006	0.0007	0.0097	0.003	26.4
0.0045	0.0007	0.0082	0.0052	26.3
0.0015	0.0015	0.0105	0.003	26.3
-0.003	0.0007	0.0097	0.0037	26.1
-0.0091	-0.0008	0.0052	0.0007	26.3
-0.0098	-0.0015	0.0022	-0.0023	26.2
-0.0053	-0.0015	0	-0.003	26.2
-0.003	0.0015	-0.003	-0.0038	26.2
-0.0046	0.0015	-0.003	-0.0053	26.2
-0.0091	0.0007	-0.0015	-0.0053	26.1
-0.0105	-0.0008	-0.0015	-0.0046	26.2
-0.0083	-0.0008	-0.0015	-0.0046	26
-0.0083	-0.0008	0.0007	-0.0038	26.1
-0.0068	-0.003	0.0007	-0.0046	26.1
-0.0068	-0.0023	-0.0023	-0.0046	26.1
-0.006	-0.0008	-0.003	-0.003	26.1
-0.0068	0	-0.0038	-0.003	25.8
-0.0083	0.0007	-0.0015	-0.0046	26.1
-0.006	0.0015	0.0007	-0.0046	25.7
-0.0046	0.0007	0.0015	-0.0053	25.9
-0.003	0.0037	0.0007	-0.006	25.9
-0.0038	0.0045	-0.0015	-0.0068	25.8
-0.0046	0.0045	-0.0008	-0.006	25.7
-0.003	0.006	-0.0015	-0.003	25.7
-0.0023	0.0045	-0.0015	-0.003	25.6
-0.0046	0.0052	-0.003	-0.003	25.7
-0.006	0.0052	-0.003	-0.0008	25.6
-0.0046	0.0045	0	0.0007	25.8
0.0022	0.0045	-0.0015	0.0007	25.7
0.0142	0.003	-0.0015	-0.0008	25.7
0.0217	0.003	-0.0046	-0.0015	25.8
0.0157	-0.0008	-0.0091	-0.0008	25.4
-0.012	-0.0023	-0.0128	-0.0015	25.8
-0.0263	-0.0015	-0.0135	-0.0008	25.6
-0.0203	0.0007	-0.0113	0.0015	26.1
-0.0173	0.0015	-0.0023	0.003	25.8
0.027	0.0022	0.0007	0.0045	26.1
0.078	0.0015	-0.0046	0.0052	26.1
0.036	0	-0.0008	0.0052	26.4
-0.0338	0.0007	0.0037	0.0045	26.2
-0.0728	0.0015	0.0067	0.0037	26.4
-0.1118	0.0007	0.0075	0.0015	26.1
-0.09	-0.0015	0.0007	-0.0008	26.5
-0.027	0	-0.0053	0	26.5
0.0345	-0.0008	-0.003	0	26.7
0.0345	-0.0008	0.0052	-0.0008	26.8
0.012	-0.0015	0.0015	-0.0008	27
0.0307	-0.003	0.0015	-0.0015	27
0.0345	-0.003	0.006	-0.0015	27.2
0.0472	-0.0046	0.0142	-0.0015	27.3
0.0502	-0.0015	0.027	-0.0015	27.4
0.0487	0.0007	0.0352	0	27.6
0.0232	0.0007	0.039	0.0015	27.6
0.0082	-0.003	0.0315	-0.0015	27.9
0.0135	-0.0053	0.024	0	27.9
0.0045	-0.0046	0.0052	0.0007	28.2
0.0127	-0.0015	-0.0105	0.0007	28
0.0015	-0.0008	-0.0105	0.0015	28.4
-0.0083	-0.0008	-0.0128	0.0007	28.4
-0.015	-0.0008	-0.0218	0.0007	28.6
-0.0046	-0.003	-0.0315	0.0022	28.8
-0.0053	-0.0015	-0.0353	0.003	28.8
-0.012	-0.0008	-0.0293	0.0045	29.2
0.0067	0.0007	-0.024	0.006	29
-0.0015	0.0022	-0.0218	0.0067	29.4
-0.0008	0.0045	-0.021	0.009	29.4
0.0007	0.0067	-0.0203	0.0112	29.7
0.0082	0.0067	-0.0195	0.0105	29.8
0.0165	0.006	-0.0218	0.0082	30
0.0225	0.0052	-0.0165	0.0067	30.1
0.0262	0.0067	-0.0128	0.0067	30.5
0.018	0.0052	-0.015	0.0037	30.6
0.0127	0.003	-0.0068	0.0022	30.7
0.003	0.0022	-0.003	0.0007	30.9
-0.0015	0.0022	-0.0008	-0.0008	31
-0.003	0	0.0067	-0.0008	31.2
0.0067	-0.0015	0.009	-0.0015	31.4
0.0112	-0.0023	0.009	-0.0015	31.5
0.0067	-0.0046	0.0067	-0.0023	31.6
0.006	-0.0023	0.006	-0.003	31.9
0.0015	-0.0015	0.0082	-0.0046	31.7
-0.0008	-0.0015	0.0082	-0.003	32.2
-0.0053	-0.0015	0.0052	-0.0008	32.1
-0.0046	-0.003	0.0045	0.0007	32.4
-0.0053	-0.0015	0.0067	0.003	32.6
-0.0023	-0.003	0.0052	0.0045	32.4
0.0007	-0.0008	0.0037	0.0037	32.5
0	0	0.0075	0.003	33
0	-0.0008	0.0127	0.0045	32.7
-0.0008	0	0.015	0.003	33.2
0.0015	0.0015	0.0135	0.0007	33.1
0.0045	0.003	0.0157	0.0007	33.3
0.0052	0.0045	0.0142	0.0015	33.3
0.0045	0.0045	0.0105	0.0015	33.5
0.0045	0.0045	0.0135	0.0015	33.6
0.0052	0.003	0.0105	0.003	33.6
0.006	0.003	0.0112	0.0015	33.7
0.0052	0.0022	0.012	-0.0015	33.6
0.0045	0.0022	0.0105	0.0007	33.8
0.0052	0.0022	0.009	0.0007	33.9
0.0052	0.0037	0.0082	0.0007	33.9
0.006	0.0052	0.0082	0.0015	33.9
0.009	0.003	0.0052	0.0007	34.1
0.009	0.0015	0.003	0.0007	34
0.006	0	0.0015	-0.0015	34.3
0.0007	-0.0008	0.0015	-0.0023	33.9
-0.0046	0	0.0015	0	34.3
-0.0083	0	0.0007	0.0015	34.1
-0.0113	0.0015	0.0015	0.0037	34.2
-0.0128	0.0015	0.003	0.0015	34.2
-0.012	0.003	0.0022	0.0022	34.2
-0.012	0.003	0.0015	0.003	34.2
-0.0098	0.003	-0.0015	0.0037	34.1
-0.0083	0.003	-0.0053	0.006	34.2
-0.0046	0.0022	-0.0083	0.0052	33.9
-0.003	0.0015	-0.0091	0.006	34.1
-0.0015	0.003	-0.0105	0.0052	34.1
-0.003	0.003	-0.0113	0.0037	34
-0.0046	0.003	-0.0091	0.0007	33.9
-0.0046	0.0037	-0.0075	-0.0015	34.1
-0.006	0.003	-0.006	-0.0015	33.9
-0.0068	0.0037	-0.0075	-0.003	34.1
-0.006	0.0045	-0.0046	-0.0046	33.9
-0.0053	0.0022	-0.0038	-0.006	34
-0.0068	0.0037	-0.0046	-0.0068	33.9
-0.0075	0.0052	-0.003	-0.0068	33.8
