File Name: marcha_2.log
Channel 4: 'Recto Femoral', 51376 values, engineering units: mV, no filters.
Channel 5: 'Biceps Femoral', 51376 values, engineering units: mV, no filters.
Channel 6: 'Vasto Medial', 51376 values, engineering units: mV, no filters.
Channel 7: 'EMG Semitendinoso', 51376 values, engineering units: mV, no filters.
Channel 8: 'Flexo-Extension', 51376 values, engineering units: deg, no filters.

0.0082	-0.0008	-0.0135	0.003	0.4
-0.0195	0.003	-0.0315	0.0045	0.6
-0.027	0.003	-0.027	0.0015	0.4
0.0045	0.0007	-0.0323	-0.003	0.6
0.045	-0.003	-0.054	-0.0075	0.4
0.0352	-0.0046	-0.0465	-0.0091	0.7
0.03	-0.0113	0.0157	-0.0135	0.6
0.0135	-0.012	0.0502	-0.0113	0.7
-0.0083	-0.0015	0.063	-0.0008	0.6
-0.0308	0.003	0.0855	0.0007	0.6
-0.045	0.003	0.0825	0.003	0.5
-0.0338	0.0007	0.0495	0.003	0.7
-0.0428	-0.0015	-0.0015	0.0082	0.6
-0.0361	0.0007	-0.0083	0.012	0.7
-0.0195	-0.0023	0.0082	0.0075	0.6
-0.0181	-0.0075	0.012	0.0045	0.5
-0.0248	-0.0053	0.0315	0.0037	0.5
-0.0203	-0.0023	0.039	0.0007	0.5
0.009	-0.0046	0.0285	-0.0008	0.8
0.036	-0.0046	0.0195	0.003	0.5
0.045	-0.0015	0.0075	-0.0015	0.6
0.0292	0.0045	-0.0053	0.0022	0.4
0.009	0.0112	-0.0113	0.0082	0.7
-0.0075	0.0127	-0.0263	0.009	0.5
-0.0008	0.0105	-0.0256	0.0045	0.7
0.033	0.0067	-0.012	-0.0015	0.6
0.0607	0.0045	-0.0023	0	0.7
0.0742	0.0037	0.0082	0	0.7
0.075	0.0045	0.0105	0.0082	0.7
0.0652	0.0052	0.0022	0.0082	0.6
0.0555	0.0052	0.0007	0.006	0.5
0.0472	0.009	0.054	0.0105	0.6
0.0262	0.0105	0.1425	0.0052	0.8
0.0097	0.003	0.135	-0.0023	0.7
0.0247	-0.0015	0.039	-0.0068	0.7
0.0427	-0.0038	-0.0195	-0.0083	0.6
0.033	-0.0053	-0.0623	-0.0083	0.6
0.033	-0.0038	-0.063	-0.0091	0.6
0.039	-0.0053	-0.0443	-0.0075	0.4
0.039	-0.0015	-0.0555	-0.0083	0.7
0.024	-0.0008	-0.054	-0.0105	0.6
0.0082	-0.003	-0.0788	-0.0135	0.7
0.0082	-0.0046	-0.0518	-0.0038	0.7
-0.0233	0.0022	0	0.009	0.7
-0.0443	0.009	0.0052	0.012	0.6
-0.0503	0.0105	-0.0038	0.0112	0.6
-0.0638	0.0082	-0.0158	0.0075	0.6
-0.0668	0.0045	-0.0083	0.0052	0.5
-0.0533	0.0022	0.012	0.0067	0.6
-0.0195	-0.0008	0.1005	0.0045	0.7
0.0052	-0.0015	0.1815	0.0045	0.5
0.0105	0	0.123	0.0052	0.7
0.0015	0.003	0.0367	0.0045	0.7
-0.012	0.0022	-0.0091	0.003	0.6
-0.0465	0.003	-0.0615	-0.0008	0.7
-0.0773	0.003	-0.0975	-0.0083	0.4
-0.0706	-0.0083	-0.135	-0.0195	0.7
-0.042	-0.0143	-0.1508	-0.0128	0.4
-0.0091	-0.0068	-0.1125	-0.0015	0.7
0.0022	-0.003	-0.0563	-0.0068	0.7
-0.0218	-0.0046	0.0052	-0.012	0.7
-0.057	-0.0046	0.0517	-0.0105	0.6
-0.0608	-0.0023	0.078	-0.0083	0.7
-0.0173	-0.003	0.078	-0.0068	0.8
0.0367	-0.0046	0.0697	-0.0038	0.7
0.0592	-0.0038	0.063	0.0015	0.6
0.0315	-0.0046	0.0577	0.0037	0.7
-0.0181	-0.0038	0.0465	0.009	0.6
-0.0353	0.0037	0.0315	0.0142	0.7
-0.0323	0.0082	0.0277	0.0157	0.7
-0.024	0.0067	0.0195	0.0127	0.7
-0.0083	0.0075	0.0165	0.009	0.7
0.009	0.0075	0.015	0.0082	0.7
0.018	0.0052	0.0112	0.0045	0.7
0.0097	0.0022	0.009	-0.0023	0.6
0.0037	-0.0015	0.0112	-0.0053	0.6
0.003	0	0.0105	-0.0053	0.6
0.0045	-0.0015	0.009	-0.0068	0.8
0.0157	-0.003	0.0187	-0.0105	0.5
0.0172	-0.0068	0.0262	-0.0188	0.7
0.0112	-0.0158	0.0442	-0.0218	0.7
0.0097	-0.0143	0.0787	-0.0181	0.6
0.009	-0.0083	0.075	-0.0068	0.4
0.0007	-0.0008	0.024	0.003	0.8
0.0022	0.003	0.0045	0.0052	0.5
0.0112	0.003	-0.0128	0.0075	0.7
0.0157	0.0067	-0.0361	0.009	0.4
0.0195	0.0112	-0.0383	0.0105	0.6
0.0195	0.0112	-0.0465	0.0067	0.5
0.0405	0.0075	-0.0691	0.0067	0.6
0.045	0.0052	-0.099	0.0067	0.7
0.027	0.0052	-0.0923	0.009	0.5
-0.0008	0.0037	-0.06	0.009	0.7
-0.0248	0.0007	-0.0225	0.003	0.7
-0.0308	-0.0015	0.0007	-0.0015	0.7
-0.0353	-0.0091	0.0052	-0.0113	0.6
-0.0181	-0.0128	0.024	-0.012	0.5
0.0075	-0.0105	0.0345	-0.0046	0.7
0.027	-0.0046	0.033	-0.003	0.6
0.0217	-0.0015	0.0187	-0.0015	0.5
0.0082	-0.0008	0.0195	0.0037	0.6
-0.0068	0.0045	0.0202	0.009	0.7
-0.0248	0.009	-0.021	0.0157	0.7
-0.0353	0.015	-0.0361	0.0165	0.5
-0.0278	0.0112	0.0127	0.0105	0.7
0.0045	0.0067	0.0525	0.0067	0.6
0.0555	0.0075	0.0817	0.003	0.6
0.1027	0.0052	0.108	0.0045	0.7
0.0855	0.0082	0.0975	0.0007	0.4
0.0315	0.0052	0.0802	-0.0038	0.7
-0.0135	0.003	0.0435	-0.003	0.7
-0.0368	0.0015	0.018	-0.006	0.7
-0.0315	-0.0068	-0.0015	-0.0083	0.8
-0.0278	-0.0091	-0.0293	-0.006	0.5
-0.0278	-0.0083	-0.027	0	0.7
-0.0128	-0.0068	-0.0285	-0.0015	0.4
0.0015	-0.006	-0.0443	-0.0046	0.8
0.0015	-0.003	-0.0578	-0.0038	0.4
0.0105	-0.0038	-0.048	-0.0068	0.6
0.0172	-0.006	-0.0256	-0.0091	0.6
0.0142	-0.0046	-0.0068	-0.0098	0.6
0.0045	-0.0068	0.0067	-0.006	0.8
-0.003	-0.0053	-0.0015	-0.0038	0.4
-0.0195	-0.0046	0.0082	-0.0046	0.6
-0.0285	-0.0053	0.0285	-0.003	0.6
-0.0165	-0.0053	0.0277	-0.0053	0.7
-0.0218	-0.0046	0.0112	0.0015	0.6
-0.0181	0.0015	0.012	0.0105	0.7
-0.0353	0.0037	0.0315	0.0127	0.7
-0.0675	0.0052	0.0382	0.0157	0.7
-0.0758	0.0082	0.03	0.0127	0.7
-0.0555	0.0045	0.042	0.0082	0.7
0.0007	0.0022	0.0765	0.0015	0.6
0.0555	-0.0008	0.0765	-0.0023	0.9
0.069	-0.0015	0.06	-0.0038	0.6
0.0352	0.0022	0.0465	-0.0015	0.7
0.0007	0.009	0.0052	0.0015	0.6
-0.0188	0.0157	0.0202	0.0007	0.6
-0.0203	0.0112	0.0367	-0.0068	0.6
0.0172	-0.0008	-0.015	-0.0195	0.4
0.0555	-0.0068	-0.0795	-0.0218	0.7
0.0435	-0.0053	-0.165	-0.0143	0.6
0.0015	0.0015	-0.1785	-0.006	0.7
-0.0308	0.0067	-0.1583	-0.0015	0.5
-0.0293	0.006	-0.1043	-0.0015	0.4
-0.0091	-0.0015	-0.0113	-0.0008	0.8
-0.006	-0.0015	-0.0008	0.0015	0.4
-0.0046	0.0015	-0.0105	0.0067	0.7
-0.0083	0	-0.0113	0.0105	0.6
-0.0008	-0.0008	-0.0203	0.0097	0.6
0.0165	-0.0015	-0.0195	0.0082	0.8
0.018	0.0015	-0.0098	0.009	0.5
0.018	0.0045	-0.0203	0.012	0.8
0.0292	0.006	-0.0263	0.012	0.5
0.03	0.0067	-0.0008	0.0082	0.8
0.0127	0.0052	0.0255	0.0037	0.5
-0.0105	0.0067	0.0457	0.0007	0.6
-0.0256	0.003	0.066	-0.0008	0.7
-0.0361	0.003	0.0765	-0.0015	0.7
-0.045	-0.0023	0.072	-0.0113	0.8
-0.027	-0.0083	0.0622	-0.0143	0.6
0.0127	-0.0046	0.0547	0	0.6
0.0525	0.0015	0.054	0.0075	0.7
0.0607	0.0045	0.054	0.0075	0.7
0.03	0.0037	0.0262	0.0052	0.7
0.0045	0.0007	0.0105	-0.0015	0.7
0.003	-0.0053	0.0555	-0.0015	0.6
-0.0015	-0.0053	0.0607	0.0045	0.8
-0.027	-0.0008	0.0052	0.003	0.5
-0.0413	-0.003	-0.0346	0.0015	0.7
-0.0593	-0.0038	-0.0608	0.003	0.4
-0.0743	0	-0.054	0.0015	0.7
-0.0698	0.0007	-0.0315	-0.003	0.6
-0.048	-0.0046	-0.0225	-0.0083	0.6
-0.0068	-0.0068	-0.0248	-0.0091	0.5
0.0217	-0.0098	-0.0248	-0.0143	0.6
0.0247	-0.0105	0.0052	-0.0083	0.6
0.0142	-0.0008	0.033	0.003	0.6
0.0397	0.0045	0.039	0.0082	0.7
0.051	0.0105	0.021	0.0157	0.7
0.0195	0.0127	-0.0053	0.0127	0.5
0.0082	0.0015	-0.0443	0.0067	0.7
-0.0225	-0.0053	-0.0788	0.003	0.4
-0.0428	-0.006	-0.033	-0.0023	0.7
-0.042	-0.0046	0.0367	0.003	0.5
-0.0465	0.0037	0.0675	0.0075	0.9
-0.0428	0.0082	0.0787	0.0082	0.6
-0.0218	0.0067	0.0607	0.003	0.7
0.0255	0.0015	0.0525	-0.0023	0.6
0.0495	-0.0046	0.0517	-0.0023	0.5
0.0817	-0.0023	0.0405	0.0052	0.8
0.1125	0.0082	0.0307	0.0127	0.7
0.108	0.012	0.003	0.0082	0.6
0.1005	0.0127	-0.0233	0.0082	0.7
0.0862	0.012	-0.0353	0.0045	0.5
0.0705	0.006	-0.027	-0.0008	0.5
0.027	0.0045	-0.003	0	0.7
0.009	0.0022	0.006	-0.0046	0.6
-0.0008	-0.0015	0.0585	-0.0046	0.8
-0.0098	-0.0053	0.174	-0.0038	0.5
-0.0181	-0.0038	0.1935	0	0.7
-0.0691	0	0.0765	-0.0015	0.6
-0.0938	-0.0053	-0.0195	-0.0068	0.6
-0.075	-0.0053	-0.0908	-0.0098	0.6
-0.0593	-0.003	-0.135	-0.012	0.5
-0.0495	-0.0008	-0.1313	-0.0083	0.6
-0.0128	0.0015	-0.108	-0.0053	0.6
0.012	-0.0038	-0.0623	-0.0091	0.6
0.0015	-0.0091	-0.0383	-0.0135	0.7
-0.0053	-0.0068	-0.0023	-0.012	0.4
-0.0293	-0.0015	0.0367	-0.0098	0.6
-0.0443	-0.0046	0.0352	-0.0098	0.6
-0.0225	-0.0068	0.0255	-0.0083	0.7
-0.0195	-0.0083	0.018	-0.0023	0.6
-0.0256	-0.0038	0.0202	0.0075	0.7
-0.0608	0.0052	0.0292	0.012	0.6
-0.1148	0.0045	-0.0233	0.012	0.5
-0.1253	0.0022	-0.0668	0.0082	0.6
-0.0975	-0.003	-0.0518	0.0015	0.5
-0.0068	-0.0083	-0.0465	-0.0015	0.7
0.0997	-0.0083	-0.0285	-0.0015	0.5
0.1327	-0.0053	-0.0218	0.0007	0.6
0.0787	0	-0.0113	0.003	0.8
0.0067	0.0045	0.0007	0.0067	0.5
-0.0293	0.0075	0.0067	0.006	0.7
-0.0503	0.0045	0.0232	-0.0008	0.6
-0.0638	-0.0046	0.0345	-0.0075	0.8
-0.0645	-0.0105	0.057	-0.0091	0.8
-0.0383	-0.0091	0.0592	-0.003	0.7
0.0112	-0.0023	0.0382	0.0045	0.7
0.036	0.0075	0.0097	0.0082	0.5
0.0202	0.012	0.012	0.0097	0.8
0.0217	0.0082	0.0472	0.0045	0.7
0.024	0.0052	0.0817	0.0007	0.5
0.0127	0.0052	0.1177	0.0015	0.8
0.018	0.0067	0.1185	0.0075	0.5
0.0292	0.009	0.0675	0.0157	0.7
0.0225	0.0135	0.0232	0.018	0.7
-0.0068	0.0127	-0.0091	0.0172	0.6
-0.003	0.0097	-0.042	0.0127	0.5
0.0105	0.0082	-0.0668	0.0097	0.7
0.0195	0.0067	-0.0698	0.0097	0.8
0.0472	0.009	-0.0165	0.0112	0.4
0.0547	0.0067	0.0435	0.009	0.8
0.033	0.0007	0.0427	-0.0008	0.7
-0.0181	-0.0023	0.0202	-0.0091	0.6
-0.0533	-0.006	-0.021	-0.0181	0.6
-0.0503	-0.0105	-0.0383	-0.0233	0.6
-0.0218	-0.0128	-0.0165	-0.024	0.7
0.054	-0.0181	-0.003	-0.0293	0.5
0.093	-0.0248	0.0022	-0.0315	0.7
0.0667	-0.0203	-0.0188	-0.0256	0.6
0.0352	-0.015	-0.024	-0.012	0.8
0.015	-0.0053	-0.0165	-0.0015	0.7
-0.0053	0.0015	-0.0128	0.0007	0.8
-0.033	0.0037	0.0067	0.0015	0.7
-0.0405	0.003	0.0202	-0.0015	0.7
-0.0413	0.003	0.0352	0.0007	0.6
-0.0413	0.0052	0.0382	0.006	0.8
-0.0293	0.0067	0.024	0.0105	0.5
-0.0046	0.0082	0.0367	0.0112	0.9
0.0007	0.0067	0.051	0.0067	0.6
-0.0263	0.0022	0.0262	0.0022	0.6
-0.0293	0.0015	-0.0128	0.0015	0.6
-0.0008	0.0007	-0.0256	0.0007	0.6
0.0255	0.0015	-0.0181	-0.0008	0.7
0.0172	0.0015	-0.0008	-0.0053	0.6
-0.0165	0.0007	0	-0.0053	0.8
-0.0181	-0.0015	-0.0105	-0.0023	0.5
0.0247	-0.003	-0.0143	0.0052	0.7
0.027	0.003	-0.0038	0.018	0.7
-0.0098	0.009	-0.0068	0.018	0.5
-0.0503	0.0105	-0.0225	0.0045	0.7
-0.0675	0.0045	-0.0188	-0.0038	0.4
-0.0458	0.0007	-0.0135	-0.0038	0.6
-0.0428	0.0007	0.003	-0.0023	0.7
-0.0308	0.003	0.018	0.0022	0.6
-0.0195	0.003	0.0187	0.0015	0.6
-0.0083	0.0015	0.0262	-0.003	0.6
0.0135	-0.0015	0.0097	-0.003	0.7
0.0232	-0.006	-0.0375	-0.006	0.6
0.03	-0.0068	-0.0428	-0.0091	0.7
0.0255	-0.0091	-0.0046	-0.0113	0.7
-0.0008	-0.0113	0.024	-0.015	0.6
-0.0165	-0.0105	0.0562	-0.0143	0.9
-0.0091	-0.0038	0.051	-0.0068	0.8
0.0067	-0.0008	0.0345	-0.0008	0.7
0.0345	-0.0038	0.0322	0.0015	0.7
0.0532	-0.006	0.045	-0.0008	0.7
0.0637	-0.0083	0.126	0.0007	0.8
0.0412	-0.0053	0.1815	0.0037	0.5
0.0217	0.0007	0.1012	0.0097	0.7
0.0442	0.0082	0.0007	0.018	0.7
0.0742	0.012	-0.0615	0.021	0.6
0.081	0.0112	-0.1118	0.0157	0.8
0.0667	0.009	-0.114	0.0105	0.6
0.0412	0.0045	-0.108	0.0082	0.8
0.003	0.0052	-0.0953	0.0067	0.5
-0.0158	0.003	-0.105	0.006	0.7
-0.0233	0.0015	-0.0878	0.0045	0.7
-0.0353	0.0052	-0.0046	0.0045	0.5
-0.0346	0.0067	0.075	0.0045	0.7
-0.0256	0.0082	0.108	0.006	0.7
-0.0195	0.0105	0.0645	0.0082	0.7
-0.0218	0.009	0.0435	0.0052	0.7
-0.0225	0.009	0.0345	0.003	0.7
-0.021	0.0105	0.0097	0.0015	0.7
-0.039	0.0082	0.0015	0	0.6
-0.0713	0.0045	0.0045	-0.0046	0.8
-0.0878	0	0.0405	-0.0075	0.7
-0.0833	-0.006	0.0712	-0.0113	0.7
-0.0405	-0.0105	0.048	-0.0143	0.7
0.0285	-0.0143	-0.003	-0.0158	0.5
0.1027	-0.0188	-0.0368	-0.0143	0.8
0.153	-0.0188	-0.0818	-0.0083	0.4
0.1365	-0.0083	-0.1021	0.003	0.7
0.0622	0.0052	-0.0848	0.0157	0.6
-0.033	0.0165	-0.063	0.015	0.7
-0.0713	0.018	-0.0428	0.0097	0.6
-0.0638	0.0127	-0.024	0.003	0.7
-0.0563	0.0045	0.0007	-0.0068	0.8
-0.042	-0.0046	0.0202	-0.0105	0.7
-0.0323	-0.0053	0.036	-0.006	0.6
-0.012	-0.0008	0.0367	0	0.8
0.0202	0.0037	0.048	0.003	0.5
0.033	0.0045	0.039	0.003	0.8
0.0195	0.0045	0.0037	0.003	0.5
0.0045	0.0045	-0.0128	0.0045	0.7
-0.0046	0.0022	-0.0158	0.0015	0.7
-0.0068	0.0007	-0.003	0.0015	0.7
0.0015	0.0007	0.0285	0.0045	0.9
0.009	0.0007	0.0907	0.003	0.7
0.0052	0	0.1177	0.003	0.6
-0.0158	-0.0008	0.0855	0	0.7
-0.0323	-0.0038	0.0465	-0.0046	0.6
-0.054	-0.0105	0.0127	-0.0091	0.7
-0.0578	-0.0165	-0.0173	-0.0128	0.7
-0.0563	-0.0173	-0.0458	-0.0158	0.8
-0.063	-0.0181	-0.0713	-0.0181	0.6
-0.0346	-0.0165	-0.0706	-0.0105	0.7
0.0255	-0.0105	-0.042	-0.0015	0.8
0.0862	-0.0015	0.0247	0.0052	0.6
0.0435	0.0052	0.0975	0.006	0.9
-0.0263	0.006	0.0877	0.0015	0.7
-0.0585	0.0075	0.0307	0.0037	0.9
-0.0818	0.0052	0.0015	0.003	0.5
-0.0225	0.0022	-0.024	0.003	0.6
0.0465	0.003	-0.0315	0.0015	0.7
0.1162	0	-0.0285	-0.0008	0.4
0.168	-0.0008	-0.0405	0	0.6
0.1447	-0.0015	-0.0578	-0.0015	0.6
0.0742	-0.0008	-0.06	0.0015	0.8
-0.0046	0.003	-0.0315	0.0052	0.7
-0.033	0.0045	-0.0083	0.0052	0.5
-0.0488	0.006	0.0082	0.0022	0.9
-0.0503	0.0075	0.0142	0.0015	0.7
-0.0428	0.0067	0.015	0.0015	0.9
-0.0293	0.0037	0.0217	0.0015	0.7
-0.012	0.0052	0.0195	0.0052	0.7
-0.0188	0.0052	0.0127	0.0052	0.7
-0.033	0.0045	0.006	0.006	0.6
-0.0443	0.003	0.009	0.0082	0.9
-0.0473	0	0.012	0.0105	0.7
-0.0428	0.0015	0.018	0.0105	0.8
-0.0278	0.0015	0.0172	0.0067	0.7
-0.0203	-0.0008	0.0142	0.006	0.8
-0.0248	-0.0023	0.0202	0.0067	0.7
-0.0308	-0.0008	0.0232	0.0082	0.8
-0.0068	0.003	0.0217	0.003	0.8
0.0217	-0.0008	-0.0053	-0.0008	0.7
0.0105	-0.0015	-0.0165	0.0007	0.7
-0.012	-0.0038	0.0157	0.0015	0.8
-0.0323	-0.0038	0.0352	-0.0008	0.7
-0.0293	-0.0038	0.0495	-0.0068	0.9
-0.0053	-0.0105	0.0562	-0.0165	0.6
0.0345	-0.0165	0.0405	-0.0218	0.8
0.0705	-0.0105	0.027	-0.0105	0.7
0.0825	0.0007	0.003	-0.0053	0.7
0.0817	-0.0015	-0.0098	-0.0091	0.7
0.0292	-0.0038	-0.0143	-0.0091	0.7
-0.0105	-0.0015	0.018	-0.0098	0.9
-0.0263	-0.0008	0.093	-0.003	0.6
-0.042	0.0015	0.0787	-0.0008	0.7
-0.0353	-0.0008	0.0015	-0.0038	0.7
-0.0353	-0.0015	-0.0361	-0.0083	0.7
-0.0353	-0.0008	-0.0795	-0.0083	0.8
-0.0511	0.003	-0.093	-0.0046	0.7
-0.0548	0.0045	-0.0803	-0.0046	0.7
-0.0428	0.003	-0.0511	-0.0008	0.8
-0.045	0.0015	0.0052	0.0007	0.7
-0.033	-0.0015	0.018	-0.0008	0.8
0.003	-0.0008	0.018	0.0007	0.7
0.042	-0.0008	0.0262	0.003	0.7
0.069	-0.0015	0.0262	0.0052	0.7
0.0675	-0.0023	0.0165	0.0022	0.8
0.0075	-0.0038	0.0052	0.0007	0.9
-0.0233	-0.0008	-0.0091	0.0045	0.7
-0.0046	0.0045	-0.0158	0.012	0.8
-0.0083	0.012	-0.0053	0.018	0.8
-0.012	0.015	0.0112	0.0157	0.6
-0.0181	0.012	0.0247	0.009	0.8
-0.0105	0.0082	0.0367	0.0067	0.7
0.0015	0.0067	0.0562	0.0067	0.7
0.006	0.0045	0.0615	0.006	0.7
0.0247	0.003	0.0532	0.0045	0.8
0.039	0.006	0.0292	0.0045	0.9
0.0495	0.0052	0.0105	0.0015	0.9
0.0405	0.0007	0.0345	-0.0023	0.8
0.0172	-0.0008	0.0922	-0.0038	0.7
-0.0158	-0.0053	0.099	-0.003	0.9
-0.0353	-0.0053	0.0232	-0.0046	0.5
-0.027	-0.006	-0.042	-0.0053	0.7
-0.0091	-0.0053	-0.105	-0.0068	0.7
0.0322	-0.0046	-0.12	-0.0083	0.9
0.1117	-0.0075	-0.093	-0.0068	0.7
0.1755	-0.0053	-0.0833	-0.0015	0.9
0.1552	0	-0.0698	0.0045	0.7
0.1012	0.0052	-0.06	0.0067	0.7
0.0682	0.006	-0.0308	0.0037	0.7
0.057	0.0045	0.0015	0.003	0.9
0.0465	0.0015	0.0232	-0.0015	0.7
0.03	-0.0046	0.0277	-0.0053	0.8
0.0277	-0.0075	0.0292	-0.0105	0.7
0.0195	-0.012	0.0525	-0.0075	0.7
0.0007	-0.0105	0.0937	-0.003	0.9
0.0052	-0.006	0.1117	-0.0015	0.8
0.0127	-0.0015	0.066	0.0022	0.9
0.0105	-0.0023	0.0427	-0.0046	0.8
0.0127	-0.0053	0.0225	-0.0046	0.9
0.006	-0.0015	-0.0098	-0.0008	0.9
-0.0015	0.0037	-0.0105	0.0037	0.6
-0.0263	0.009	-0.0158	0.009	0.6
-0.0503	0.0105	-0.0165	0.0075	0.8
-0.1006	0.0045	-0.0218	0.0045	0.7
-0.1328	0.0015	-0.0165	-0.0008	0.7
-0.1028	-0.0008	-0.012	-0.0015	0.8
-0.0878	0.0015	-0.003	0.0037	0.9
-0.0563	0.0052	0.024	0.0097	0.7
-0.0346	0.0067	0.0382	0.0157	0.9
-0.0533	0.0105	0.0712	0.0142	0.7
-0.0683	0.009	0.0787	0.012	0.9
-0.0653	0.0052	0.024	0.0045	0.7
-0.0675	0.0015	-0.0263	-0.0068	0.8
-0.078	-0.003	-0.048	-0.0143	0.7
-0.0683	-0.0046	-0.0361	-0.0173	0.7
-0.0608	-0.0083	-0.0203	-0.0158	0.7
-0.0465	-0.0098	-0.0075	-0.0083	0.8
-0.0353	-0.0068	0.0067	-0.0015	0.9
-0.0323	-0.0023	-0.0023	0.003	0.7
-0.0338	0.0045	-0.0015	0.0045	0.6
-0.039	0.003	0.0127	0.0015	0.8
-0.0375	0	0.0367	-0.0046	0.8
-0.024	-0.0053	0.0487	-0.012	0.8
-0.0165	-0.0083	0.0382	-0.0165	0.7
-0.0143	-0.0083	0.0292	-0.012	0.7
-0.0165	-0.0113	-0.003	-0.0083	0.7
-0.021	-0.0091	-0.0353	-0.003	0.5
-0.0195	-0.0008	-0.0368	0.006	0.8
-0.0375	0.0045	-0.0233	0.0105	0.5
-0.0405	0.009	-0.0053	0.0142	0.8
-0.0383	0.0097	0.0082	0.0105	0.8
-0.0293	0.0037	0.027	0.0052	0.7
-0.0195	0.0045	0.0855	0.003	0.8
-0.006	0.006	0.1402	0.0022	0.7
0.0345	0.0052	0.0412	0.003	0.7
0.0825	0.0067	-0.0825	0	0.9
0.1297	0.0052	-0.0773	-0.0023	0.7
0.171	0.0022	-0.0668	-0.006	0.8
0.1665	0.0007	-0.0698	-0.0075	0.5
0.093	-0.003	-0.0458	-0.0098	0.7
0.0367	-0.0068	-0.021	-0.0075	0.7
0.0172	0	-0.024	0.0007	0.7
-0.006	0.0067	-0.03	0.0045	0.7
-0.0383	0.0082	-0.0053	0.0082	0.7
-0.0503	0.012	0.012	0.0127	0.8
-0.0128	0.0105	0.0105	0.0082	0.7
0.0517	0.0037	0.0112	0.003	0.8
0.105	0.003	0.006	0	0.7
0.1275	-0.0015	0.0015	-0.003	0.7
0.087	-0.0023	0.0165	0	0.8
0.0067	0.0007	0.0255	0.0007	0.9
-0.0278	0.0015	0.0292	0.0015	0.8
-0.0398	0.0045	0.0375	0.003	0.7
-0.0533	0.003	0.042	-0.0023	0.7
-0.0623	-0.0015	0.021	-0.0053	0.9
-0.0465	-0.003	0.0142	-0.0075	0.8
-0.0285	-0.006	0.0255	-0.0083	0.9
0.0052	-0.0105	0.0307	-0.0083	0.6
0.0577	-0.0143	0.0435	-0.0083	0.7
0.0735	-0.0083	0.0427	0.0037	0.7
0.057	0.0067	0.0255	0.018	0.7
0.027	0.0195	0.0165	0.0262	0.9
-0.0143	0.0217	0.003	0.027	0.7
-0.0533	0.0187	-0.012	0.0202	0.7
-0.0638	0.012	0.0165	0.0105	0.8
-0.0788	0.0067	0.0615	0.0045	0.7
-0.0758	0.003	0.0157	0.003	0.7
-0.0555	-0.0015	-0.0413	0.0015	0.6
-0.033	-0.0015	-0.0721	0.003	0.9
-0.0083	-0.0015	-0.1058	0.0045	0.7
-0.0038	-0.0015	-0.1065	0.003	0.7
-0.012	-0.0008	-0.0885	0	0.6
-0.0368	-0.0015	-0.0495	-0.0023	0.7
-0.045	-0.003	-0.0091	-0.006	0.8
-0.024	-0.0053	0.03	-0.0083	0.7
0.0232	-0.0068	0.06	-0.0075	0.9
0.0592	-0.0068	0.0765	-0.0053	0.8
0.054	-0.0023	0.0795	-0.0008	0.9
0.0135	0.0015	0.0772	-0.003	0.8
-0.0413	0.0007	0.09	-0.0105	0.7
-0.0675	-0.0008	0.0765	-0.0173	0.8
-0.0428	-0.006	0.0382	-0.0218	0.8
0.024	-0.0098	-0.0128	-0.0165	0.6
0.1005	-0.012	-0.0353	-0.0105	0.7
0.111	-0.0083	-0.0428	0.0015	0.7
0.03	-0.0008	-0.0353	0.003	0.9
-0.0323	-0.0015	0.0105	-0.003	0.7
-0.0443	-0.0091	0.0592	-0.0038	0.9
-0.0361	-0.012	0.0547	-0.0053	0.8
-0.0075	-0.0135	0.0142	-0.0083	0.8
0.0195	-0.0143	-0.003	-0.0128	0.7
0.0232	-0.0143	-0.0338	-0.0083	0.7
0.0195	-0.006	-0.0495	0	0.9
0.0075	0.0037	-0.0465	0.0067	0.7
-0.0233	0.0067	-0.0383	0.009	0.8
-0.0218	0.009	-0.0105	0.009	0.7
-0.0188	0.0112	-0.003	0.0075	0.8
-0.0233	0.0112	0.0067	0.003	0.8
-0.0143	0.0082	0.0105	0.0052	0.8
-0.024	0.0052	0.0142	0.006	0.8
-0.0346	0.0067	0.0097	0.009	0.8
-0.0165	0.0037	0.0082	0.0067	0.9
-0.0075	0.0015	0.039	0.0052	0.7
-0.0203	0.0022	0.051	0.0075	0.8
-0.0023	-0.0008	0.0007	0.003	0.9
0.0165	-0.0008	-0.045	0.0045	0.6
0.018	0.003	-0.063	-0.0015	0.9
0.0135	0.0007	-0.0878	-0.0098	0.7
0.0322	-0.0008	-0.0735	-0.0098	0.7
0.0615	-0.0023	-0.027	-0.0113	0.7
0.0697	-0.0023	0.0502	-0.0068	0.6
0.0862	-0.0008	0.1462	0.0022	0.9
0.0607	0.0015	0.1567	0.0022	0.7
0.0135	-0.0008	0.048	-0.003	0.7
-0.0046	-0.003	-0.0593	-0.0075	0.7
-0.015	-0.0053	-0.093	-0.0105	0.8
-0.0015	-0.0105	-0.0758	-0.0083	0.9
0.0142	-0.0113	-0.0563	-0.0015	0.7
0.0195	-0.0053	-0.0443	0.0015	0.7
-0.0015	-0.003	-0.0533	-0.0075	0.7
-0.0181	-0.0015	-0.0825	-0.0181	0.5
-0.0128	-0.0008	-0.0585	-0.0218	0.8
-0.0083	-0.0046	-0.0068	-0.027	0.7
-0.0098	-0.0015	0.0202	-0.0188	0.7
-0.0225	0.0075	0.042	-0.006	0.8
-0.0135	0.0097	0.0637	0.027	0.9
-0.0233	0.012	0.069	0.0547	0.7
-0.024	0.0105	0.0532	0.0097	0.7
-0.0105	0.0082	0.0495	-0.0008	0.7
-0.0165	0.0067	0.054	0.0277	0.7
-0.0046	0.0067	0.057	0.0555	0.8
-0.0105	0.0067	0.0487	0.0615	0.8
-0.0308	0.0082	0.039	0.009	0.8
-0.0473	0.0105	0.0195	0.0165	0.9
-0.063	0.015	-0.0015	0.018	0.4
-0.0608	0.018	-0.0128	0.0082	0.7
-0.0691	0.012	-0.0188	0.0157	0.7
-0.0578	0.0082	-0.0091	0.0075	0.7
-0.0173	0.003	-0.0046	0.0157	0.7
0.0172	-0.0008	0.0007	0.006	0.7
0.0412	0.0007	-0.0053	0.0165	0.8
0.0382	0.0022	-0.0015	0.0142	0.7
0.0337	0.0007	0.0007	-0.0083	0.9
0.0382	-0.0046	-0.0181	-0.0256	0.6
0.0292	-0.006	-0.012	-0.0053	0.6
0.003	-0.003	0.0082	0.0277	0.8
-0.0165	0.003	0.0225	0.0457	0.8
-0.0053	0.0045	0.0292	0.0472	0.6
0.0157	0.0015	0.0315	0.024	0.7
0.0292	-0.0053	0.033	0.0315	0.7
0.0307	-0.012	0.039	-0.039	0.8
0.0142	-0.0165	0.0405	-0.1478	0.7
0.0007	-0.0188	0.0367	-0.1373	0.7
-0.0015	-0.0068	0.033	-0.0623	0.6
-0.0046	0.0022	0.0217	-0.0361	0.9
-0.0046	0.0015	0.0165	0.0015	0.7
-0.0046	0.003	0.009	0.0397	0.8
-0.0075	0.0067	0.0007	0.045	0.7
-0.0091	0.0052	0.0052	0.0157	0.8
-0.024	-0.0015	0.0255	-0.0315	0.8
-0.0248	-0.0068	0.0405	-0.0346	0.7
-0.0105	-0.0091	0.0225	-0.081	0.7
0.0037	-0.0068	0.003	-0.048	0.7
0.0217	-0.0038	-0.0075	0.0142	0.6
0.0345	-0.003	-0.0248	0.003	0.7
0.0367	-0.003	-0.0503	0.018	0.6
0.0345	-0.0053	-0.0683	0.009	0.7
0.0225	-0.003	-0.0548	0.0165	0.7
0.0037	-0.0008	-0.0308	0.0195	0.6
-0.003	-0.0008	-0.0053	0.0135	0.7
0	-0.0038	0.0247	0.0127	0.5
-0.0075	-0.006	0.0405	0.0045	0.9
-0.0203	-0.0068	0.0502	0	0.6
-0.012	-0.0068	0.0495	-0.0053	0.7
0.0307	-0.003	0.0502	-0.0015	0.5
0.0952	-0.0046	0.0525	-0.0015	0.6
0.135	-0.0068	0.0435	0.003	0.6
0.0952	-0.0105	0.0292	0.0052	0.7
0.018	-0.0075	0.0045	0.024	0.7
-0.0346	0	-0.003	0.033	0.7
-0.0428	0.0007	-0.0023	0.0157	0.5
-0.0315	-0.003	-0.0091	0.0082	0.6
-0.0278	-0.006	-0.0053	0.0097	0.5
-0.0218	-0.0038	0.012	-0.0046	0.8
-0.0203	-0.0023	0.027	-0.0443	0.4
-0.0233	0.006	0.018	-0.0203	0.7
-0.0256	0.0082	0.0052	0.012	0.5
-0.0218	0.0007	-0.003	-0.012	0.6
-0.0248	0.0007	-0.0053	-0.0046	0.6
-0.0293	0.0052	-0.0015	-0.0165	0.5
-0.0278	0.0105	-0.003	-0.003	0.6
-0.0436	0.012	-0.0075	0.0255	0.5
-0.0495	0.0112	-0.0135	0.003	0.5
-0.0405	0.009	-0.0105	0.0165	0.6
-0.0218	0.003	0.0045	0.0277	0.7
0.018	-0.0046	0.0352	0.012	0.7
0.0577	-0.0075	0.0817	-0.015	0.5
0.0772	0.003	0.09	0.0007	0.6
0.0495	0.012	0.042	0.0142	0.5
0.0217	0.0045	0.0097	0.0082	0.5
-0.0105	-0.0015	-0.0083	0.0217	0.7
-0.033	0.0007	-0.0203	0.0067	0.4
-0.0465	0.0045	-0.027	0.0075	0.7
-0.0713	0.0067	-0.0668	-0.0023	0.5
-0.0765	0.0045	-0.0856	-0.0038	0.7
-0.1043	0.0022	-0.075	-0.0008	0.5
-0.1013	0.0015	-0.0683	0.0007	0.6
-0.0803	0.0045	-0.0645	0.0127	0.7
-0.0436	0.009	-0.0436	0.015	0.5
0.027	0.009	-0.021	0.0135	0.6
0.075	0.006	-0.015	0.0037	0.6
0.1125	0.0067	0.0097	0.006	0.6
0.096	0.0105	0.033	0.0082	0.7
0.0517	0.0075	0.0487	0.0052	0.4
0.0292	-0.0008	0.042	0.0045	0.6
0.0007	0.0007	0.0217	0.0045	0.4
-0.0308	-0.0015	0.0045	0.0007	0.7
-0.0525	-0.0083	-0.0008	-0.0046	0.6
-0.0706	-0.0068	0.0435	-0.0015	0.7
-0.0893	-0.0038	0.0472	0	0.6
-0.0915	-0.0015	0.0052	-0.0075	0.5
-0.0706	-0.0083	-0.0128	-0.0225	0.5
-0.042	-0.0158	-0.0338	-0.024	0.5
-0.0181	-0.0158	-0.0315	-0.021	0.5
0.0187	-0.0128	-0.0165	-0.0128	0.5
0.0615	-0.0068	-0.0203	-0.0068	0.5
0.057	-0.003	-0.0368	-0.0068	0.6
0.0045	0.0015	-0.042	-0.0008	0.7
-0.0128	0.0037	-0.024	0.0015	0.6
-0.0195	0.0015	-0.0091	0.003	0.5
-0.0233	0.003	0.003	0.003	0.6
-0.012	0.0007	0.0127	0.003	0.6
-0.012	0.0015	0.0675	0.0037	0.5
0.0007	0.0022	0.1177	0.003	0.5
0.0075	0.0037	0.0727	0.003	0.5
0.021	0.0022	0.0315	-0.0008	0.7
0.0202	0.0007	0.0097	-0.003	0.5
0.0202	0.0007	-0.0105	-0.0053	0.6
0.0187	0.0022	-0.0143	-0.0075	0.6
-0.0046	0.0045	-0.0361	-0.0105	0.5
-0.0008	0.0015	-0.042	-0.0158	0.6
-0.0098	-0.0008	0.0142	-0.0135	0.6
-0.0203	0.0007	0.1417	-0.0128	0.5
-0.0158	0.0007	0.186	-0.0068	0.5
-0.0165	0.0015	0.0562	0.006	0.4
0.0015	0.003	-0.0653	0.0232	0.7
0.0195	0.0045	-0.096	0.0307	0.4
0.0315	0.0037	-0.0908	0.027	0.5
0.0637	0.0015	-0.0653	0.024	0.7
0.0645	0.0052	-0.0518	0.0037	0.4
0.0502	0.0082	-0.0623	-0.0361	0.7
0.0517	0.0082	-0.0721	-0.0458	0.4
0.03	0.0082	-0.0533	-0.0053	0.5
0.0195	0.0082	-0.0008	0.0052	0.6
0.0165	0.0097	0.0352	0.0067	0.6
0.0105	0.0067	0.048	0.0097	0.7
0.0157	-0.003	0.0525	-0.006	0.8
0.0127	-0.0068	0.0465	-0.0068	0.6
0.0045	-0.0083	0.0405	-0.0308	0.5
-0.0128	-0.0091	0.0367	-0.0428	0.6
-0.0353	-0.0083	0.033	-0.048	0.7
-0.0293	-0.0098	0.0285	-0.0458	0.5
-0.0083	-0.0083	0.027	-0.0233	0.7
-0.0015	-0.0053	0.0285	0.0307	0.6
0.009	-0.006	0.0262	0.0855	0.6
0.0067	-0.0046	0.0277	0.0202	0.6
0.0045	-0.0038	0.027	-0.0128	0.6
0.0075	-0.0053	0.027	0.0097	0.7
0.0052	-0.0046	0.0262	-0.0083	0.5
0.0075	-0.0023	0.024	0.0082	0.8
0.0045	0.0007	0.0217	0.033	0.5
0.006	-0.0008	0.0195	0.0405	0.7
0.0082	-0.0015	0.0135	-0.021	0.5
0.0105	0	0.0082	-0.0225	0.7
0.0105	0.0015	0.0067	0.0352	0.6
0.0082	0.0067	0.0075	0.0592	0.7
0.0097	0.009	0.009	0.042	0.7
0.012	0.009	0.0067	0.003	0.7
0.0157	0.0105	0.0045	0.033	0.7
0.015	0.0075	0.0007	0.045	0.6
0.0165	0.0052	-0.0023	0.0637	0.6
0.0157	0.0037	0.0007	0.0045	0.7
0.0142	0.0015	0.0015	-0.039	0.6
0.0142	0.0007	-0.0008	-0.0293	0.5
0.0165	0.003	-0.003	-0.027	0.6
0.0165	0.0015	-0.0015	-0.0091	0.4
0.0127	-0.003	0.0007	-0.027	0.7
0.012	-0.003	0.0007	-0.0113	0.6
-0.0008	-0.0046	0.0045	-0.0105	0.7
-0.0323	-0.0053	0.0127	0.0292	0.7
-0.057	0.0015	0.009	0.0547	0.5
-0.0615	0.0135	-0.0143	0.0675	0.5
-0.0675	0.0195	-0.0203	0.0705	0.5
-0.0683	0.012	-0.0091	-0.024	0.5
-0.0495	-0.0023	0.003	-0.1523	0.7
0.0075	-0.0143	0.0187	-0.177	0.6
0.093	-0.012	0.0127	0.0172	0.8
0.1515	-0.0083	-0.0068	0.0615	0.4
0.162	-0.0008	-0.0091	0.0015	0.7
0.1455	0.0105	0.0052	0.033	0.6
0.1102	0.012	0.0255	0.0045	0.8
0.039	0.0142	0.0292	0.012	0.6
-0.0203	0.0097	0.027	0.006	0.7
-0.0473	0.0015	0.027	-0.003	0.7
-0.054	-0.0015	0.0172	-0.0015	0.7
-0.0436	-0.0083	0.0142	-0.042	0.7
-0.0465	-0.0083	0.0052	-0.0788	0.7
-0.0413	-0.0091	-0.0023	-0.0495	0.6
-0.0405	-0.0068	-0.0068	-0.0068	0.6
-0.0398	-0.0075	-0.0053	-0.0053	0.6
-0.0353	-0.0128	-0.0008	0.0382	0.6
-0.0353	-0.0143	0.0022	-0.0068	0.7
-0.0383	-0.0143	0.0052	-0.0346	0.5
-0.0443	-0.0105	0.006	0.0127	0.8
-0.0428	-0.0075	0.0127	0.0082	0.6
-0.0465	-0.003	0.018	0.024	0.8
-0.0443	0.0037	0.018	0.027	0.7
-0.042	0.0037	0.0202	0.0217	0.9
-0.0413	0.0015	0.0217	0.0285	0.8
-0.0413	-0.0008	0.021	0.0022	0.9
-0.0405	-0.0053	0.0202	-0.0225	0.8
-0.0405	-0.0008	0.0202	0.0022	0.7
-0.045	0.0075	0.0187	0.0315	0.8
-0.048	0.0105	0.0157	0.0195	0.7
-0.0443	0.0105	0.0127	0.033	0.7
-0.0398	0.0112	0.0082	0.0397	0.9
-0.0353	0.0082	0.006	0.0022	0.5
-0.0293	0	0.0045	-0.045	0.9
-0.021	0.003	0.003	-0.0143	0.7
-0.0046	0.0067	0.0022	0.0075	0.8
0.0202	0.0045	-0.0023	-0.0068	0.7
0.033	0.009	-0.003	0.018	0.7
0.0277	0.0075	-0.0053	0.0105	0.9
0.0127	0.0037	-0.0068	0.0022	0.7
0.0015	0.0015	-0.0053	-0.0158	0.8
0.0015	-0.0038	-0.0075	-0.0195	0.6
-0.003	-0.0098	-0.0083	-0.0278	0.9
-0.0098	-0.012	-0.0075	-0.03	0.7
-0.0008	-0.0105	-0.0075	-0.0225	0.9
0.0045	-0.0083	-0.0075	-0.0293	0.8
-0.0008	-0.0038	-0.0083	-0.0083	0.8
-0.0105	-0.0046	-0.0083	-0.0008	0.7
-0.0068	-0.0053	-0.0083	0.0052	0.9
0.006	-0.0053	-0.0083	-0.012	0.7
0.0165	-0.0015	-0.0023	-0.0105	0.9
0.0255	0.0022	0.0022	0.0022	0.9
0.0105	0.0022	0.009	0.009	0.9
0.0022	0.0067	0.0045	0.0127	0.9
0.0142	0.0045	-0.0068	-0.0008	0.9
0.012	0.0022	-0.0091	0.0037	0.9
-0.0068	0.0037	-0.0128	-0.0008	0.9
-0.0165	0.0007	-0.0135	0.0052	0.9
-0.0091	0.0022	-0.0105	0.0097	0.9
-0.0128	0.0045	-0.0158	0.0142	0.9
-0.0038	0.0075	-0.0293	0.0255	0.8
0.0135	0.012	-0.042	0.0292	0.9
0.018	0.0112	-0.045	0.0315	0.9
0.0127	0.009	-0.0465	0.0157	0.9
0.0082	0.0052	-0.0495	-0.0143	0.9
0.0097	0.0015	-0.0428	-0.0263	0.9
0.0112	0.0037	-0.0346	-0.0068	0.9
0.0165	0.0052	-0.0278	0.009	1
0.021	0.006	-0.0195	0.0157	0.8
0.0232	0.006	-0.0113	0.0135	1.1
0.024	0.0037	-0.0083	-0.0105	0.9
0.0232	0.0015	-0.003	-0.0135	1
0.0217	-0.0008	0.0007	0.024	1
0.0195	-0.003	0.0045	0.0292	0.9
0.0187	-0.0083	0.0127	-0.012	1
0.0165	-0.006	0.0195	0.0187	1
0.0165	0	0.024	0.0412	1.1
0.012	0.0015	0.0285	0.0457	1.1
0.009	0.0045	0.0285	0.135	1
0.0067	0.0015	0.0285	0.0667	1.2
0.0045	-0.0143	0.033	-0.1613	0.9
0.0022	-0.024	0.033	-0.2295	1.1
0	-0.0128	0.0337	-0.0878	1.2
-0.0038	-0.0053	0.033	-0.0555	1
-0.0038	0	0.0292	-0.0608	1.2
-0.0038	0.0082	0.0307	0.039	1.1
-0.0068	0.009	0.0285	0.0315	1.4
-0.0068	0.0075	0.024	0.0427	1.1
-0.0083	0.0007	0.0202	0.0142	1.3
-0.012	-0.0015	0.018	-0.0278	1.1
0.0232	-0.0015	0.012	-0.0008	1.2
0.1155	-0.0015	0.0082	-0.0128	1.3
0.1417	0.0022	0.0067	-0.0015	1.2
0.141	0.0015	0.0052	0.0007	1.3
0.186	0	0.0052	0.0015	1.3
0.192	0	0.006	0.0082	1.2
0.1702	0.0007	0.0045	0.0157	1.4
0.1117	0.0007	0	0.027	1.3
0.069	-0.0008	-0.0008	0.0157	1.3
0.039	-0.0008	-0.0008	0.0082	1.3
-0.0143	-0.0015	-0.0008	0.009	1.4
-0.0473	-0.0008	0.0007	0.009	1.4
-0.0623	-0.0008	0.0015	0.0052	1.4
-0.0706	0.0007	0.003	0.0052	1.6
-0.0938	0.0007	0.0015	0.0067	1.3
-0.1035	0.0015	0.0007	0.0067	1.6
-0.1238	0.0045	0.0037	0.006	1.3
-0.1358	0.0052	0.0052	0.0022	1.5
-0.1223	0.0045	0.0045	0.0007	1.5
-0.132	0.003	0.003	0.003	1.7
-0.1268	0.003	0.003	0.0142	1.4
-0.1223	0.0045	0.003	0.018	1.7
-0.1148	0.0022	0.0045	0.012	1.6
-0.105	-0.0015	0.0067	0.0195	1.8
-0.0998	-0.0053	0.0052	0.0352	1.6
-0.0803	-0.0091	0.0067	0.006	1.8
-0.078	-0.0091	0.0082	-0.0495	1.6
-0.0765	-0.0038	0.0082	-0.0315	1.9
-0.0743	0.0007	0.009	0.0142	1.8
-0.0638	0.0022	0.0082	0.018	1.8
-0.0428	0.0067	0.009	0.0285	1.9
-0.0458	0.006	0.0067	0.0382	1.9
-0.0368	-0.0015	0.0045	0.0337	2.1
-0.024	-0.006	-0.0068	-0.0263	1.9
-0.0218	-0.0046	-0.0653	-0.0555	2
-0.0135	0.0015	-0.225	0.018	2.1
-0.0083	0.0022	-0.4118	0.0195	2.1
-0.003	-0.003	-0.4335	-0.0008	2.1
0.003	-0.006	-0.2828	-0.0008	2.1
0.0022	-0.0091	-0.105	-0.039	2.2
-0.0008	-0.0158	0.027	-0.1035	2.3
-0.0023	-0.0181	0.111	-0.0938	2.3
-0.0008	-0.0075	0.1665	0.024	2.4
-0.0008	0.0007	0.1995	0.0217	2.1
-0.0068	0.0007	0.2092	-0.0075	2.5
-0.0105	0.0052	0.198	-0.006	2.3
-0.0143	0.003	0.1822	-0.0293	2.6
-0.012	0.0007	0.1717	-0.0091	2.6
0.0022	0.0015	0.1687	0.0127	2.6
0.009	0.0052	0.1635	0.0532	2.6
0.0045	0.0082	0.1515	0.0562	2.7
0.0157	0.006	0.135	0.0405	2.8
0.0352	0.0067	0.1177	0.003	2.8
0.0457	0.0052	0.1027	-0.0233	2.7
0.0525	0.0037	0.0915	0.0052	3.1
0.0652	0.0007	0.081	-0.0143	2.7
0.0765	-0.0008	0.0682	-0.0195	3.1
0.0765	0	0.0555	-0.0015	3
0.072	0.0007	0.0412	0.0195	3.1
0.0727	0.0045	0.0292	0.009	3.2
0.0712	0.003	0.024	-0.0158	3.2
0.0592	-0.003	0.0217	-0.0083	3.3
0.054	-0.003	0.0217	0.0022	3.4
0.0652	0.003	0.0232	0.0367	3.3
0.0667	0.0105	0.0232	0.0637	3.4
0.063	0.0112	0.0172	0.0495	3.4
0.0577	0.0067	0.0127	0.0255	3.6
0.0517	0.0052	0.0105	0.0255	3.6
0.042	0.0022	0.0052	0.0255	3.6
0.0307	-0.0046	0.0015	0.0277	3.7
0.0165	-0.006	0	0.0075	3.6
0.0075	-0.0038	0	-0.0383	4
0.0165	-0.0015	0.0015	-0.0053	3.8
0.0495	-0.0015	0.0007	-0.0015	4
0.0705	-0.0038	-0.0008	-0.0383	3.9
0.0555	-0.0046	-0.0015	-0.0638	4.1
0.0592	-0.0038	-0.003	-0.0968	4
0.051	0.0015	-0.0105	-0.0346	4
0.027	0.0082	-0.012	0.045	4.3
0.003	0.0075	-0.0105	0.0945	4.1
-0.0158	0.0052	-0.0105	0.0855	4.5
-0.0203	-0.003	-0.0105	0.039	4.5
-0.042	-0.012	-0.0135	0.0015	4.5
-0.0383	-0.0195	-0.021	-0.1508	4.4
-0.0188	-0.0188	-0.0218	-0.1575	4.6
-0.0083	-0.0083	-0.024	-0.0263	4.7
-0.0083	-0.003	-0.027	-0.0315	4.9
-0.0165	0.0015	-0.024	-0.0083	4.8
-0.0256	0.0067	-0.0165	0.033	4.9
-0.0405	0.009	-0.006	0.0442	4.9
-0.0525	0.006	0.0007	0.0172	5
-0.066	0.003	0.0037	-0.015	5.1
-0.0735	0.0052	0.0007	0.0037	5.3
-0.0488	0.009	-0.0015	-0.0023	5.2
0.0352	0.009	0.0037	0.0172	5.3
0.0637	0.009	0.009	0.024	5.5
0.0397	0.006	0.006	0.0375	5.4
0.0802	0.0015	-0.0023	0.0127	5.4
0.09	0.0015	-0.0053	-0.0346	5.5
0.0727	0.0045	-0.0068	0.003	5.7
0.0427	0.006	-0.006	0.0037	5.8
0.0097	0.0045	-0.0023	-0.0008	5.6
-0.0135	0.003	-0.0023	0.009	5.8
-0.0503	0.0022	-0.003	-0.0053	5.8
-0.0795	0.0015	-0.003	0.0007	5.9
-0.1035	0.0015	-0.0083	-0.0046	6
-0.1043	0	-0.0143	-0.0038	6.1
-0.105	-0.0008	-0.012	0	6.4
-0.1125	-0.0023	-0.0068	-0.0053	6.1
-0.1223	-0.0053	-0.0046	-0.0075	6.4
-0.1245	-0.0075	0.0015	-0.012	6.4
-0.1178	-0.0083	0.0015	-0.0165	6.4
-0.099	-0.0083	-0.0075	-0.0225	6.4
-0.09	-0.0083	-0.0105	-0.0203	6.6
-0.093	-0.0091	-0.0128	-0.0173	6.7
-0.0803	-0.0075	-0.0098	0.0045	6.6
-0.0721	-0.0068	-0.003	0.024	6.8
-0.057	-0.0046	-0.0038	0.0217	6.9
-0.0511	0.0007	-0.003	0.0337	6.9
-0.0436	0.0037	-0.0068	0.036	7.2
-0.0315	0.0052	-0.0135	0.033	7
-0.03	0	-0.0143	0.0195	7.2
-0.0278	-0.006	-0.0128	-0.0181	7.2
-0.0293	-0.003	-0.0105	-0.0256	7.3
-0.0285	0	-0.0075	-0.0053	7.4
-0.0188	0.0015	-0.0068	0.0052	7.6
-0.0158	0.0015	-0.0083	0.006	7.7
-0.0165	-0.0008	-0.012	0.036	7.5
-0.0113	-0.0008	-0.0091	0.0457	7.6
0.003	0.003	-0.0015	0.0022	7.6
0.0142	0.0075	0.003	0.0292	7.9
0.0052	0.0052	0.0052	0.0225	7.9
0.0015	-0.006	-0.0015	-0.024	8
-0.0053	-0.0105	-0.0128	-0.054	8.1
-0.0233	-0.0038	-0.0158	-0.0375	8.1
-0.0315	0.003	-0.0173	0.0015	8.1
-0.0361	0.0015	-0.0195	-0.0225	8.3
-0.0285	0.0022	-0.0233	0.0007	8.3
-0.015	0.0082	-0.0203	0.0097	8.5
0.0105	0.012	-0.0083	0.0082	8.4
0.0375	0.0097	-0.0015	-0.0008	8.7
0.06	0.0097	0.0052	0.0022	8.7
0.078	0.012	0.0157	0.033	8.8
0.0877	0.0105	0.0232	0.024	9
0.0945	0.0067	0.0307	0.0187	9
0.0967	-0.0008	0.0367	0.0045	9
0.0967	-0.0053	0.0352	-0.0053	9.2
0.0915	-0.0068	0.0277	-0.0165	9.2
0.0832	-0.0068	0.0142	-0.021	9.3
0.0765	-0.0046	0.0037	-0.012	9.3
0.0675	-0.003	0.0045	-0.0083	9.4
0.06	-0.0015	0.0067	-0.012	9.5
0.0517	-0.0008	0.0075	-0.0285	9.5
0.0457	0	0.0045	-0.0293	9.9
0.0397	0.003	0.0037	-0.015	9.7
0.0352	0.0007	0.0037	0.0165	9.9
0.0352	0.0007	0.0052	0.0232	9.9
0.0345	0.003	0.0127	-0.0046	10
0.0292	0.003	0.012	0.0037	10.1
0.033	0.0082	0.003	0.009	10.1
0.0315	0.012	-0.0046	-0.0015	10.4
0.0322	0.0082	-0.0105	0.0075	10.4
0.0352	0.006	-0.0128	0.0292	10.4
0.0352	0.003	-0.012	0.042	10.4
0.0382	0.0007	-0.0091	-0.0068	10.5
0.036	0.0007	-0.0105	-0.0098	10.7
0.0375	0.0015	-0.0098	0.0015	10.7
0.0382	0.003	-0.012	-0.0143	11
0.0367	-0.0015	-0.0165	-0.0053	10.9
0.036	-0.0008	-0.0158	-0.0091	11
0.0375	0.0015	-0.0165	0.0015	11.1
0.036	-0.0023	-0.0195	-0.0053	11.2
0.0337	-0.003	-0.0218	0.0007	11.2
0.0345	0.0007	-0.024	0.0105	11.3
0.0345	0.003	-0.0233	0.0105	11.6
0.03	0.0007	-0.0203	0.0105	11.6
0.0255	0.003	-0.0218	0.0082	11.7
0.0232	0.0015	-0.0218	0.012	11.7
0.0187	-0.0038	-0.0218	-0.0091	11.7
0.012	-0.0023	-0.0195	-0.021	12.1
0.0075	-0.0023	-0.012	-0.015	12
-0.0008	-0.0023	-0.0083	-0.0113	12.1
-0.003	-0.0038	-0.0068	-0.0158	12.3
-0.0105	-0.0053	-0.0053	-0.0181	12.1
-0.0181	-0.0046	-0.0015	-0.0173	12.6
-0.0256	-0.0068	0.0015	-0.0158	12.5
-0.033	-0.0053	0.006	-0.0128	12.8
-0.0383	-0.0053	0.009	-0.0143	12.7
-0.042	-0.0053	0.0142	-0.0143	12.8
-0.0458	-0.0046	0.0232	-0.0113	13
-0.0495	-0.0008	0.0255	-0.0023	13
-0.0563	0	0.03	0.0015	13.3
-0.063	0	0.0345	0.0067	13.1
-0.0675	0.0022	0.039	0.006	13.4
-0.0713	0.003	0.0412	0.0045	13.6
-0.078	0.0052	0.0405	0.0052	13.5
-0.0788	0.0067	0.039	0.0075	13.7
-0.0555	0.006	0.0375	0.0112	13.6
-0.0135	0.0075	0.0345	0.0127	13.9
0.0105	0.0052	0.0262	0.0105	13.8
0.024	0.003	0.0202	0.0105	14.1
0.0382	0.0052	0.018	0.0187	14
0.0352	0.0052	0.0135	0.0195	14.3
0.0187	0.0022	0.006	0.0165	14.6
-0.0158	0.0022	0.0015	0.018	14.4
-0.0458	0.003	0.003	0.0202	14.6
-0.0675	0.0045	0.0007	0.0232	14.5
-0.0863	0.0045	-0.0046	0.0165	14.7
-0.1006	0.0037	-0.0105	0.0015	14.8
-0.1103	0.0007	-0.0165	-0.0165	14.8
-0.12	-0.0046	-0.0188	-0.0308	15
-0.1305	-0.0053	-0.0203	-0.0233	15.1
-0.1335	-0.0015	-0.0181	-0.0083	15.3
-0.1298	0.0007	-0.0173	-0.0053	15.3
-0.1283	-0.0015	-0.0203	-0.0105	15.4
-0.1245	-0.0053	-0.0158	-0.0233	15.4
-0.1163	-0.0053	-0.0128	-0.0263	15.6
-0.108	-0.003	-0.0113	-0.0218	15.6
-0.1006	-0.003	-0.006	-0.0173	15.9
-0.0938	-0.0023	-0.0038	-0.0128	15.8
-0.0863	-0.0023	0	0.0007	16
-0.084	0.0007	0.0045	0.015	16
-0.0893	0.003	0.0105	0.018	16.2
-0.0998	-0.0008	0.015	0.0157	16.2
-0.1238	-0.0008	0.0165	0.0135	16.2
-0.156	0.0015	0.0195	0.0165	16.4
-0.1898	0	0.0217	0.012	16.5
-0.2228	-0.003	0.021	0.0075	16.6
-0.2415	-0.0046	0.0225	0.0052	16.7
-0.246	-0.0053	0.0232	-0.0015	16.6
-0.2325	-0.0038	0.0262	0	17
-0.2033	-0.0008	0.0292	0.0067	16.9
-0.165	-0.0008	0.0322	0.0067	17
-0.1185	-0.0008	0.0352	0.003	17
-0.0683	-0.0008	0.0345	-0.0008	17.1
-0.0143	-0.0008	0.0345	-0.0015	17.4
0.039	-0.0015	0.0352	-0.0046	17.1
0.0937	-0.003	0.0382	-0.0008	17.5
0.1447	-0.0015	0.042	0.009	17.5
0.192	0.0007	0.042	0.012	17.5
0.2325	0	0.0427	0.0067	17.6
0.2655	-0.0015	0.0442	0.0045	17.7
0.291	-0.0015	0.0427	0	17.9
0.3082	0	0.0405	-0.0023	17.9
0.3232	0.0015	0.0345	-0.0008	17.9
0.3292	0.0022	0.0285	0.0007	18
0.3345	0.003	0.027	0.0082	17.9
0.3352	0.0052	0.0232	0.0165	18.2
0.327	0.0082	0.0232	0.0202	18.2
0.3165	0.006	0.0217	0.012	18.4
0.3082	0.0022	0.0172	0.0037	18.5
0.2955	0.0007	0.0142	-0.0023	18.6
0.2775	-0.0015	0.009	-0.0083	18.5
0.2685	-0.0008	0.0082	-0.0105	18.7
0.27	0.0007	0.0045	-0.0128	18.9
0.2602	0.0015	-0.0015	-0.012	18.6
0.2512	0.0007	-0.0053	-0.0165	19
0.252	0.0007	-0.0068	-0.0091	19
0.2422	0.0037	-0.0105	0.0037	19.1
0.2332	0.0045	-0.0158	0.0067	19.3
0.2167	0.0022	-0.0188	0.012	19.2
0.195	0.0015	-0.0195	0.0127	19.4
0.174	-0.0015	-0.0203	0.0127	19.5
0.1485	-0.0038	-0.021	0.0135	19.4
0.1222	-0.0046	-0.0225	0.0097	19.8
0.087	-0.0083	-0.0218	0	19.6
0.0592	-0.0105	-0.0203	-0.0075	19.8
0.0292	-0.0098	-0.0181	-0.0128	19.8
0.0007	-0.0068	-0.0165	-0.0083	19.9
-0.021	-0.0015	-0.0165	-0.0038	19.9
-0.0375	0.0037	-0.0143	-0.003	20.1
-0.0518	0.0045	-0.0135	-0.003	20.4
-0.078	0.0022	-0.012	-0.0091	20.2
-0.0953	-0.0008	-0.0091	-0.0091	20.4
-0.1095	-0.0008	-0.0083	-0.0068	20.3
-0.1343	0.0007	-0.0053	-0.0053	20.4
-0.1485	0	-0.0015	-0.0046	20.5
-0.1493	0.0015	0	-0.0113	20.5
-0.1598	0	0.0022	-0.0165	20.9
-0.1726	-0.0023	0.003	-0.0128	20.9
-0.1741	-0.0015	0.0052	-0.0008	21.1
-0.186	-0.003	0.0067	0.0022	21
-0.189	-0.0046	0.0097	0	21.1
-0.1995	-0.0038	0.0142	0	21.3
-0.2175	-0.003	0.018	-0.0008	21.1
-0.2258	-0.0008	0.0232	0.0052	21.3
-0.225	0.0022	0.0232	0.0097	21.5
-0.219	0.003	0.024	0.012	21.4
-0.2303	0.0052	0.0232	0.0127	21.6
-0.2235	0.0045	0.021	0.0112	21.5
-0.2198	0.003	0.0217	0.012	21.7
-0.228	0.0067	0.0217	0.0105	21.7
-0.2325	0.0052	0.0195	0.006	21.9
-0.2423	0.0037	0.0165	0.0007	22.1
-0.2318	0.0045	0.015	-0.0046	21.9
-0.2033	0.0037	0.0142	-0.0038	22.1
-0.1013	0.003	0.0142	-0.0068	22
0.003	-0.0015	0.0142	-0.0181	22.3
0.0495	-0.0068	0.0127	-0.0285	22.2
0.141	-0.012	0.0105	-0.03	22.3
0.1972	-0.0098	0.009	-0.021	22.5
0.1972	-0.0046	0.0127	-0.0046	22.3
0.204	-0.0015	0.012	0.0052	22.6
0.201	0.0015	0.0127	0.0112	22.5
0.1762	0.0007	0.0172	0.012	22.8
0.1447	-0.0008	0.0187	0.0105	22.8
0.1297	0.0007	0.0202	0.0112	22.8
0.0997	0.0007	0.0195	0.0052	22.9
0.0742	0	0.0217	0.0015	23
0.0637	0.0015	0.0225	0.0082	22.9
0.0495	0.0037	0.0217	0.0105	23.1
0.0195	0.0045	0.0225	0.0112	23.1
0	0.0052	0.0195	0.0097	23.4
-0.0113	0.0037	0.018	0.0045	23.3
-0.0383	0.0015	0.0165	0.0045	23.4
-0.0346	0.003	0.0165	0.003	23.6
0.0082	0.0015	0.0157	0.0052	23.5
0.0457	-0.0008	0.0105	0.0052	23.8
0.024	0.0007	0.0075	0.003	23.5
0.0285	0.0015	-0.0008	0.0007	23.6
0.042	0.0007	-0.0046	-0.003	23.6
0.0225	-0.0008	0.0015	-0.0068	23.8
0.0307	-0.0015	0.0052	-0.0105	23.8
0.0157	0.0007	0.0082	-0.012	23.9
0.0157	0.0022	0.0082	-0.0113	24.1
0.0127	0.0007	0.0082	-0.0098	24.1
-0.0015	0.003	0.0067	-0.0083	24.1
0.0007	0.0052	0.003	-0.0046	24.4
-0.0008	0.003	0.0015	-0.0053	24.2
0	0.0022	0.0022	-0.0046	24.4
-0.0098	0.0037	0.0037	0.0022	24.3
-0.0015	0.003	0.0022	0.012	24.6
-0.0015	0.0022	0.0015	0.012	24.5
-0.0083	0.003	0.0007	0.0105	24.7
-0.0091	0.0015	-0.003	0.009	24.6
-0.0173	0.0007	-0.0046	0.0052	24.6
-0.0158	-0.0008	0.0015	0.0045	24.7
-0.024	-0.0008	0.0165	0.006	24.7
-0.0413	0.0015	0.0397	0.006	24.7
-0.0525	0.0045	0.0622	0.0045	25
-0.063	0.003	0.0697	0.0045	25
-0.0721	0.0015	0.0457	0.0015	25
-0.0735	0.0015	0.0045	0.0007	25.1
-0.0735	0	-0.0248	0.0022	25
-0.0728	-0.0008	-0.0383	0.0015	25.2
-0.0675	-0.0008	-0.0383	-0.0015	25.2
-0.0608	-0.0015	-0.0315	-0.0046	25.5
-0.0518	-0.0023	-0.0248	-0.0053	25.2
-0.0436	-0.003	-0.021	-0.0053	25.3
-0.0346	-0.003	-0.021	-0.0046	25.4
-0.0346	-0.0008	-0.0218	-0.0046	25.6
-0.0375	-0.0015	-0.0195	-0.003	25.7
-0.0375	-0.0015	-0.0158	-0.0015	25.5
-0.033	-0.0008	-0.012	0	25.9
-0.0308	0.0007	-0.0068	-0.0008	25.6
-0.027	0	-0.0053	-0.0008	25.8
-0.0248	0	-0.0068	0.0022	25.8
-0.0256	0.0007	-0.006	0.003	25.8
-0.024	-0.0008	-0.006	0.003	26.1
-0.027	0.0007	-0.0068	0	26
-0.0308	0.0007	-0.0046	-0.003	26.3
-0.0353	-0.0008	-0.0046	-0.0038	26.1
-0.039	-0.0008	-0.003	-0.0008	26.2
-0.0428	-0.0046	0	-0.0023	26.4
-0.0488	-0.0053	0.0007	-0.006	26.2
-0.0518	-0.0046	0	-0.0083	26.6
-0.0555	-0.0053	0.0022	-0.0091	26.5
-0.0593	-0.0046	0.003	-0.0075	26.6
-0.0608	-0.0038	0.0045	-0.003	26.6
-0.0578	-0.0023	0.0067	-0.0015	26.7
-0.0533	-0.0008	0.0045	-0.0008	26.7
-0.0511	-0.0008	0.006	0.0007	26.9
-0.0511	0	0.009	0.0015	26.9
-0.0488	-0.0008	0.0082	0.0022	26.9
-0.048	0.0007	0.0082	0.0045	26.9
-0.0465	0.003	0.0082	0.0052	27
-0.0465	0.0015	0.009	0.0067	26.9
-0.0473	-0.0008	0.0105	0.0045	27.3
-0.0436	-0.0015	0.0105	-0.0015	27.1
-0.0375	-0.0015	0.009	-0.0046	27.3
-0.0308	0.0007	0.009	-0.003	27.4
-0.0256	0.0045	0.0082	0.0007	27.4
-0.0203	0.006	0.0075	0.0022	27.5
-0.0158	0.0045	0.0075	0.0045	27.2
-0.0135	0.0045	0.0067	0.0045	27.4
-0.0128	0.0045	0.006	0.009	27.5
-0.0105	0.0045	0.0067	0.0127	27.8
-0.0091	0.0067	0.0052	0.0135	27.5
-0.0091	0.0067	0.003	0.015	27.6
-0.0113	0.006	0.0022	0.0157	27.8
-0.012	0.0045	-0.0008	0.0142	27.9
-0.012	0.003	-0.0015	0.0082	27.7
-0.0075	0.0007	-0.0015	0.003	27.8
-0.0008	-0.0015	-0.003	-0.003	27.7
0.0052	-0.0023	-0.0046	-0.0068	27.9
0.0052	-0.0015	-0.0053	-0.0091	27.9
0.0045	-0.0015	-0.006	-0.0105	28
0.0015	-0.0023	-0.0068	-0.0135	28
-0.0015	-0.003	-0.0083	-0.0158	28
-0.0008	-0.006	-0.0098	-0.0165	28.4
0.003	-0.0053	-0.0083	-0.0143	28.1
0.0037	-0.0023	-0.0105	-0.006	28.3
0.0052	0	-0.0098	-0.0015	28.3
0.0067	0.0037	-0.0068	0.0015	28.4
0.0052	0.0052	-0.0053	0.012	28.4
0.0082	0.0082	-0.0015	0.018	28.4
0.0105	0.0097	-0.0008	0.0195	28.7
0.0105	0.0082	0	0.0157	28.8
0.0112	0.0082	0.0015	0.0105	28.7
0.012	0.0067	0.0007	0.0052	28.8
0.012	0.0045	0.0015	0	28.7
0.012	0.003	0.0045	-0.0015	28.9
0.015	0	0.0067	-0.0083	28.8
0.0142	-0.003	0.009	-0.0135	29
0.0165	-0.0053	0.0097	-0.0128	29
0.0165	-0.0075	0.0067	-0.0165	29.2
0.018	-0.0083	0.0075	-0.0203	29.1
0.0187	-0.0091	0.0082	-0.0188	29.2
0.0165	-0.0091	0.0075	-0.0128	29.2
0.0165	-0.006	0.0082	-0.0068	29.3
0.015	-0.0038	0.0105	-0.0038	29.2
0.0142	-0.0015	0.0112	-0.0015	29.4
0.0142	0.0007	0.012	0.0007	29.5
0.012	0.0007	0.0105	-0.0015	29.6
0.012	0.0015	0.0112	0	29.5
0.0112	0.0015	0.012	0.003	29.6
0.012	0.0022	0.0105	0.003	29.7
0.0097	0.0022	0.012	0.0045	29.7
0.0082	0.0015	0.0112	0.003	29.9
0.009	0.0022	0.012	0.0045	29.8
0.0082	0.003	0.0105	0.0067	30.1
0.0075	0.0037	0.009	0.0052	29.9
0.0067	0.0022	0.0082	0.0052	29.9
0.0082	0.003	0.006	0.0067	30
0.009	0.0015	0.0052	0.006	30
0.0097	-0.0008	0.0052	0.0067	30.2
0.0105	-0.0015	0.0067	0.0067	30.2
0.0105	-0.003	0.0067	0.0045	30.2
0.009	-0.0008	0.0052	0.0045	30.4
0.0082	0	0.0037	0.0045	30.2
0.0097	0.0015	0.0045	0.003	30.5
0.0142	0.0015	0.0037	0.003	30.3
0.018	0	0.0015	0.0015	30.5
0.0217	0.0007	0.0015	0.0007	30.5
0.0292	0	0.0015	0.0015	30.5
0.0337	-0.0008	0.0015	0.0015	30.5
0.0352	0.0015	0.003	0.0007	30.7
0.033	0.0015	0.003	0.0007	30.7
0.0315	0.0015	0.003	0.0022	30.7
0.0307	0.0015	0.0037	0.0015	30.9
0.0255	0.0015	0.003	-0.0008	30.9
0.0187	0.0015	0.003	0.0015	30.7
0.0082	0.0007	0.0045	0.0007	30.9
-0.0068	-0.0008	-0.0008	-0.0008	31
-0.0046	0	0.0007	-0.0008	31
0.0067	-0.0015	0.0007	-0.0008	31
0.0015	-0.0008	0.0007	-0.0015	31
0.0082	0	0.0015	-0.0015	31.3
0.0217	-0.0015	0.0022	0.0015	31
0.024	0.0007	0.003	0.003	31.3
0.0337	0.0015	0.0022	0.006	31.1
0.027	0.0037	0.0037	0.0082	31.2
0.0217	0.0045	0.003	0.0075	31.2
0.0165	0.0045	0.0052	0.0037	31.2
0.0105	0.003	0.0052	0.0015	31.4
0.012	0.0022	0.006	-0.0008	31.3
0.0112	0.003	0.0067	-0.0008	31.5
0.0045	0.0007	0.0045	-0.0008	31.4
0.0015	-0.0008	0.0052	-0.003	31.4
0.006	-0.0015	0.003	-0.0068	31.6
-0.0008	-0.003	0.0015	-0.0068	31.5
-0.0098	-0.0038	0.0022	-0.003	31.6
-0.0038	-0.0038	0.0037	0.003	31.7
0.003	-0.0008	0.006	0.0045	31.7
-0.0068	-0.0008	0.0052	0.003	31.7
-0.0105	-0.0015	0.0052	-0.0015	31.8
0.0082	-0.0015	0.0037	-0.0046	31.8
0.0082	-0.003	0.0015	-0.0068	31.8
0.0127	-0.003	0.003	-0.0098	31.7
0.0217	-0.0046	0.003	-0.012	31.8
0.0217	-0.0053	0.0015	-0.0128	31.8
0.036	-0.0053	0.0015	-0.0128	31.9
0.0322	-0.0068	0.0015	-0.015	31.9
0.0262	-0.0068	0	-0.012	31.9
0.0555	-0.0068	0.0007	-0.006	31.9
0.084	-0.0053	0.0015	-0.0015	32
0.0802	-0.003	0.003	0.0022	32.1
0.1012	-0.0015	0.0022	0.003	31.8
0.129	0	0.0015	0.0045	32.1
0.1087	0.0037	0.0015	0.0105	31.9
0.0892	0.003	0.0052	0.0112	31.9
0.0637	0.003	0.0067	0.0075	31.9
0.0345	0.0015	0.0052	0.0045	32
0.009	0.0007	0.0067	0.0015	32.1
-0.0143	0.0022	0.0067	0.0015	31.9
-0.027	0.0015	0.0067	0.0007	32.2
-0.0361	0.0007	0.0082	0	32
-0.0428	-0.0015	0.0082	-0.0008	32.2
-0.0503	-0.0038	0.0082	-0.0053	32.2
-0.0533	-0.003	0.006	-0.0075	32.3
-0.0578	-0.0008	0.0007	-0.003	32.2
-0.057	0.003	-0.0015	0.0052	32.1
-0.0608	0.0015	-0.0046	0.0067	32.1
-0.0668	0.0015	-0.0015	0.0067	32.3
-0.0668	0.0015	0.003	0.0067	32.2
-0.0706	0.0007	0.003	0.0052	32.2
-0.0765	0.0007	0.0067	0.0045	32
-0.0818	0	0.012	0.0015	32.3
-0.078	0.0015	0.0157	0.0022	32.2
-0.0758	0.0015	0.018	0.0037	32.2
-0.0691	-0.0008	0.0225	0.0022	32.2
-0.0533	0.0015	0.0315	0.0015	32.2
-0.0346	0.0015	0.0382	0.003	32.2
-0.0143	0.0015	0.0442	0.0037	32.1
0.0052	0.0015	0.0465	0.0022	32.3
0.0307	0.0015	0.048	0.0015	32.1
0.0615	0.0015	0.0502	0.003	32.2
0.09	0.0052	0.048	0.0045	32.1
0.1155	0.0067	0.048	0.003	32.1
0.1417	0.0052	0.0465	0.0052	32.2
0.165	0.0045	0.042	0.0067	32.2
0.1807	0.0067	0.0382	0.009	32
0.1897	0.0067	0.0337	0.0112	32.2
0.1912	0.0037	0.0277	0.009	32.2
0.189	0.0007	0.0195	0.0067	32.2
0.1822	-0.0008	0.0135	0.0045	32.1
0.1747	0.0007	0.006	0.003	32.3
0.165	0.0007	-0.0046	0.0015	32.1
0.1485	0	-0.012	-0.0023	32.2
0.1312	-0.0008	-0.0195	-0.0068	32.1
0.1117	-0.0038	-0.0285	-0.0091	32.2
0.0892	-0.006	-0.0346	-0.0105	32.1
0.0667	-0.0046	-0.0383	-0.0113	32.1
0.0487	-0.003	-0.042	-0.012	32.1
0.0285	-0.0046	-0.0443	-0.0105	32.3
0.012	-0.0046	-0.0436	-0.0083	32.1
-0.0038	-0.0015	-0.0428	-0.0068	32
-0.0195	0.0007	-0.042	-0.0068	32.2
-0.0293	0.0007	-0.0383	-0.0098	31.9
-0.0383	0.0015	-0.0353	-0.0068	32.1
-0.045	0.003	-0.0293	-0.0015	32
-0.0495	0.003	-0.0256	-0.0008	32.2
-0.0533	0.0045	-0.0203	0.0015	31.9
-0.0578	0.0045	-0.0158	0.0022	32
-0.0608	0.003	-0.012	0.003	32
-0.0653	0.003	-0.0075	0.003	32.1
-0.0668	0.003	-0.0046	0.0045	32
-0.0645	0.0022	-0.0015	0.0075	31.9
-0.0675	0.0022	-0.0015	0.009	31.9
-0.066	0.0022	0.0007	0.0105	32
-0.0668	0.0007	0.0015	0.0075	31.9
-0.0683	0.0022	0.003	0.006	32
-0.0668	0.0015	0.0067	0.0075	31.9
-0.0698	0.0007	0.009	0.0075	32
-0.0713	0.0015	0.0105	0.006	31.7
-0.0728	-0.0008	0.009	0.003	31.9
-0.075	-0.0023	0.009	0.003	31.9
-0.075	-0.0023	0.0112	-0.003	31.7
-0.0765	-0.003	0.012	-0.0046	31.9
-0.078	-0.003	0.0105	-0.0015	31.8
-0.0803	-0.0015	0.0097	-0.0008	31.9
-0.0765	-0.0008	0.0097	0.0015	31.9
-0.0728	-0.0008	0.0142	0.0007	31.8
-0.0706	-0.0015	0.0165	0	31.6
-0.0698	0	0.0187	-0.0008	31.7
-0.0706	0.003	0.0195	-0.0015	31.7
-0.0683	0.003	0.018	-0.0023	31.7
-0.0698	0.006	0.0202	0.0007	31.5
-0.0713	0.0045	0.0217	0	31.8
-0.0706	0.0015	0.0217	-0.0015	31.5
-0.0706	0.0007	0.0217	-0.0008	31.6
-0.0691	-0.0008	0.0217	-0.0068	31.5
-0.0668	0	0.024	-0.0105	31.4
-0.063	-0.003	0.0232	-0.0188	31.5
-0.0608	-0.0046	0.0247	-0.0248	31.3
-0.0578	-0.0046	0.0255	-0.0195	31.4
-0.0615	-0.0023	0.0277	-0.0068	31.2
-0.063	-0.0015	0.027	0.003	31.5
-0.0653	-0.0023	0.024	0.0052	31.3
-0.0653	-0.0015	0.0225	0.006	31.2
-0.0615	0.0007	0.0195	0.0075	31.1
-0.057	0.003	0.018	0.0052	31.1
-0.0533	0.003	0.018	0.0052	31
-0.048	0.0045	0.0157	0.0052	31.1
-0.0458	0.003	0.018	0.006	31.1
-0.0436	0.003	0.0157	0.0067	31
-0.0405	0.0045	0.0127	0.006	31
-0.0353	0.0037	0.009	0.006	31
-0.0308	0.003	0.0052	0.003	31
-0.0256	0.003	0.0045	0.0015	31
-0.0218	0.0022	0.0022	0.0007	30.7
-0.0188	0.0022	0.003	-0.0008	30.7
-0.012	0.0015	0.003	0.0007	30.8
-0.0046	0.0007	0.0022	0.0015	30.6
0.0015	-0.0008	0.0007	0.0022	30.6
0.009	-0.003	-0.0008	0.0015	30.6
0.0142	-0.003	-0.0015	0.0015	30.6
0.018	-0.0015	-0.0046	0.0007	30.5
0.0202	-0.0038	-0.0046	0	30.4
0.0217	-0.0015	-0.0023	-0.0008	30.5
0.0202	-0.0008	-0.0038	-0.0008	30.2
0.0202	-0.0008	-0.0053	0.0015	30.1
0.018	0.0007	-0.0015	0.0015	30.5
0.0142	0.0015	-0.0015	0.003	30
0.0082	0.0007	-0.0038	0.003	30.2
0.0037	-0.003	-0.003	0.0007	30
-0.0015	-0.0038	-0.003	0.0007	30.1
-0.0038	-0.0038	-0.0015	0	29.9
-0.0008	-0.0023	-0.0008	-0.0015	29.9
0.0015	-0.0038	-0.0015	-0.0008	29.9
0.006	-0.003	-0.0015	0.0015	29.9
0.0127	-0.0015	0	0.0007	29.8
0.021	-0.0015	0.0007	0.0015	29.8
0.0277	0.0007	0.0007	0.0015	29.8
0.03	0.0007	0.0015	0.0007	29.8
0.0345	0.0015	0.0015	0.0015	29.6
0.0367	0.0037	0.0022	0.0045	29.6
0.0382	0.0045	0.0052	0.0022	29.5
0.0375	0.0022	0.006	-0.0008	29.5
0.0352	0.0015	0.006	0.0007	29.4
0.0337	0.003	0.006	0.0015	29.2
0.033	0.003	0.0075	0.0015	29.3
0.0382	0.0015	0.0075	0.0007	29.1
0.042	-0.0015	0.0052	-0.0015	29.2
0.0442	-0.0046	0.0075	-0.0015	29
0.0472	-0.003	0.0075	-0.003	29
0.0502	-0.0015	0.0052	-0.003	28.9
0.051	-0.0023	0.0075	-0.0046	28.9
0.051	-0.0015	0.0082	-0.0046	28.9
0.0555	-0.0008	0.0075	-0.0046	28.9
0.0562	-0.0008	0.0075	-0.0068	28.8
0.0607	-0.0008	0.0067	-0.0053	28.8
0.0622	0.0007	0.0067	-0.0023	28.6
0.0645	-0.0008	0.0052	0	28.7
0.069	-0.0015	0.006	-0.0008	28.4
0.0712	-0.0008	0.009	-0.0023	28.7
0.0727	-0.0015	0.009	-0.0023	28.5
0.0712	-0.0008	0.0067	-0.0015	28.3
0.0705	0.0007	0.0067	-0.0015	28.3
0.0675	0.0007	0.0067	-0.0015	28.3
0.0652	0.0045	0.0052	0	28.3
0.0652	0.003	0.0045	0.0015	28.2
0.0622	0.0015	0.0052	0.003	28.2
0.057	0.0015	0.006	0.0045	28.1
0.0532	0.0015	0.0052	0.0067	28
0.051	0.0022	0.0045	0.0075	28
0.048	0.0007	0.0045	0.006	27.9
0.0442	0.0007	0.003	0.0052	27.9
0.0405	-0.0015	0.003	0.0045	27.9
0.036	-0.0015	0.0052	0.0045	27.5
0.0307	0.0007	0.006	0.0045	27.8
0.0277	0.003	0.0052	0.0015	27.6
0.024	0.003	0.0067	0.003	27.7
0.021	0.0015	0.0067	0.0015	27.6
0.0157	0.0022	0.0082	0.0007	27.4
0.0075	0.0015	0.0105	0.0037	27.4
0.0022	-0.0008	0.0105	0.003	27.4
-0.0038	0	0.0097	0.0007	27.3
-0.0091	0	0.0067	0.0022	27.3
-0.0181	0	0.0075	0	27.1
-0.027	-0.0008	0.009	-0.0015	27
-0.033	0	0.0097	0	27
-0.0413	0.0007	0.0105	-0.0008	27
-0.0465	-0.0015	0.0105	-0.0008	26.8
-0.0533	0.0007	0.0135	-0.0008	26.9
-0.0593	0.0007	0.0112	0	26.7
-0.0623	0	0.0097	-0.0008	26.8
-0.0638	0	0.009	-0.0008	26.7
-0.0683	0.0007	0.0067	0.0007	26.5
-0.0713	0.0015	0.0067	-0.0008	26.5
-0.0721	0.0007	0.0075	0.0007	26.3
-0.0743	0.0015	0.0082	0.0007	26.4
-0.0818	0.0037	0.0052	0.0007	26.2
-0.084	0.0022	0.0067	-0.0015	26.1
-0.0825	-0.0008	0.009	-0.0015	26.1
-0.0893	-0.0015	0.009	-0.0015	26
-0.0975	-0.0015	0.006	-0.003	26
-0.1013	-0.0015	0.006	-0.003	25.9
-0.1013	-0.0015	0.0052	-0.003	25.9
-0.0938	0	0.0037	-0.0008	25.9
-0.0885	0.0007	0.0045	0	25.6
-0.0803	0.0007	0.0075	-0.0008	25.7
-0.066	0.003	0.012	0.0007	25.6
-0.0653	0.0045	0.015	0.0015	25.6
-0.057	0.0037	0.018	0.003	25.4
-0.0443	0.0037	0.0195	0.0015	25.6
-0.0383	0.0022	0.0187	0.0015	25.3
-0.0346	0.0022	0.0172	0.0015	25.2
-0.0308	0.0022	0.0142	0.0007	25.3
-0.0233	0.0015	0.0127	0	25
-0.0135	-0.0015	0.0112	-0.0015	25.1
0.0067	-0.0015	0.0127	-0.0023	25.1
0.0315	-0.0008	0.0135	-0.0046	24.9
0.0397	-0.0038	0.0097	-0.0053	24.8
0.0427	-0.003	0.0045	-0.0053	24.7
0.0495	-0.0015	0.0015	-0.003	24.7
0.0532	-0.0008	0.0052	0.0007	24.6
0.0577	0.0007	0.0075	0.0045	24.7
0.0615	0.0007	0.0112	0.0045	24.6
0.054	0.0007	0.0127	0.003	24.3
0.0457	0.0015	0.0112	0.0052	24.5
0.0382	0.003	0.015	0.0067	24.2
0.0345	0.003	0.0157	0.0075	24.2
0.0457	0.0045	0.0165	0.0037	24.3
0.0547	0.0045	0.0225	0.003	24.1
0.048	0.0007	0.0247	0.0045	24.2
0.0427	-0.0015	0.0292	0.006	24
0.0367	0.0007	0.0307	0.0052	23.8
0.03	0.003	0.0322	0.0015	23.8
0.03	0.0015	0.033	-0.0008	23.8
0.0307	0.0022	0.0307	-0.0038	23.7
0.036	0.0015	0.033	-0.0038	23.5
0.033	0.0007	0.036	-0.0046	23.7
0.0202	0.0007	0.0382	-0.0046	23.4
0.0105	-0.0015	0.0382	-0.0015	23.5
0.0097	-0.0008	0.0352	-0.0015	23.4
0.0127	-0.0015	0.0315	-0.0015	23.3
0.0142	-0.003	0.0202	-0.003	23.3
0.0165	-0.0053	0.0067	-0.0053	23
0.018	-0.006	-0.0038	-0.0053	23.1
0.0165	-0.0046	-0.0128	-0.0046	22.8
0.012	-0.0046	-0.0165	-0.0046	23
0.012	-0.003	-0.0203	-0.0008	22.7
0.0052	-0.0023	-0.0278	0.0022	22.8
0.0007	-0.0015	-0.033	0.0015	22.7
-0.003	-0.0023	-0.0368	0.0015	22.7
-0.0091	-0.0046	-0.0353	-0.0008	22.5
-0.0053	-0.0023	-0.03	-0.0008	22.5
-0.0015	-0.0023	-0.0338	0	22.5
-0.0015	-0.0023	-0.0383	0.0015	22.5
-0.0053	0	-0.042	0.003	22.2
-0.0053	0.0007	-0.0495	0.0007	22.3
0	0	-0.0518	0.0015	22.1
-0.0083	0.003	-0.0533	0.003	22.2
-0.0181	0.003	-0.0525	0.0015	22
-0.012	0.0007	-0.0465	0.0022	22
0.0015	0.0007	-0.0511	0.0015	22
0.0105	0.0007	-0.0691	0.003	21.7
0.012	0.0015	-0.0735	0.0022	21.8
0.015	0.0015	-0.0638	0.0007	21.9
0.0195	-0.0023	-0.0533	-0.003	21.6
0.0292	-0.0068	-0.0713	-0.0068	21.5
0.03	-0.0068	-0.1575	-0.006	21.4
0.0247	-0.0068	-0.216	-0.0075	21.5
0.0292	-0.0068	-0.2063	-0.0038	21.3
0.0135	-0.0015	-0.2011	0.0015	21.4
-0.0105	0.0037	-0.1741	0.006	21.2
-0.0195	0.0082	-0.1298	0.0082	21
-0.0233	0.0105	-0.078	0.0097	21.1
-0.0278	0.012	-0.0143	0.009	20.9
-0.0361	0.012	0.0352	0.0067	21
-0.0488	0.0112	0.0765	0.0067	20.7
-0.0548	0.0082	0.0945	0.0045	20.9
-0.0533	0.0045	0.0952	0.003	20.5
-0.0503	0.003	0.0937	0.003	20.6
-0.042	0.0007	0.1117	0.0007	20.5
-0.0346	0.0007	0.1312	-0.0015	20.5
-0.0293	-0.0008	0.1185	-0.003	20.2
-0.0143	-0.003	0.1102	-0.0038	20.3
-0.0015	-0.0053	0.102	-0.0046	20.2
0.0127	-0.0083	0.0825	-0.0105	20.2
0.0187	-0.0113	0.0705	-0.0105	19.9
0.0015	-0.0091	0.0577	-0.0091	19.8
-0.0105	-0.0075	0.051	-0.0068	19.7
-0.0023	-0.0046	0.0465	-0.003	19.6
-0.0098	-0.003	0.0487	0	19.8
-0.0323	0.0007	0.0577	0.003	19.5
-0.0503	0.0052	0.0547	0.0052	19.5
-0.0488	0.009	0.0562	0.0075	19.3
-0.0443	0.0082	0.0705	0.0067	19.4
-0.0465	0.006	0.078	0.0052	19.1
-0.0555	0.0082	0.063	0.006	19.2
-0.0765	0.0067	0.0442	0.0037	19
-0.0893	0.0067	0.039	0.0045	18.9
-0.0983	0.009	0.0442	0.0052	18.8
-0.0983	0.0075	0.0457	0.003	18.8
-0.099	0.0075	0.0375	0.0045	18.6
-0.1043	0.006	0.0247	0.0052	18.6
-0.0945	0.003	0.018	0.0037	18.2
-0.0878	0.0007	0.0127	-0.0008	18.5
-0.0728	-0.0023	0.009	-0.0038	18.1
-0.0548	-0.0038	0.009	-0.006	18.2
-0.0413	-0.0053	0.012	-0.0053	18
-0.0248	-0.006	0.0112	-0.003	18
-0.0098	-0.006	0.0112	-0.0023	17.9
-0.0068	-0.003	0.0082	-0.0015	17.8
-0.0195	-0.0023	0.003	0.0007	17.7
-0.0218	-0.003	-0.0023	0.0022	17.5
-0.0165	-0.0008	-0.0046	0.003	17.3
-0.0075	0.0007	0.0007	0.003	17.3
0.009	0.0015	0.0067	0.0007	17
0.018	0.0015	0.012	0	17.1
0.0255	0.0007	0.0142	-0.0015	16.8
0.0427	-0.0038	0.0172	-0.0046	17
0.0517	-0.0083	0.0255	-0.006	16.7
0.0525	-0.0091	0.0277	-0.0038	16.7
0.0457	-0.0053	0.0307	-0.0023	16.6
0.0382	-0.0023	0.0292	0.0007	16.2
0.0352	-0.0015	0.0247	0.0015	16.4
0.042	-0.0008	0.0292	0.0015	16.2
0.0442	0.0015	0.0285	0.0045	16.1
0.0315	0.0037	0.0172	0.0052	16
0.033	0.003	0.0052	0.003	15.8
0.048	0.003	-0.0046	0.0007	15.6
0.0525	0.0022	-0.006	0.0007	15.5
0.0592	0.0007	-0.0046	-0.0038	15.5
0.0712	-0.003	-0.0105	-0.0091	15.5
0.0802	-0.0053	-0.0143	-0.0113	15.3
0.102	-0.0046	-0.0128	-0.0105	15.3
0.1207	-0.0038	-0.0098	-0.0083	15
0.1192	-0.0015	-0.0068	-0.0023	15.1
0.108	0.0015	0.0007	0.003	15
0.0915	0.006	0.0082	0.009	14.9
0.0727	0.009	0.0082	0.0105	14.7
0.0517	0.0105	0	0.009	14.6
0.0465	0.0097	-0.012	0.0097	14.5
0.0382	0.0082	-0.0293	0.009	14.4
0.027	0.012	-0.0346	0.012	14.4
0.018	0.012	-0.03	0.009	14.1
0.0112	0.006	-0.0285	0.0067	14.2
0.009	0.003	-0.012	0.0037	14
0.0067	-0.0008	0.0045	0	13.9
-0.0015	-0.003	0.0127	-0.003	13.9
-0.0128	-0.0046	0.0232	-0.0068	13.8
-0.0203	-0.0083	0.0397	-0.0083	13.8
-0.0105	-0.0098	0.0472	-0.0083	13.6
0.0105	-0.0105	0.0277	-0.0091	13.4
0.009	-0.0113	0.009	-0.0068	13.5
0.009	-0.0091	-0.0038	-0.0053	13
0.0135	-0.0068	-0.0046	-0.0068	13.2
0.0082	-0.0091	-0.0053	-0.0075	13.1
0.0232	-0.0068	-0.012	-0.0083	13
0.0217	-0.0053	-0.012	-0.0038	12.8
0.003	0.0007	-0.0165	0.0037	12.8
-0.0225	0.009	-0.0203	0.0105	12.8
-0.039	0.0135	-0.0188	0.0127	12.6
-0.0548	0.0157	-0.0135	0.0142	12.6
-0.0743	0.0165	-0.0098	0.0135	12.4
-0.0765	0.0082	-0.0008	0.0067	12.3
-0.0593	0.0007	0.012	0.0007	12.4
-0.0405	-0.0008	0.024	-0.003	12.1
-0.0353	-0.0015	0.0345	-0.0046	12.1
-0.024	-0.003	0.036	-0.0068	11.9
-0.0113	-0.0023	0.0367	-0.0053	11.9
-0.0278	-0.0008	0.0337	-0.003	11.8
-0.0443	-0.0015	0.0472	-0.0046	11.7
-0.0315	-0.0053	0.069	-0.0038	11.7
-0.0188	-0.0083	0.0577	-0.0053	11.5
-0.012	-0.0083	0.033	-0.0046	11.4
-0.0068	-0.0053	0.027	-0.0053	11.6
0.0045	-0.0068	0.0292	-0.006	11.3
0.0187	-0.0075	0.0367	-0.0046	11.2
0.0142	-0.0075	0.045	-0.0068	11
0.0007	-0.0083	0.0457	-0.0038	10.9
-0.0105	-0.006	0.0442	-0.0008	10.8
-0.0195	-0.0015	0.0427	0.0052	10.7
-0.0495	0.0052	0.036	0.0112	10.8
-0.0908	0.009	0.0255	0.0112	10.5
-0.1088	0.009	0.0292	0.0127	10.7
-0.1043	0.0105	0.0367	0.012	10.5
-0.0856	0.0075	0.027	0.0052	10.3
-0.066	0.0037	0.018	0.0015	10.1
-0.0675	0.003	0.012	0.0007	10
-0.0743	0.0015	-0.006	-0.0015	10.1
-0.063	0	-0.0195	-0.0015	9.7
-0.0548	0	-0.0173	-0.0008	9.9
-0.0593	0.0045	-0.0158	0.0007	9.7
-0.0518	0.0037	-0.0128	-0.0023	9.7
-0.0203	-0.0015	-0.012	-0.0053	9.5
0.015	-0.0046	-0.0128	-0.006	9.5
0.0457	-0.003	-0.0143	-0.0046	9.4
0.0352	0	-0.0165	0	9.3
0.027	0.0015	-0.0143	-0.0008	9.3
0.0637	0.0015	-0.0053	0.0015	9.2
0.0727	0.0045	-0.0008	0.0045	9
0.0502	0.0067	-0.0068	0.0052	9.1
0.0352	0.0045	-0.0091	0.006	8.9
0.0337	0.0045	-0.0053	0.0052	8.8
0.0225	0.0067	-0.0008	0.0082	8.8
0.0202	0.0067	0.0067	0.0045	8.7
0.0397	0.0007	0.0105	-0.003	8.8
0.0517	-0.0038	0.0157	-0.0053	8.4
0.0667	-0.0083	0.0127	-0.0098	8.7
0.0825	-0.0083	0.0007	-0.0098	8.4
0.0855	-0.006	-0.0046	-0.0083	8.2
0.0667	-0.0075	0.0015	-0.0083	8.2
0.0547	-0.0083	-0.0098	-0.006	8.2
0.0577	-0.0068	-0.0413	-0.0068	8.1
0.0585	-0.0083	-0.0765	-0.0068	7.9
0.0472	-0.006	-0.1058	-0.0053	7.8
0.0427	-0.0023	-0.1073	-0.003	7.8
0.06	-0.003	-0.0938	0	7.4
0.063	0.0015	-0.0825	0.006	7.6
0.075	0.0082	-0.0675	0.0097	7.4
0.0877	0.0112	-0.0398	0.012	7.4
0.0667	0.0127	-0.0105	0.0112	7.3
0.063	0.0097	0.0067	0.009	7.2
0.057	0.0067	0.012	0.0082	7.2
0.0487	0.006	0.006	0.0045	7.1
0.0517	0.0037	0.0075	-0.0015	7.1
0.0502	-0.0008	0.0052	-0.0053	6.8
0.0532	-0.0038	-0.0105	-0.0068	6.8
0.054	-0.0053	-0.0195	-0.0068	6.7
0.0675	-0.0068	-0.0218	-0.0091	6.7
0.072	-0.0068	-0.012	-0.0068	6.6
0.0622	-0.0053	0.0157	-0.0046	6.6
0.0735	-0.0046	0.0397	-0.0023	6.5
0.0817	-0.0046	0.0345	0.0007	6.4
0.0457	0.0045	0.0127	0.0105	6.2
0.0022	0.012	0.0262	0.0142	6.3
-0.003	0.0105	0.0442	0.0097	6.2
-0.0128	0.009	0.0442	0.009	6.3
-0.0195	0.0052	0.057	0.0037	6
-0.0218	0.0022	0.0622	0.0007	6.1
-0.0361	0	0.0562	0.0007	5.9
-0.0293	-0.0008	0.0517	0.0007	5.9
-0.0165	0	0.0405	0.0007	5.8
0.0075	-0.0008	0.0172	-0.0008	5.6
0.0172	-0.0023	-0.0046	-0.0015	5.5
-0.0225	-0.0015	-0.0113	0.0007	5.5
-0.063	0	0.0015	0.0015	5.3
-0.09	0.0022	0.003	0.0037	5.5
-0.0968	0.0037	-0.0113	0.0052	5.3
-0.1021	0.0015	-0.0158	0	5.4
-0.1058	-0.0046	-0.0248	-0.0083	5.1
-0.0863	-0.0128	-0.0285	-0.0143	5
-0.048	-0.0135	-0.0256	-0.0105	5.2
-0.0383	-0.0105	-0.0225	-0.0068	5
-0.045	-0.0091	-0.006	-0.003	5
-0.0443	-0.0053	0.0082	0.0037	4.8
-0.0743	0.0015	0.018	0.0082	4.9
-0.0825	0.006	0.0375	0.0082	4.8
-0.078	0.0052	0.0615	0.0052	4.7
-0.0938	0.003	0.0727	0.0022	4.7
-0.1043	0	0.0742	-0.003	4.6
-0.099	-0.0068	0.0727	-0.0105	4.7
-0.0856	-0.0158	0.0622	-0.0165	4.5
-0.0653	-0.021	0.0532	-0.0195	4.5
-0.03	-0.0225	0.0502	-0.0165	4.5
0.018	-0.015	0.0532	-0.0023	4.3
0.069	-0.0023	0.0307	0.0127	4.5
0.0405	0.015	0.0052	0.0232	4.3
-0.0315	0.027	0.006	0.0315	4.2
-0.0615	0.0307	0.0127	0.03	4.1
-0.0638	0.027	0.0457	0.0195	4
-0.057	0.0172	0.1042	0.0082	4.2
-0.024	0.0075	0.126	-0.0015	3.8
0.0217	-0.0008	0.0615	-0.0075	4
0.0495	-0.0023	-0.0008	-0.0075	3.8
0.042	0.0015	-0.0465	-0.0015	3.7
0.0195	0.0052	-0.1073	0.0007	3.8
0.0082	0.003	-0.1411	-0.003	3.6
-0.0075	-0.0015	-0.1703	-0.0083	3.8
-0.0143	-0.003	-0.1583	-0.0075	3.5
-0.0098	-0.0015	-0.1208	-0.0068	3.5
-0.0165	-0.0038	-0.075	-0.0091	3.4
0.0015	-0.006	-0.0218	-0.0068	3.3
0.039	-0.0053	0.009	-0.0053	3.5
0.0585	-0.0023	0.0315	0	3.2
0.0577	0.003	0.0442	0.0037	3.2
0.0532	0.0075	0.0517	0.0067	3.2
0.0285	0.009	0.0405	0.0052	3
0.009	0.0045	0.0345	-0.0015	3
0.0037	-0.0023	0.051	-0.006	3.1
-0.0023	-0.0046	0.0727	-0.0053	3
0.012	-0.0046	0.063	-0.0023	2.8
0.018	0	-0.0218	-0.0015	2.7
0.009	0.0015	-0.0878	-0.0008	2.8
-0.0195	0.0045	-0.0608	0.003	2.5
-0.0293	0.006	-0.0128	0.0007	2.5
-0.0278	0.0022	0.033	-0.0046	2.5
-0.0098	-0.0015	0.0727	-0.0098	2.5
0.0075	-0.0083	0.0607	-0.0165	2.5
0.0105	-0.0158	0.036	-0.0195	2.4
0.057	-0.0143	0.018	-0.0128	2.4
0.0862	-0.0046	-0.0083	0.0015	2.2
0.0502	0.0067	-0.0143	0.0142	2.3
-0.0091	0.015	0.009	0.0195	2.1
-0.048	0.015	0.0157	0.015	2.1
-0.0653	0.0082	-0.0008	0.0067	2
-0.0473	0.0015	0.0045	-0.0008	2.1
0	-0.0046	0.0187	-0.0046	2.1
0.0105	-0.0053	0.0262	-0.0068	1.9
0.0082	-0.0091	0.009	-0.0091	1.8
0.006	-0.012	-0.0158	-0.003	1.8
-0.0233	-0.0053	-0.0293	0.003	1.7
-0.057	-0.003	-0.0428	0	1.7
-0.0698	-0.0053	-0.027	-0.0068	1.7
-0.0608	-0.006	0.027	-0.0068	1.6
-0.0338	-0.003	0.0427	-0.0023	1.5
0.003	-0.0015	-0.0113	0.0007	1.4
0.0292	0.0037	-0.0548	0.0105	1.5
0.0127	0.0142	-0.0788	0.0165	1.3
-0.0046	0.018	-0.075	0.0127	1.5
-0.0195	0.0165	-0.057	0.0067	1.1
-0.0473	0.0112	-0.0593	0.0022	1.3
-0.048	0.0067	-0.0383	0.0045	1.2
-0.0346	0.0082	-0.042	0.006	1.1
-0.0248	0.009	-0.054	0.0097	1.1
-0.0428	0.0112	-0.0555	0.0105	1.1
-0.0428	0.0097	-0.075	0.0067	0.9
-0.0263	0.0052	-0.0743	-0.0008	1.1
-0.027	0.0007	-0.0428	-0.0053	0.8
-0.0181	-0.0015	0.0037	-0.0046	1.1
-0.024	-0.0015	-0.0091	-0.0008	0.8
-0.012	-0.003	-0.0495	0.0007	0.9
0.0112	-0.0046	-0.0473	-0.0046	0.8
0.0082	-0.0098	-0.045	-0.0113	0.7
0.018	-0.0143	-0.0256	-0.0128	0.7
0.0315	-0.0128	-0.0038	-0.0091	0.7
0.0232	-0.0105	0.0045	-0.0053	0.7
0.0015	-0.0068	0.0157	-0.0023	0.6
-0.0158	-0.0038	0.0187	0.0015	0.6
-0.0465	-0.0008	0.0142	0.003	0.6
-0.0615	-0.003	-0.0015	-0.003	0.5
-0.0465	-0.0068	-0.0113	-0.0053	0.4
-0.0578	-0.0053	-0.0008	-0.0046	0.4
-0.0511	-0.0083	-0.0128	-0.0068	0.4
-0.003	-0.0091	-0.0188	-0.0053	0.3
0.0142	-0.0091	0.039	-0.0008	0.1
0.0075	-0.0046	0.078	0.0052	0.4
-0.0225	0.0015	0.108	0.0045	0.1
-0.039	-0.0015	0.1252	-0.0015	0.2
-0.0203	-0.003	0.1102	-0.003	0.1
0.0127	-0.0015	0.1035	0.0007	0.1
0.048	0.0067	0.075	0.0082	0.2
0.0495	0.015	0.063	0.0157	0
0.042	0.018	0.057	0.0165	0.1
0.027	0.018	0.0517	0.0142	0
0.0202	0.012	0.057	0.0082	-0.2
0.0195	0.0045	0.0585	-0.0008	0
0.0082	-0.0015	0.0787	-0.0068	-0.2
0.0037	-0.0015	0.0802	-0.003	0
0.0007	0.0015	0.0757	-0.0008	-0.3
-0.0203	-0.0008	0.0675	-0.0038	0
-0.0578	-0.0046	0.036	-0.0083	-0.2
-0.0773	-0.0038	0.0697	-0.0091	-0.2
-0.0713	-0.0023	0.1642	-0.006	-0.2
-0.039	-0.0015	0.1125	-0.0023	-0.3
-0.027	0	-0.0458	0.0015	-0.2
-0.0585	0.0007	-0.1193	0	-0.3
-0.0585	-0.0046	-0.1426	-0.0023	-0.2
-0.0181	-0.0038	-0.0953	0.0037	-0.3
0.0622	0.0022	-0.09	0.0127	-0.4
0.1365	0.0067	-0.1313	0.0217	-0.4
0.1125	0.0127	-0.1275	0.0225	-0.3
0.0555	0.0105	-0.1643	0.0135	-0.4
0.0367	0.0045	-0.1493	0.0082	-0.4
0.0292	0.003	-0.1043	0.0015	-0.5
0.039	-0.0098	-0.0518	-0.0143	-0.5
0.045	-0.0218	0.0067	-0.0218	-0.5
0.0652	-0.0218	0.003	-0.015	-0.5
0.1087	-0.0158	-0.0015	0.0015	-0.5
0.123	-0.0053	0.0015	0.0165	-0.5
0.0975	0.0045	0.0157	0.0262	-0.4
0.0862	0.0135	0.0532	0.033	-0.6
0.0705	0.0172	0.0742	0.0292	-0.4
0.0427	0.0157	0.0847	0.0217	-0.8
0.0367	0.012	0.129	0.0157	-0.5
0.033	0.0082	0.1957	0.0082	-0.6
0.0345	0.0052	0.2632	0.0045	-0.6
0.0352	0.0022	0.291	0	-0.7
0.039	0.0015	0.246	-0.0046	-0.6
0.0315	0.0015	0.1702	-0.0038	-0.7
0.0187	0.0007	0.0952	-0.0068	-0.7
-0.0008	-0.0023	0.045	-0.0105	-0.7
-0.0105	-0.0015	0.0277	-0.012	-0.6
-0.0128	0.0015	0.021	-0.0128	-0.7
-0.0165	-0.003	-0.0015	-0.0165	-0.8
-0.0068	-0.0091	-0.0233	-0.0233	-0.8
-0.0233	-0.0181	-0.033	-0.0256	-0.9
-0.0511	-0.0218	-0.045	-0.0233	-0.9
-0.0668	-0.0143	-0.0346	-0.0128	-0.9
-0.0653	-0.0008	-0.0083	-0.0038	-0.8
-0.0615	0.009	0.003	-0.0008	-0.9
-0.063	0.0067	0.0045	-0.0038	-0.7
-0.0465	0	0.0015	-0.0091	-0.9
-0.0383	-0.0023	0.036	-0.0053	-0.9
-0.0443	0.0045	0.0795	0.0022	-0.8
-0.048	0.006	0.057	-0.0053	-0.8
-0.027	-0.0046	0.0232	-0.0143	-1
-0.0346	-0.0083	0.0015	-0.0128	-0.9
-0.0465	-0.0053	-0.0173	-0.0075	-1.1
-0.0248	-0.0015	-0.0346	-0.0053	-0.9
-0.0293	-0.003	-0.075	-0.0075	-1.2
-0.0285	-0.0068	-0.1238	-0.0075	-0.9
-0.0053	-0.0091	-0.1538	-0.0091	-1
0.009	-0.0113	-0.1485	-0.0128	-1
-0.0083	-0.0098	-0.129	-0.0075	-1
-0.0158	0.0015	-0.105	0.0052	-1
-0.0046	0.0142	-0.0908	0.0142	-0.8
-0.0068	0.0157	-0.0743	0.0127	-1.1
-0.0008	0.0165	-0.0046	0.0127	-0.9
-0.0105	0.0202	0.0307	0.009	-1
-0.0518	0.0127	0.0105	0.003	-1
-0.0945	0.0022	0.0232	-0.0068	-0.9
-0.1411	-0.0091	0.0075	-0.0173	-1
-0.1988	-0.015	-0.0053	-0.0203	-1.1
-0.1883	-0.0113	0.0052	-0.0143	-1
-0.048	-0.006	0.0045	-0.0023	-1
0.084	0.0045	0.0052	0.012	-0.9
0.1237	0.0157	-0.045	0.0165	-1.1
0.0802	0.012	-0.0256	0.0067	-1
-0.0293	0.009	0.0052	0.003	-1.2
-0.0623	0.012	0.0045	0.003	-1
0.0142	0.0082	0.0277	0.0007	-1
0.0487	0.0045	0.0165	-0.003	-1.1
0.0007	-0.0015	0.0255	-0.012	-1.1
-0.0105	-0.0113	0.021	-0.0158	-1.2
0.0187	-0.0105	0.006	-0.0128	-1.1
0.0405	-0.0083	0.003	-0.0083	-1.1
0.0465	-0.0068	0.0067	-0.0046	-1.2
0.0405	-0.003	0.012	-0.0015	-1
0.0352	-0.0015	-0.0098	-0.0023	-1.4
0.027	-0.003	-0.015	-0.0038	-1.1
0.042	-0.0046	-0.003	-0.0075	-1.2
0.0435	-0.0075	0.024	-0.0105	-1.3
0.0382	-0.0068	0.0435	-0.0068	-1
0.0412	-0.006	0.0457	-0.0053	-1.2
0.0532	-0.0091	0.0405	-0.0075	-1.1
0.0555	-0.0143	0.0622	-0.0075	-1.3
0.039	-0.0128	0.1125	-0.006	-1.4
0.075	-0.0091	0.1162	0.0015	-1.3
0.1027	-0.0023	0.069	0.0112	-1.2
0.093	0.0082	-0.0165	0.0202	-1.2
0.0832	0.0127	-0.0533	0.0195	-1.4
0.072	0.012	-0.0383	0.0105	-1.3
0.0877	0.0052	-0.033	0.0052	-1.3
0.1012	0.003	0.0225	0.0067	-1.3
0.1297	0.0022	0.0922	0.003	-1.1
0.1432	-0.0038	0.1665	-0.0053	-1.3
0.0892	-0.0075	0.1875	-0.006	-1.2
0.0315	-0.006	0.0757	-0.0053	-1.3
0.0195	-0.003	-0.0008	-0.003	-1.3
0.012	-0.0008	-0.0488	0.0015	-1.3
-0.0173	0	-0.0915	-0.0008	-1.4
-0.015	-0.0015	-0.06	-0.0015	-1
0.0165	-0.0046	-0.0323	-0.0046	-1.4
0.0495	-0.0038	-0.0098	0.003	-1.1
0.0585	0.0045	-0.024	0.0172	-1.4
0.0502	0.015	-0.0488	0.0217	-1.4
0.0285	0.0165	-0.0473	0.0195	-1.4
0.015	0.0172	-0.0158	0.0217	-1.4
0.042	0.0157	0.0232	0.018	-1.4
0.0427	0.0082	0.0067	0.009	-1.2
0.0232	0.0052	0.009	0.006	-1.4
0.009	0.003	0.0165	0.003	-1.1
0.0007	0.0015	0.0232	0.0022	-1.3
-0.0053	0.003	0.033	0.0045	-1.2
-0.0233	0.0037	0.0232	0.0015	-1.3
-0.0346	0.003	0.024	0	-1.3
-0.0428	0.0045	0.0255	-0.003	-1.3
-0.0563	0.0067	0.0255	-0.003	-1.3
-0.0593	0.0052	0.0135	-0.0046	-1.1
-0.048	0.0007	0.003	-0.0105	-1.4
-0.0263	-0.0083	0.0217	-0.015	-1.1
-0.0015	-0.012	0.0622	-0.0105	-1.2
-0.0008	-0.0083	0.069	-0.0015	-1.4
-0.0105	-0.0015	0.0247	0.0045	-1.2
-0.0315	-0.0008	-0.0113	0.0022	-1.3
-0.0458	-0.0008	-0.033	0.0045	-1.1
-0.006	0.003	-0.0488	0.0075	-1.4
-0.0046	0.0045	-0.0555	0.0045	-1.1
-0.0495	0	-0.0218	0	-1.1
-0.0728	-0.0046	0.0412	-0.0038	-1.4
-0.1148	-0.0053	0.0135	-0.003	-1
-0.1298	-0.0068	-0.057	-0.0053	-1.4
-0.0893	-0.0105	-0.0555	-0.0075	-1
-0.0593	-0.0046	-0.0465	0.003	-1.3
-0.0143	0.0037	-0.0503	0.0097	-1.1
0.0202	0.0052	-0.0585	0.015	-1.2
0.0015	0.012	-0.0825	0.0232	-1.2
-0.042	0.0142	-0.108	0.0217	-1.2
-0.09	0.0097	-0.096	0.012	-1.2
-0.0938	0.0067	-0.0518	0	-1.2
-0.0706	0.0007	-0.0578	-0.0083	-1.1
-0.0458	-0.0083	-0.0256	-0.012	-1.3
0.009	-0.0075	0.036	-0.0068	-1
0.039	-0.0046	0.0562	-0.0008	-1.2
0.0397	-0.0008	0.078	0.0067	-1
0.0217	0.0067	0.072	0.0127	-1
-0.024	0.0135	0.069	0.0142	-1.1
-0.0698	0.0127	0.0742	0.009	-0.9
-0.081	0.0067	0.0937	0.003	-1.1
-0.0578	0.0052	0.186	0.0007	-0.9
-0.0308	0	0.216	-0.0053	-1
-0.0075	-0.0023	0.0915	-0.0075	-1
-0.0083	-0.0015	-0.0443	-0.0105	-1
-0.0113	-0.0053	-0.1523	-0.0105	-1
-0.0015	-0.0015	-0.2183	-0.0015	-1
-0.0285	0.0082	-0.1815	0.0082	-0.9
-0.0975	0.0105	-0.1088	0.0045	-1
-0.1043	0.0037	-0.0181	-0.006	-0.8
-0.0308	-0.006	0.099	-0.0195	-1
0.0502	-0.0165	0.177	-0.0256	-0.8
0.1402	-0.0165	0.135	-0.0105	-1
0.2047	0.003	0.039	0.0105	-0.9
0.1995	0.0202	-0.045	0.018	-1
0.1492	0.018	-0.108	0.0112	-0.9
0.123	0.0082	-0.114	0.0015	-0.8
0.1387	0.0037	-0.0998	-0.0008	-1.1
0.1387	-0.0008	-0.0803	-0.0015	-0.9
0.138	-0.0008	-0.0668	0.0022	-0.9
0.1312	0.0045	-0.0555	0.0082	-0.8
0.1155	0.0097	-0.042	0.0165	-1
0.1027	0.015	-0.0015	0.0165	-0.8
0.0735	0.0127	0.0615	0.012	-0.8
0.0727	0.0082	0.0862	0.0045	-0.7
0.069	0.0007	0.0855	-0.0075	-0.8
0.0532	-0.0068	0.06	-0.0105	-0.7
-0.0105	-0.0046	0.0405	-0.0068	-0.8
-0.0668	-0.0015	0.0165	-0.003	-0.6
-0.0758	0.0045	-0.0015	0.0015	-0.9
-0.111	0.0015	0.0105	-0.0068	-0.6
-0.0803	-0.012	0.0195	-0.0143	-0.6
-0.0668	-0.0165	0.012	-0.0113	-0.8
-0.1013	-0.0128	-0.0181	-0.0038	-0.5
-0.135	-0.0038	-0.0428	0.0037	-0.6
-0.1515	0.0045	-0.054	0.0052	-0.5
-0.1441	0.0105	-0.0765	0.012	-0.8
-0.165	0.009	-0.0825	0.0067	-0.7
-0.1905	0.003	-0.0578	0.0007	-0.7
-0.207	-0.0008	-0.027	-0.0015	-0.8
-0.2011	-0.0046	-0.0053	-0.0038	-0.6
-0.207	-0.006	0.0045	-0.0053	-0.7
-0.1868	-0.0053	0.009	-0.0091	-0.6
-0.1215	-0.0046	0.0202	-0.0046	-0.6
-0.075	0.0007	0.027	-0.003	-0.8
-0.027	0.003	0.015	-0.0015	-0.6
0.024	-0.0008	-0.0008	0.003	-0.6
-0.0113	-0.003	0.0135	0.0165	-0.6
-0.108	-0.003	0.0232	0.0217	-0.6
-0.1703	-0.0068	-0.0105	0.0172	-0.5
-0.1958	-0.0091	-0.0473	0.0157	-0.6
-0.18	-0.006	-0.0691	0.0195	-0.8
-0.0953	0.0022	-0.057	0.0262	-0.6
0.0277	0.0067	-0.027	0.0232	-0.6
0.123	0.0045	0.0022	0.0202	-0.4
0.105	0.0052	0.024	0.0127	-0.7
0.0465	0.0045	0.042	0.0045	-0.6
0.0427	0.0007	0.0615	0.0015	-0.5
0.0142	-0.0008	0.051	0.0015	-0.6
0.0165	0.0007	0.03	-0.0015	-0.5
0.0232	0.0007	0.0217	-0.0053	-0.5
0.012	-0.0008	0.0142	0.0052	-0.7
0.0195	-0.0038	0.0097	0.0142	-0.5
0.0075	-0.0068	0.0075	0.009	-0.6
-0.0015	-0.0075	0.0105	-0.0256	-0.5
-0.0128	-0.0105	0.015	-0.0518	-0.6
-0.0075	-0.012	0.0442	0.0172	-0.5
-0.0128	-0.0083	0.1162	0.0592	-0.6
-0.0195	-0.0053	0.129	0.0157	-0.7
-0.0195	-0.0015	0.0457	-0.0008	-0.7
-0.0143	0.0015	-0.0098	-0.0158	-0.8
0.06	-0.0008	-0.042	-0.0465	-0.8
0.1417	-0.0068	-0.0525	-0.0803	-0.6
0.177	-0.0053	-0.0368	-0.0285	-0.7
0.156	-0.0015	-0.0413	0.0105	-0.5
0.0967	0	-0.0383	-0.0038	-0.8
0.048	0.0082	-0.0585	0.0135	-0.6
0.0307	0.0105	-0.066	-0.0413	-0.8
0.006	0.0082	-0.0353	-0.0443	-0.6
0.0067	0.009	-0.0008	-0.0143	-0.5
0.027	0.0067	0.0202	-0.0428	-0.7
0.0285	0.0105	0.0255	-0.0653	-0.5
0.0367	0.0127	0.0367	0.0007	-0.6
0.0442	0.0052	0.0382	0.084	-0.5
0.0607	-0.0023	0.0352	0.0007	-0.6
0.0697	-0.0113	0.0367	-0.1118	-0.7
0.0802	-0.0233	0.0307	-0.1268	-0.7
0.084	-0.0293	0.0292	-0.015	-0.6
0.0675	-0.0135	0.0337	0.09	-0.6
0.0592	-0.0008	0.021	0.0532	-0.7
0.051	0.0015	-0.0053	0.057	-0.8
0.0412	0.0127	0.0135	0.057	-0.5
0.0262	0.012	0.0697	0.0195	-0.8
0.0232	0.0052	0.0765	0.015	-0.5
0.0157	0.0052	0.0277	0.0082	-0.8
0.0037	0.0067	-0.0053	0.063	-0.6
-0.0091	0.009	-0.0368	0.0622	-0.6
-0.024	0.0082	-0.0495	0.0292	-0.7
-0.0308	0.006	-0.0375	0.027	-0.5
-0.0353	0.0007	-0.0293	0.0112	-0.8
-0.0375	0.0007	-0.0181	0.0142	-0.7
-0.0443	0.0015	-0.0105	0.018	-0.7
-0.0503	-0.0008	0.003	0.0187	-0.7
-0.057	-0.0015	0.0127	0.0195	-0.5
-0.0608	-0.0046	0.0202	0.0255	-0.6
-0.0638	-0.0046	0.0217	0.009	-0.5
-0.0645	-0.0091	0.0202	-0.0473	-0.7
-0.0615	-0.012	0.0255	-0.099	-0.6
-0.06	-0.0105	0.024	-0.0706	-0.5
-0.054	-0.003	0.0255	-0.027	-0.6
-0.0495	0.0007	0.027	-0.0773	-0.5
-0.0436	0.0022	0.027	-0.054	-0.6
-0.042	0.0067	0.0255	0.042	-0.4
-0.0458	0.0105	0.021	0.0742	-0.5
-0.054	0.0142	0.021	0.0457	-0.5
-0.0615	0.0127	0.0157	0.0135	-0.5
-0.0555	0.0075	0.015	0.042	-0.5
-0.0428	0.0007	0.015	0.0307	-0.5
-0.0308	-0.012	0.0165	-0.0068	-0.5
-0.0195	-0.0248	0.0217	-0.0405	-0.5
-0.006	-0.0315	0.0352	-0.0856	-0.5
0.0202	-0.0218	0.0667	-0.0555	-0.3
0.051	-0.0105	0.102	-0.0068	-0.2
0.048	-0.0053	0.0952	-0.003	-0.4
-0.0083	0.0075	0.0382	0.0142	-0.3
-0.0353	0.0165	-0.003	0.0007	-0.4
-0.0233	0.0202	-0.039	-0.0563	-0.4
-0.0383	0.0217	-0.054	-0.0315	-0.1
-0.0518	0.0157	-0.0105	0.0195	-0.2
-0.0383	0.0067	-0.0038	0.0427	0
0.0015	-0.0046	-0.0465	0.0802	-0.1
0	-0.0053	-0.0743	0.0532	-0.1
-0.0143	-0.0023	-0.0795	0.0382	0
0.0195	-0.0046	-0.0458	-0.0256	-0.2
0.006	0.0022	-0.0143	-0.0795	-0.2
-0.027	0.0127	-0.0158	-0.0098	-0.1
-0.0053	0.009	-0.0315	-0.039	-0.1
0.0382	-0.0046	-0.0398	-0.0915	0.1
0.057	-0.0075	-0.0293	-0.1215	-0.2
0.0765	-0.003	0.0052	-0.0638	0.3
0.1042	-0.0038	0.051	-0.0008	0
0.096	-0.0068	0.06	0.0532	0.3
0.0825	-0.0098	0.0765	0.0997	0.2
0.0765	-0.0075	0.1395	-0.0128	0.1
0.063	-0.003	0.2295	-0.0346	0.3
0.0592	0.0007	0.2355	0.003	0.2
0.0495	0.009	0.1252	0.0292	0.6
0.039	0.0082	0.0315	0.093	0.3
0.0382	-0.0008	-0.033	0.075	0.4
0.0525	-0.0128	-0.0346	0.0217	0.4
0.1155	-0.0218	-0.0195	0.0217	0.6
0.195	-0.0091	-0.06	0.0067	0.5
0.1995	0.0082	-0.1193	0.012	0.6
0.1282	0.0165	-0.1493	0.0075	0.6
0.0675	0.021	-0.1065	0.0052	0.7
0.0195	0.0202	-0.0361	0.0375	0.8
-0.042	0.0142	0.0465	0.0135	0.8
-0.0856	0.0052	0.1252	0.0052	0.7
-0.0518	-0.0023	0.1612	-0.0015	0.9
0.0555	-0.0046	0.1597	-0.0375	0.9
0.129	-0.0098	0.1485	-0.1058	0.9
0.0727	-0.0113	0.12	-0.1253	0.9
0.0082	-0.006	0.084	-0.0495	0.9
0.0067	-0.003	0.0667	-0.0158	1
-0.0165	0.0007	0.0397	-0.0008	1
-0.0233	0.0067	0.0217	0.0405	1.3
-0.033	0.0135	0.0082	0.0765	1.3
-0.0443	0.0165	-0.0068	0.0952	1.2
-0.0555	0.0217	-0.0098	0.147	1.1
-0.0675	0.027	-0.006	0.1297	1.2
-0.0706	0.021	-0.0015	0.0817	1.3
-0.078	0.0007	-0.0046	0.057	1.3
-0.0788	-0.0181	-0.0098	-0.033	1.2
-0.0713	-0.0315	-0.0203	-0.1073	1.3
-0.0675	-0.042	-0.0383	-0.1988	1.1
-0.0728	-0.0263	-0.0488	-0.1065	1.5
-0.0803	-0.0046	-0.0563	0.0405	1.3
-0.0983	0.0052	-0.0743	0.018	1.5
-0.1125	0.0082	-0.078	0.0607	1.3
-0.1463	0.0037	-0.0691	0.0457	1.3
-0.195	0.0037	-0.0721	-0.0428	1.7
-0.216	0.0052	-0.0645	-0.0495	1.5
-0.2138	0.0067	-0.0473	-0.0233	1.5
-0.2033	0.0067	-0.0315	-0.0315	1.7
-0.1995	0.003	-0.027	-0.027	1.5
-0.186	0.0022	-0.0338	-0.0015	1.7
-0.1238	0	-0.0383	0.0315	1.7
-0.0383	-0.0023	-0.0503	0.0465	1.6
0.0157	-0.0053	-0.0668	0.003	1.7
0.0157	-0.0053	-0.0615	-0.0165	1.5
0.0105	-0.003	-0.0285	-0.042	1.8
0.0345	-0.006	-0.0053	-0.0503	1.6
0.0802	-0.0008	0.003	0.0255	2
0.1335	0.0157	0.0142	0.0787	1.7
0.1507	0.03	0.0255	0.0195	1.9
0.1267	0.0345	0.0292	0.0097	1.9
0.1275	0.0277	0.0127	0.0292	1.8
0.1312	0.0195	0.0082	0.018	2
0.1185	0.0127	0.036	0.0315	1.9
0.12	-0.0105	0.075	-0.0181	2
0.123	-0.024	0.0967	-0.0788	1.9
0.1335	-0.0158	0.06	-0.0848	1.9
0.1455	-0.0083	0.0105	0.018	2
0.1462	-0.003	-0.0098	0.012	1.8
0.1395	-0.0143	-0.0256	-0.0706	2
0.1395	-0.0315	-0.033	-0.09	1.7
0.1402	-0.0436	-0.0315	-0.1388	1.9
0.15	-0.0593	-0.0308	-0.078	2
0.1837	-0.057	-0.039	0.0007	1.8
0.1792	-0.0143	-0.0368	0.063	2.1
0.1132	0.0502	-0.0256	0.0007	1.9
0.0787	0.0832	-0.0181	-0.0488	1.9
0.0735	0.0892	-0.0053	0.0502	2
0.0607	0.0675	-0.0046	0.0045	2
0.0727	-0.015	-0.0046	0.0082	2
0.0682	-0.063	-0.0015	0.0787	2.1
0.0555	-0.0555	0.0142	0.1222	2.1
0.0435	-0.0405	0.03	0.1402	2.1
0.0315	-0.0203	0.033	0.0607	2.1
0.0255	-0.0225	0.039	0.0262	2.2
0.0067	-0.0315	0.0352	-0.0233	2.1
-0.0075	0	0.0322	-0.0398	2.3
-0.0195	0.0435	0.0345	-0.0863	2.2
-0.0338	0.0517	0.0352	-0.162	2.1
-0.0488	0.0502	0.0315	0.0127	2.4
-0.057	0.0442	0.0187	0.1102	2.2
-0.0691	0.0217	0.0037	0.0757	2.4
-0.078	-0.0181	0.0015	0.0007	2.2
-0.075	-0.0593	0.012	-0.045	2.4
-0.0638	-0.0608	0.0292	0.0675	2.3
-0.0728	-0.0278	0.0435	0.0952	2.5
-0.1013	0.0045	0.0345	0.0525	2.2
-0.1125	0.0127	0.0202	0.0037	2.6
-0.1185	0.0127	0.0157	-0.0375	2.4
-0.093	0.0127	0.012	-0.0593	2.4
-0.0615	-0.003	0.012	-0.075	2.5
-0.0495	-0.0165	0.009	-0.0653	2.6
-0.0315	-0.0225	0.0067	-0.006	2.6
-0.0165	-0.015	0.0315	0.084	2.7
-0.0105	0	0.1065	0.0367	2.6
-0.0353	0.0052	0.114	-0.045	2.6
-0.0346	0.0127	0.0292	-0.0053	2.7
-0.0008	0.0217	0.0022	0.0285	2.8
0.0007	0.0195	-0.0308	0.0247	2.8
-0.0203	0.0105	-0.0825	-0.0263	2.7
-0.0473	0.0022	-0.0953	-0.0675	2.8
-0.0645	-0.0015	-0.099	-0.003	2.8
-0.0668	-0.0091	-0.0713	-0.0165	2.9
-0.0615	-0.0053	-0.042	0.0127	3
-0.0353	0.0037	-0.0105	0.0667	3
0.012	0.0045	0.0067	-0.0038	3
0.048	-0.0015	0.0082	-0.0256	3.1
0.0405	0.0015	0.0375	0.0285	3.1
0.003	0.006	0.1222	0.0382	3.1
-0.0346	0.0045	0.1597	-0.0195	3.1
-0.0615	0.0142	0.066	-0.0008	3.3
-0.0706	0.033	0.027	0.0217	3.2
-0.0578	0.0435	0.0345	0.0127	3.5
-0.0518	0.033	-0.0046	-0.0105	3.2
-0.0653	-0.0075	-0.0503	-0.0218	3.4
-0.0533	-0.0578	-0.033	-0.0555	3.4
-0.0368	-0.0405	0.0165	-0.0878	3.4
-0.0675	0.0007	-0.0181	0.0382	3.5
-0.0878	-0.003	-0.0368	0.0675	3.6
-0.0338	0.0202	-0.027	-0.0308	3.5
0.081	0.0322	-0.0233	-0.0091	3.8
0.114	0.0247	-0.0203	0.036	3.5
0.0037	0.0195	-0.0203	0.0307	3.6
-0.054	0.0052	-0.0083	0.093	3.5
-0.0458	0.0082	-0.0068	0.0615	3.8
-0.0511	0.0075	0.0045	-0.0353	3.8
-0.042	0.0255	0.0007	0.0727	3.6
-0.0405	0.0285	-0.0053	0.0727	3.8
-0.0256	0.0052	-0.0083	-0.0368	3.6
-0.0165	0.0037	-0.0068	-0.0203	4
-0.0143	0.015	0.006	0.0112	3.8
-0.0128	0.0015	0.0105	0.0247	4
-0.0083	-0.0128	0.0157	-0.0975	4
0.003	-0.0053	0.0157	-0.0938	4
0.0082	-0.0091	0.0202	-0.045	4
0.0127	-0.0188	0.0157	-0.1223	3.9
0.0045	-0.0278	0	-0.0113	4
0.0097	-0.0315	-0.0135	0.087	3.9
0.012	-0.0413	-0.015	0.006	4
0.021	-0.0428	-0.0233	-0.0443	4.3
0.042	-0.0046	-0.0375	0.0832	4.1
0.051	0.0502	-0.0443	0.1065	4.3
0.0787	0.0795	-0.0668	0.0772	4.1
0.1087	0.0765	-0.0691	0.1627	4.2
0.1177	0.0465	-0.0436	0.0225	4.1
0.1215	0.0142	-0.012	-0.099	4.1
0.0862	0.009	0.0165	-0.1133	4.3
0.0412	0.0135	0.0412	-0.0105	4.2
0.0217	-0.0008	0.048	-0.003	4.3
0.0052	-0.093	0.0345	-0.1463	4.2
-0.0105	-0.2325	0.0217	-0.0315	4.1
-0.0413	-0.222	0.0007	-0.0015	4.2
-0.0706	-0.0668	-0.0068	-0.0293	4.3
-0.0735	0.054	-0.0135	-0.1688	4.3
-0.0675	0.114	-0.0315	-0.237	4.2
-0.0578	0.0667	-0.0465	-0.093	4.1
-0.048	-0.0098	-0.0473	0.027	4.3
-0.0533	-0.0308	-0.024	0.1125	4.1
-0.0615	-0.0795	-0.0135	-0.0713	4.4
-0.054	-0.0728	-0.0195	0.0007	4.2
-0.0368	-0.0443	-0.0128	0.1387	4.5
-0.0256	-0.0615	0.0345	0.0052	4.4
-0.042	-0.042	0.129	0.1222	4.4
-0.0706	-0.0038	0.1575	0.18	4.5
-0.0765	0.0285	0.0727	0.093	4.1
-0.0668	0.0322	-0.0053	-0.0015	4.3
-0.0698	0.024	-0.039	-0.0503	4.2
-0.0518	0.021	-0.0105	-0.042	4.3
-0.0248	0.0157	-0.0308	-0.0691	4.3
-0.0218	0.0345	-0.1043	0.003	4.2
-0.0346	0.057	-0.126	0.0427	4.3
-0.0578	0.0667	-0.1553	0.0495	4.3
-0.075	0.0592	-0.1028	0.0547	4.3
-0.0698	0.0427	-0.033	0.0127	4.4
-0.0256	0.03	0.0157	0.0465	4.4
0.0517	0.018	0.0742	0.0832	4.5
0.1027	0.0052	0.1447	0.063	4.4
0.105	-0.0323	0.2632	-0.0105	4.5
0.1252	-0.0443	0.2317	-0.0158	4.5
0.144	0.0165	0.1185	-0.0113	4.3
0.141	0.054	0.0502	-0.0473	4.4
0.1245	0.045	-0.0353	-0.0361	4.4
0.0885	0.0247	-0.0533	-0.1493	4.2
0.0697	-0.0008	-0.0578	-0.1006	4.4
0.0465	-0.0023	-0.057	0.018	4.3
0.0367	-0.015	-0.0323	-0.0293	4.5
0.0607	-0.0428	-0.0256	0.0292	4.3
0.1252	-0.0563	-0.0218	0.0367	4.5
0.1837	-0.0203	-0.024	0.0427	4.5
0.1822	0.0195	-0.0323	0.0787	4.5
0.1935	0.009	-0.0383	0.0315	4.5
0.201	0.0052	-0.0293	-0.0683	4.4
0.1875	0.0007	-0.0203	-0.1215	4.5
0.1635	0.0165	0.0135	-0.093	4.4
0.1267	0.0487	0.0255	-0.0555	4.5
0.1095	0.0652	0.027	0.0922	4.5
0.0997	0.0547	0.0412	0.174	4.7
0.09	0.0127	0.0337	0.1185	4.4
0.069	-0.0323	0.033	0.078	4.6
0.054	-0.0728	0.0202	-0.0983	4.4
0.0367	-0.0765	0.0067	-0.147	4.4
0.0232	-0.0818	0.0045	0.027	4.4
0.0202	-0.0675	0.0277	-0.0728	4.4
0.009	-0.0308	0.0967	-0.1065	4.4
-0.0083	-0.0323	0.1372	-0.0691	4.4
-0.0233	-0.0181	0.0945	-0.0375	4.3
-0.0105	0.0022	0.0367	0.0217	4.3
0.0082	0.012	0.0045	-0.075	4.3
0.009	0.012	-0.0143	-0.0135	4.3
-0.0165	-0.03	-0.0256	0.0345	4.4
-0.0555	-0.0256	-0.06	0.1155	4.2
-0.0818	0.012	-0.0675	0.084	4.4
-0.09	0.003	-0.0585	-0.0675	4.3
-0.0893	0.015	-0.042	-0.0053	4.3
-0.1103	0.027	0.0457	0.0052	4.3
-0.1358	0.0427	0.1515	0.096	4.2
-0.1741	0.0705	0.144	0.2017	4.3
-0.2198	0.021	0.0105	0.15	4.3
-0.195	-0.0173	-0.0893	0.0307	4.1
-0.0585	-0.0181	-0.1328	-0.1193	4.3
0.099	-0.0015	-0.1426	-0.093	4
0.0967	0.033	-0.1373	-0.1088	4.2
-0.0623	0.0097	-0.1275	-0.1515	3.9
-0.2213	-0.0278	-0.0743	-0.1635	4.1
-0.2821	-0.033	-0.039	-0.0795	4.1
-0.2798	-0.0068	-0.0053	0.0765	4.1
-0.192	0.015	0.054	0	4.2
-0.063	0.0075	0.102	0.0142	4.1
-0.0375	-0.0046	0.144	0.1035	4.1
-0.0825	-0.042	0.21	0.0765	4.1
-0.0878	-0.0998	0.273	0.1935	4.1
-0.0818	-0.15	0.225	0.135	4
-0.1006	-0.132	0.1125	0.0112	4.1
-0.111	-0.0383	0.027	0.1762	4
-0.0998	0.0315	-0.0233	0.0577	4
-0.1013	0.078	-0.045	-0.0495	3.8
-0.1508	0.123	-0.0128	-0.048	4
-0.1538	0.1267	0.0255	-0.096	3.9
-0.1021	0.117	0.0352	-0.0368	4.1
-0.0675	0.099	0.0787	-0.0915	3.8
-0.0046	0.0667	0.0817	-0.039	4
0.036	0.036	0.0082	0.042	3.9
0.0187	-0.0053	-0.0195	0.1365	3.9
0	-0.0585	-0.0218	0.1207	4
-0.003	-0.093	-0.0368	-0.0315	3.8
0.0015	-0.0668	-0.0443	0.0322	3.8
0.024	-0.0128	-0.0511	0.0577	3.8
0.1237	0.054	-0.0413	0.0165	3.9
0.1747	0.0862	-0.0563	0.1147	3.9
0.114	0.027	-0.0713	-0.0218	3.6
0.0495	-0.057	-0.0691	-0.2888	3.7
-0.03	-0.0615	-0.027	-0.2475	3.6
-0.0593	-0.0135	0.0697	-0.099	3.8
-0.0293	-0.0068	0.0712	-0.0683	3.9
-0.0075	0.0195	-0.0405	-0.0143	3.6
0.0045	0.0465	-0.1103	0.0382	3.8
0.0052	0.036	-0.114	0.0172	3.6
0.0015	0.012	-0.1313	-0.0278	3.8
0.0015	-0.0203	-0.1095	-0.048	3.7
0.0015	-0.0135	-0.0398	-0.03	3.6
-0.003	0	0.0112	-0.0233	3.8
0.0127	-0.0083	0.057	0.0202	3.6
0.0472	-0.0165	0.084	0.0232	3.6
0.0667	-0.0046	0.0772	0.042	3.6
0.063	0.0217	0.0727	0.0142	3.5
0.027	0.042	0.0675	-0.0038	3.6
-0.0203	0.0562	0.0765	0.1012	3.6
-0.0428	0.0592	0.075	0.1762	3.5
-0.0548	0.0675	0.0465	0.2332	3.5
-0.0608	0.0615	0.0262	0.009	3.3
-0.048	0.0322	0.0367	-0.1741	3.5
-0.0398	-0.0046	0.042	-0.0165	3.2
-0.0165	-0.0165	0.0007	-0.0053	3.4
0.0307	0.0052	-0.033	-0.0938	3
0.084	0.0127	-0.0563	-0.1703	3.2
0.1102	0.003	-0.0856	-0.1523	3.3
0.0592	-0.0218	-0.1058	-0.0706	3.2
-0.0083	-0.0458	-0.096	-0.0308	3.1
-0.0525	-0.039	-0.054	0.0855	3.1
-0.0885	-0.0128	-0.0368	0.072	3.1
-0.0878	0	0.0015	-0.0503	3.1
-0.0615	0.0022	0.0585	-0.0503	3
-0.0278	-0.003	0.0982	0.1102	3.1
-0.0143	-0.0105	0.114	0.1267	3
-0.0105	0.003	0.0705	0.0352	3
0.0015	0.0082	0.0255	0.0667	2.9
0.024	0.0022	-0.0195	0.0915	2.8
0.0825	-0.0015	-0.0458	0.0375	3
0.1327	0.0052	-0.0368	-0.0945	2.7
0.1485	0.0097	0.0135	-0.1575	2.8
0.1312	0.0052	-0.0046	-0.063	2.6
0.1132	0.009	-0.1006	0.1237	2.8
0.0862	0.0067	-0.0975	0.195	2.6
0.003	0.003	-0.0833	0.015	2.7
-0.0691	0.0082	-0.081	-0.0383	2.6
-0.0848	0.0135	-0.0728	0.0667	2.7
-0.0675	0.0105	-0.0458	0.0292	2.6
-0.0458	0.009	-0.0195	-0.0091	2.8
-0.0181	0.0105	-0.048	0.0127	2.6
0.0285	0.0015	-0.0503	0.027	2.8
0.0765	-0.0203	0.0015	0.0142	2.4
0.099	-0.0525	0.1395	-0.123	2.5
0.057	-0.0615	0.159	-0.2183	2.4
0.0232	-0.0308	0.093	-0.0368	2.5
0.0195	-0.0105	0.0825	0.012	2.4
0.0022	-0.0143	0.0157	-0.0938	2.3
-0.0023	-0.0135	0.0037	0	2.5
-0.0165	-0.0158	-0.0075	0.0082	2.2
0.0555	-0.0165	-0.0443	0.0217	2.4
0.1747	0.0037	-0.0195	0.0532	2.4
0.174	0.024	0.0292	0.018	2.3
0.0667	0.0337	0.03	0.0022	2.2
-0.0293	0.0292	-0.0083	-0.0518	2.3
-0.042	0.0015	0.0007	-0.0315	2.2
-0.003	-0.024	0.0165	0.0015	2.2
0.0502	-0.0278	0.024	-0.0225	2.1
0.051	-0.0188	0.0022	-0.0675	2.2
-0.0105	-0.0053	-0.0165	-0.0443	2
-0.093	-0.0091	0.0022	0.051	2.2
-0.159	-0.012	0.0195	0.1567	1.9
-0.1485	-0.0098	0.0502	0.0817	2.1
-0.0128	-0.012	0.069	-0.0091	2.1
0.0975	-0.0038	0.0892	0.021	2
0.0502	0.003	0.1305	0.012	2
-0.1028	0.009	0.1672	0.0592	1.9
-0.2333	0.0157	0.1012	0.0577	2.1
-0.2041	0.0007	0.003	0.0082	1.8
-0.0293	-0.012	-0.0405	-0.0428	1.9
0.1387	-0.0083	-0.0938	-0.0706	1.8
0.165	-0.0015	-0.132	-0.0443	1.7
0.102	0.0037	-0.1163	0.0172	1.9
0.0682	-0.0015	-0.0518	0.0885	1.8
0.042	-0.0165	-0.0495	0.0562	1.6
0.0075	-0.0308	-0.0315	-0.0346	1.9
0.0157	-0.039	0.0352	-0.0593	1.7
0.1012	-0.0308	0.0772	-0.0728	1.8
0.21	-0.0135	0.189	-0.0555	1.6
0.1387	-0.0091	0.15	0.0082	1.8
0.0075	-0.0023	-0.0091	-0.033	1.6
-0.0308	0.0022	-0.0653	-0.0533	1.5
-0.1006	-0.0015	-0.0578	-0.0495	1.5
-0.1335	0.0067	-0.0068	0.0157	1.6
-0.1485	0.0232	-0.0555	0.0862	1.6
-0.1163	0.039	-0.1125	0.0592	1.6
-0.0165	0.0405	-0.1223	0.0255	1.5
-0.0113	0.0307	-0.1365	0.0127	1.6
-0.0698	0.0202	-0.1215	0	1.4
-0.0683	0.012	-0.084	-0.0165	1.6
-0.0615	0.0075	-0.0938	0	1.5
-0.0608	0.0112	-0.1463	-0.0015	1.4
-0.0495	0.0157	-0.0645	0.0082	1.5
-0.0818	0.0165	0.0277	0.0007	1.5
-0.1238	0.012	0.0825	-0.0098	1.5
-0.1298	0.0045	0.0735	-0.0128	1.4
-0.0608	-0.0068	0.0315	-0.027	1.4
-0.0488	-0.0091	0.0645	-0.0195	1.3
-0.0878	-0.0091	0.0817	-0.0218	1.5
-0.0225	-0.0105	0.1792	-0.0248	1.3
0.1087	0.0007	0.261	-0.0361	1.4
0.2122	0.0127	0.2085	-0.027	1.3
0.165	0.018	0.1065	0.0097	1.5
0.123	0.018	0.009	0.0585	1.3
0.1162	0.0135	-0.0218	0.078	1.3
0.0532	0.0075	0.057	-0.0368	1.3
0.027	0.0015	0.0937	-0.0818	1.4
0.0607	0.0007	0.0322	-0.0113	1.3
0.1065	0.0007	0.027	-0.027	1.3
0.081	0.0022	0.0217	0.0022	1.3
0.063	0.0082	0.006	0.0105	1.3
0.063	0.0105	-0.012	0.0187	1.5
0.09	0.018	-0.0315	0.0765	1.2
0.0975	0.0277	-0.0278	0.0532	1.3
0.063	0.0195	-0.0188	-0.0383	1.3
0.0825	0.0082	0.0427	-0.045	1.3
0.1282	0.012	0.0495	0.0195	1.4
0.1545	0.0105	0.0165	0.0015	1.3
0.1627	0.0067	0.0105	0.0045	1.3
0.216	0.0045	-0.0083	-0.0113	1.3
0.2137	0.0007	-0.0323	-0.003	1.3
0.1627	-0.0008	-0.048	0.0082	1.1
0.1402	-0.012	-0.0323	-0.0068	1.1
0.1327	-0.0165	-0.0165	0.0262	1.3
0.159	-0.0083	-0.0038	0.0495	1
0.1627	0	-0.0638	0.0232	1.4
0.0937	0.009	-0.165	0.003	1.2
0.0127	0.0135	-0.1778	0.012	1.2
-0.0473	0.0105	-0.1365	-0.0068	1.3
-0.0938	0.0075	-0.0713	-0.0091	1.3
-0.1163	-0.003	-0.0143	-0.0308	1.3
-0.0975	-0.0091	0.0195	-0.024	1.3
-0.081	-0.0068	0.0195	-0.0128	1.3
-0.1088	-0.0075	0.0232	-0.0015	1.3
-0.1155	-0.0128	0.0517	0.0472	1.2
-0.1463	-0.0188	0.1162	0.0285	1.3
-0.1875	-0.0105	0.2182	-0.0008	1
-0.2175	0.0052	0.1875	0.0142	1.3
-0.2655	0.0165	0.0727	0.0382	1.2
-0.2836	0.0165	0.0052	0.0262	1.2
-0.2535	0.009	-0.0503	0.0007	1.4
-0.1988	0.0097	-0.0465	-0.0173	1
-0.1763	0.003	-0.033	-0.0308	1.3
-0.168	-0.006	-0.0848	0.0165	1.3
-0.1898	-0.0075	-0.117	0.0202	1.3
-0.2183	-0.0083	-0.1613	-0.0233	1.2
-0.1883	-0.0105	-0.1995	-0.0218	1
-0.1373	-0.0158	-0.1268	-0.0263	1.3
-0.0893	-0.0128	-0.0368	-0.0008	1.3
-0.0975	-0.0053	-0.0368	0.0502	1.1
-0.1448	0.0022	-0.0046	0.0667	1.3
-0.1913	0.0045	0.1117	0.0487	1.3
-0.2303	0.0015	0.1515	-0.0503	1.4
-0.2063	-0.0053	0.114	-0.1253	1.2
-0.1433	-0.0068	0.0742	-0.0863	1.3
-0.0908	-0.0046	0.048	-0.0525	1.3
-0.0668	0.0007	0.0352	-0.0068	1.3
-0.084	0.0075	-0.0203	0.0142	1.3
-0.1178	0.0022	-0.0338	0.0502	1.3
-0.099	-0.0008	0.0195	0.066	1.3
-0.0825	0.0082	0.0487	0.0052	1.2
-0.1426	0.0075	0.0622	0.039	1.3
-0.2183	-0.0046	0.0562	-0.0173	1.3
-0.1793	-0.0143	0.0555	-0.0218	1.3
-0.0713	-0.0128	0.0697	0.0165	1.3
0.0225	0.0007	0.0705	-0.0008	1.3
0.1125	0.009	0.0532	0.0465	1.3
0.1492	0.0075	-0.0008	0.012	1.3
0.1462	0.0082	-0.042	0.0217	1.2
0.138	0.012	-0.0225	0.0045	1.3
0.21	0.0142	-0.0068	-0.003	1.1
0.2872	0.009	-0.0068	0.0052	1.3
0.2115	0.0007	0.0142	-0.0181	1.3
0.0802	-0.0008	0.0697	0.0045	1.3
0.0045	0.003	0.1387	0.0037	1.3
-0.015	0.003	0.0772	0.0067	1.1
-0.0375	0.003	-0.057	-0.0075	1.3
-0.096	-0.0046	-0.0975	-0.015	1.2
-0.123	-0.0128	-0.1103	-0.0053	1.4
-0.0975	-0.0128	-0.1365	0.0135	1.2
-0.0458	-0.0015	-0.093	0.0045	1.2
0.0502	0.0082	0.0607	-0.0083	1.3
0.1155	0.009	0.1822	-0.0105	1.2
0.0802	0.006	0.2115	-0.0263	1.3
0.0375	0.0015	0.1792	-0.0203	1.3
0.0555	0.0052	0.0967	-0.0181	1.4
0.1687	0.0105	0.027	-0.0113	1.4
0.2902	0.0105	0.009	-0.0075	1.1
0.273	0.0195	0.0105	0.0067	1.4
0.1522	0.0217	-0.0083	0.0277	1.2
0.0735	0.0135	-0.0233	0.0472	1.3
0.0517	0.0052	-0.093	0.0157	1.3
0.0825	-0.0105	-0.1185	-0.0098	1.3
0.1897	-0.0256	-0.0443	-0.0256	1.3
0.2055	-0.0218	0.0075	-0.0608	1.3
0.1402	-0.015	0.0345	0.003	1.3
0.108	-0.0046	0.0825	-0.0263	1.3
0.0727	0.015	0.1657	-0.0256	1.4
0.033	0.015	0.2137	0.0412	1.2
-0.0008	0.0007	0.1897	-0.0203	1.3
-0.0353	-0.0091	0.1207	0.0045	1.4
-0.0375	-0.0091	0.093	0.0075	1.3
-0.0278	-0.0075	0.1005	-0.0046	1.3
-0.0608	-0.0068	0.0697	-0.0068	1.3
-0.1006	-0.0075	0.0075	-0.0278	1
-0.108	-0.0091	-0.0713	0.012	1.3
-0.0533	-0.0083	-0.1163	0.0075	1.1
0.0472	-0.0091	-0.1118	0.0127	1.5
0.084	-0.0068	-0.1043	0.012	1.2
0.0832	-0.0038	-0.0893	0.0045	1.3
0.087	-0.0046	-0.0638	0.006	1.3
0.0217	-0.0083	-0.0488	-0.006	1.3
-0.0691	-0.0158	-0.0218	-0.0053	1.2
-0.1178	-0.012	-0.003	-0.0046	1.1
-0.0735	-0.0113	0.015	-0.0038	1.2
0.066	-0.0195	0.0112	-0.0053	1.2
0.084	-0.0195	-0.0706	0.003	1.1
0.0225	-0.006	-0.1335	0.0142	1.3
0.0067	0.0105	-0.015	-0.0008	1.2
-0.0143	0.0135	0.0915	-0.024	1.2
-0.0143	0.0067	0.0517	-0.039	1.2
-0.0233	0.0015	0.0645	-0.0488	1
-0.0181	-0.0008	0.045	-0.0113	1.3
-0.0181	0.0015	0.0225	0.0675	1
-0.039	-0.0015	0.0375	0.0735	1.3
-0.078	-0.0083	0.0202	0.0495	1.2
-0.1313	-0.012	0.0787	0.024	1.1
-0.0885	-0.0143	0.1125	-0.0203	1.2
-0.024	-0.0143	0.0555	-0.0113	1.1
0.042	-0.0083	-0.0098	-0.0105	1.2
0.1282	-0.0046	-0.084	-0.0046	1.1
0.1867	-0.0046	-0.1553	0.0172	1
0.1657	0.003	-0.1298	0.0165	1.2
0.0742	0.0067	-0.0511	-0.0091	0.9
0.0052	0.0075	0.003	-0.0278	1.3
-0.033	0.009	0.0352	0.012	1.1
-0.0668	0.0045	0.0127	-0.006	1.2
-0.1208	0.0067	0.012	-0.0091	1.1
-0.1433	0.0142	0.0532	0.0067	1.1
-0.0885	0.0127	0.075	0.0052	1.2
0.0397	0.0067	0.06	0.0082	1
0.1327	-0.003	0.0255	-0.0323	1.1
0.1372	-0.0075	0.009	-0.0503	0.9
0.1485	-0.0075	0.0315	-0.039	1.2
0.18	-0.003	0.0367	-0.003	1
0.2797	0.0082	0.0045	0.012	0.9
0.4005	0.0127	-0.0195	-0.003	0.9
0.354	0.0165	-0.039	0.0067	0.9
0.1995	0.0172	-0.0518	0.0142	1
0.1065	0.0105	-0.0563	-0.003	0.9
0.069	0.0052	-0.054	-0.0091	0.9
0.0277	-0.0075	-0.0488	0.0045	1.1
-0.0773	-0.012	-0.0428	0.063	0.8
-0.2055	-0.0091	-0.0398	0.0405	1
-0.2678	-0.0128	-0.0015	-0.0203	0.9
-0.258	-0.0233	0.0517	-0.0015	0.9
-0.1118	-0.0218	0.1155	-0.0105	0.9
-0.0008	-0.0105	0.126	0.0082	0.9
-0.0008	-0.0046	-0.0248	0.0217	1
0.0487	0.0067	-0.078	0.0232	0.8
0.0855	0.009	-0.021	0.0255	0.9
0.1177	0.0105	-0.0181	0.018	0.9
0.144	0.0127	-0.0113	0.0255	0.9
0.06	0.0142	-0.0518	0.0157	0.9
-0.0818	0.0097	-0.0825	0.0105	0.7
-0.1006	0.003	-0.0548	0.003	1
-0.0443	0.0045	0.0165	-0.0015	0.9
-0.066	-0.0053	0.063	-0.015	1
-0.1508	-0.0083	0.0232	-0.0135	1
-0.2798	0.0007	-0.0143	-0.0038	0.7
-0.363	0.003	-0.06	-0.0068	0.9
-0.3383	-0.0038	-0.06	-0.0135	0.9
-0.1741	-0.0143	-0.0158	-0.0203	0.9
0.0045	-0.0075	0.0105	-0.0015	1
0.0457	0.003	0.0232	0.0045	0.9
0.0375	0.0007	0.0007	0.0015	0.9
0.0052	0.003	0.0112	0.0007	0.9
-0.075	0.0052	0.0157	-0.0068	0.9
-0.1193	0.003	0.018	-0.0105	0.9
-0.1006	0.0022	0.0345	-0.0113	0.8
-0.0608	0.0015	0.009	-0.0068	0.9
-0.0525	-0.0008	-0.0083	-0.0091	0.8
-0.0578	-0.0068	0.012	-0.0135	1
-0.0473	-0.0113	0.0697	-0.012	0.8
-0.0443	-0.0113	0.1605	-0.0046	0.9
-0.0706	-0.0068	0.2092	0.006	0.9
-0.1118	-0.0008	0.123	0.0075	0.9
-0.0953	-0.0015	0.0037	0.003	0.9
-0.0638	-0.003	-0.0653	-0.0008	0.8
-0.0225	-0.0068	-0.084	-0.0083	0.9
0.0495	-0.012	-0.0195	-0.0068	0.8
0.1252	-0.0098	-0.0015	-0.0038	0.9
0.1852	-0.0083	-0.0953	-0.003	0.9
0.1957	-0.0038	-0.153	0.003	0.9
0.1117	0.0007	-0.1313	-0.0023	0.8
0.0307	-0.0008	-0.0706	-0.0083	0.9
0.048	-0.0023	-0.0158	-0.0113	0.9
0.0982	-0.0038	-0.0128	-0.0083	1
0.135	-0.0015	0.0165	0.0045	0.9
0.0765	0.0082	0.033	0.0082	1
0.0052	0.0082	0.0457	0.0067	0.8
-0.0256	0.0082	0.1012	0.0067	0.9
-0.0803	0.0127	0.126	0.003	0.9
-0.0368	0.009	0.1365	-0.0023	0.8
0.0382	0.0082	0.162	-0.003	1.2
0.099	0.0075	0.2092	-0.0046	0.8
0.0952	0.009	0.2047	-0.003	1.1
-0.0083	0.009	0.0967	-0.0091	0.9
-0.045	0.003	-0.057	-0.0128	0.9
-0.0165	0.0052	-0.1006	-0.003	1
0.0255	0.0082	-0.0623	0.003	0.9
0.0855	0.0112	-0.06	0.0037	0.9
0.1762	0.0075	-0.0495	0.003	0.9
0.1702	0.0015	-0.0803	0.0105	0.9
0.1057	0.0052	-0.0863	0.0172	0.9
-0.0008	0.0045	-0.0533	0.0112	0.9
-0.1215	-0.0008	-0.0173	-0.0015	1
-0.105	-0.0046	0.018	-0.0083	0.9
-0.093	-0.006	0.0157	-0.0083	1.3
-0.0698	0	0.0067	-0.0068	1
-0.0293	-0.003	-0.0346	-0.0098	1.1
0.0172	-0.0143	-0.0983	-0.0165	0.9
0.0915	-0.0158	-0.18	-0.0083	0.9
0.0787	-0.003	-0.1823	0.0067	1.1
-0.0165	0.0067	-0.0818	0.0142	1.1
-0.1448	0.0127	0.0225	0.0165	1.2
-0.216	0.0127	0.09	0.009	1.1
-0.1958	0.0007	0.069	0.0007	1.2
-0.1448	-0.0053	0.027	-0.0015	1.2
-0.1118	-0.003	0.003	-0.003	0.9
-0.054	-0.0023	-0.0023	-0.0038	1.2
0.0105	-0.0008	0.042	-0.0053	1.2
0.1042	0.003	0.0802	-0.0038	1.2
0.174	0.0045	0.0442	-0.0023	1.2
0.0465	0.003	-0.0256	-0.0023	1
-0.1373	-0.0008	-0.0181	-0.0083	1.3
-0.1155	-0.0046	0.0262	-0.0113	0.9
0.042	-0.0075	0.0615	-0.0165	1.3
0.1995	-0.0091	0.0345	-0.0075	1.1
0.2985	0.003	-0.0691	0.009	1
0.2692	0.0135	-0.1185	0.0142	1.1
0.2115	0.0142	-0.1365	0.0232	1
0.0817	0.018	-0.1523	0.0255	1.1
-0.0818	0.0105	-0.1658	0.0195	1.2
-0.132	0.0075	-0.1598	0.0142	1
-0.1253	0.0112	-0.1253	0.0097	1.3
-0.1028	0.0105	-0.0825	0.0067	1
-0.0983	0.012	-0.0323	0.0045	1.3
-0.0998	0.0082	0.0022	0	1.1
-0.0788	-0.0023	0.0517	-0.0053	1.3
-0.0533	-0.0091	0.1365	-0.0068	1.2
-0.0353	-0.0105	0.1957	-0.0046	1.3
-0.0165	-0.0068	0.1177	-0.0075	1.3
0.009	-0.012	0.0217	-0.0105	1.2
0.027	-0.0113	0.0142	-0.006	1.2
0.042	-0.0068	-0.033	-0.0105	1
0.033	-0.0046	-0.057	-0.0075	1.1
0.003	-0.0008	-0.0578	-0.0008	1.2
-0.0135	-0.006	-0.0413	0	1.2
-0.0346	-0.0053	0.084	0.0082	1.2
-0.0181	-0.0008	0.2242	0.0097	1.3
0.0277	0.0007	0.1575	0.0052	1.2
0.03	0.0037	-0.033	0.003	1.3
0.0075	-0.0008	-0.1073	0.006	1.1
0.0195	0.0015	-0.1426	0.0082	1.3
0.0442	0.0037	-0.1155	0.0067	1.2
0.0405	0.0052	-0.066	0.0007	1.3
0.0345	0.0052	-0.0143	-0.0015	1.3
0.0045	0.0022	0.0787	0.003	1.3
0.0112	0.0045	0.108	0.0037	1.3
0.0727	0.003	0.0832	-0.0015	1.3
0.057	-0.0023	0.0352	-0.0068	1.3
0.0382	-0.0091	0.018	-0.0105	1.2
0.105	-0.0173	0.0067	-0.0165	1.3
0.1597	-0.012	0.003	-0.0091	1.3
0.1477	0.0037	0.0015	0.0052	1.3
0.1095	0.0135	-0.0203	0.0097	1.4
0.0817	0.0165	-0.0113	0.0097	1.2
-0.0023	0.0157	-0.0233	0.0045	1.4
-0.0683	0.0037	-0.033	-0.0046	1.3
-0.0706	-0.0015	0.0232	-0.0068	1.4
-0.057	-0.0053	0.0442	-0.0015	1.3
-0.0675	-0.0083	0.0292	0.0007	1.3
-0.1298	-0.003	0.0337	0.0007	1.3
-0.1958	-0.003	-0.0008	-0.0053	1.2
-0.273	-0.0083	-0.003	-0.0143	1.4
-0.273	-0.012	0.0157	-0.0068	1.4
-0.12	-0.0053	0.0142	0.003	1.3
0.1207	0.0015	0.024	0.006	1.3
0.2392	0.003	0.0075	0.0067	1.4
0.1462	0.0082	0.006	0.009	1.4
0.003	0.0127	0.0007	0.0142	1.3
-0.093	0.0142	0.018	0.0105	1.3
-0.156	0.0112	0.078	0.0052	1.4
-0.1793	0.009	0.1237	0	1.2
-0.1463	0.0067	0.1155	-0.0008	1.4
-0.0825	0.0045	0.0532	0.0015	1.3
0.0187	0.0015	0.0195	-0.0015	1.3
0.0922	0.0015	-0.0105	-0.0038	1.3
0.1335	0.0007	-0.0428	-0.0053	1.2
0.189	-0.0008	-0.057	0	1.6
0.18	-0.0008	-0.057	-0.0015	1.3
0.105	-0.0015	-0.0383	-0.0046	1.4
0.039	-0.0046	-0.0248	-0.0068	1.3
-0.0075	-0.006	0.0015	-0.0046	1.5
-0.057	0	0.0262	0.0052	1.4
-0.0915	0.0015	0.0472	0.0067	1.5
-0.0713	-0.003	0.0622	0.012	1.5
-0.0533	-0.0083	0.0577	-0.0083	1.4
-0.0608	-0.0135	0.0502	-0.0308	1.4
-0.0405	-0.0091	0.0517	-0.0091	1.4
0.006	-0.0046	0.0495	0.003	1.5
0.0292	-0.0023	0.0382	-0.003	1.5
0.0165	-0.0038	0.039	-0.0038	1.5
-0.0105	-0.0135	0.0217	-0.0128	1.6
0.0052	-0.0195	-0.0046	-0.0091	1.5
0.078	-0.015	-0.0346	-0.0015	1.4
0.105	-0.0068	-0.066	0.0052	1.5
0.096	-0.0038	-0.081	0.0067	1.3
0.0622	0.0015	-0.057	0.006	1.4
0.033	0.003	-0.0128	0.0045	1.4
0.0195	-0.0038	0.0045	0.0015	1.5
-0.0015	0	-0.006	0.0067	1.5
0.012	0.0082	-0.021	0.0015	1.4
0.0067	0.012	-0.0323	0.0015	1.5
-0.0173	0.012	-0.042	-0.0008	1.5
-0.0511	0.0082	-0.033	-0.0046	1.5
-0.078	0.0052	-0.015	0	1.6
-0.0488	0	0.0165	-0.003	1.5
-0.0158	-0.0053	0.0435	0.0007	1.5
-0.0308	-0.0038	0.039	0.0045	1.3
-0.0608	-0.0015	0.0307	0.0015	1.7
-0.0653	-0.003	0.0225	0.0067	1.5
-0.0555	-0.0038	0.018	0.0112	1.6
-0.039	-0.0015	0.0157	0.0082	1.7
-0.0323	-0.003	0.0007	0.0052	1.5
-0.003	-0.0015	-0.0128	0.003	1.7
0.0345	0.0045	0.0052	-0.0046	1.7
0.0502	0.0052	0.0975	-0.0091	1.5
0.036	0.0075	0.174	-0.0098	1.6
0.0195	0.009	0.102	-0.0218	1.6
0.009	0.0045	-0.0068	-0.0233	1.6
-0.0158	0.0022	-0.0518	-0.0083	1.7
-0.0075	-0.003	-0.0938	-0.012	1.6
-0.0105	-0.0046	-0.093	-0.0083	1.7
-0.0511	0.0015	-0.0473	0.054	1.6
-0.1095	0.0052	-0.0398	0.048	1.8
-0.1388	0.0105	-0.0983	0.003	1.7
-0.1335	0.006	-0.0848	0.0195	1.8
-0.1703	0.0015	0.0292	0	1.7
-0.2145	-0.0008	0.165	-0.0008	1.8
-0.1883	-0.0091	0.1837	-0.0113	1.8
-0.0893	-0.0128	0.0105	-0.0195	1.8
0.054	-0.0181	-0.0555	-0.0143	1.8
0.1762	-0.0173	-0.027	-0.0203	1.8
0.2122	-0.0091	0.018	-0.0015	1.8
0.2182	0.0052	0.1155	0.003	1.9
0.228	0.027	0.0907	0.0127	1.8
0.1297	0.03	-0.006	0.0045	1.8
-0.0728	0.0217	-0.0706	0.0007	1.8
-0.1845	0.0202	-0.1148	0.0045	1.9
-0.1335	0.0127	-0.105	0.003	1.8
0.0217	0.0105	-0.093	0.0082	1.8
0.1312	0.0052	-0.129	-0.0053	1.8
0.1125	-0.0053	-0.1208	-0.0256	1.8
0.0847	0.0052	-0.1155	-0.024	1.9
0.0465	0.018	-0.096	-0.003	1.8
-0.0053	0.0202	-0.0608	0.0247	1.9
-0.03	0.018	-0.0203	0.0367	1.9
-0.0653	0.0052	0.0352	0.042	2
-0.1006	-0.0083	0.051	0.0795	2
-0.0923	-0.0225	0.0832	-0.0346	1.9
-0.054	-0.033	0.114	-0.2123	2
-0.0143	-0.021	0.1005	-0.0706	2.2
0.0172	-0.0143	0.0127	0.0675	2.1
0.0322	-0.0218	0.0015	0.0592	2.3
0.0052	-0.024	0.1087	0.021	2
-0.0368	-0.0218	0.1447	-0.0443	2.2
-0.0503	-0.0098	0.1207	0.018	2.1
-0.0068	-0.0015	0.0787	0.0037	2.2
0.105	-0.0068	0.0442	0.0142	2.3
0.1297	-0.0075	0.0577	0.0247	2.2
0.009	-0.0068	0.0915	0.0067	2.3
-0.1043	-0.0135	0.0855	0.0075	2.1
-0.1463	-0.015	0.0345	-0.0346	2.2
-0.1133	0.0007	-0.0405	0.012	2.3
-0.099	0.0217	-0.1073	0.0217	2.2
-0.0885	0.0277	-0.1373	0.0217	2.3
-0.0346	0.0262	-0.1208	0.0307	2.2
0.0322	0.0157	-0.1118	0.0157	2.4
0.1155	0.0007	-0.1028	-0.0158	2.2
0.1357	-0.0068	-0.0691	-0.027	2.4
0.09	-0.0158	-0.0398	-0.003	2.3
-0.012	-0.0143	0.0015	-0.0203	2.2
-0.0825	-0.0091	0.003	-0.0038	2.6
-0.0706	0.0007	0.024	0.0045	2.4
-0.0075	0.0105	0.0555	0.0105	2.6
0.0645	0.012	0.0615	0.0195	2.4
0.0877	0.0105	0.0802	0.0052	2.4
0.0862	0.0015	0.0682	0.003	2.6
0.024	-0.0075	0.0487	-0.0135	2.5
-0.0323	-0.0135	0.012	-0.015	2.4
-0.027	-0.0098	-0.03	-0.0128	2.3
-0.0181	-0.006	-0.0503	-0.0091	2.5
-0.0195	-0.0113	-0.0368	-0.0083	2.5
-0.0263	-0.0098	-0.0256	-0.0015	2.3
-0.0413	0.003	-0.0346	0.009	2.6
-0.0728	0.009	-0.0188	0.0045	2.3
-0.075	0.0045	0.0517	0.003	2.6
-0.0308	0.0067	0.1612	0	2.6
0.018	0.009	0.1335	0.0022	2.5
0.0645	0.0082	0.0255	0	2.6
0.09	0.0052	-0.0293	-0.0008	2.4
0.0667	0.003	-0.09	0.003	2.6
0.0562	0.0022	-0.1028	0.0037	2.4
0.0457	-0.003	-0.09	0.0015	2.6
0.0247	-0.0083	-0.0706	-0.0015	2.6
-0.0053	-0.0015	-0.0008	0.0037	2.6
-0.039	0.0067	0.0697	0.0082	2.7
-0.0353	0.009	0.0937	0.0105	2.6
-0.0346	0.0082	0.078	0.0067	2.5
-0.0308	-0.0008	0.0615	-0.0091	2.6
0.0525	-0.0091	0.0457	-0.0353	2.4
0.15	-0.0091	0.0255	-0.0195	2.6
0.1477	0.0007	-0.0015	0.0172	2.6
0.1215	0.012	0.0202	0.009	2.6
0.0705	0.0127	0.114	0.0082	2.5
0.0495	0.012	0.1777	0.0052	2.6
0.105	0.0127	0.1162	0.003	2.6
0.0855	0.0082	-0.003	0.0067	2.6
0.0195	0.0022	-0.0691	-0.0046	2.8
0.045	-0.0046	-0.066	-0.0083	2.4
0.1162	-0.0128	-0.0645	-0.0256	2.6
0.1185	-0.015	-0.1313	-0.027	2.6
0.0682	-0.003	-0.1703	-0.006	2.6
-0.012	0.0075	-0.1883	0.0127	2.7
-0.078	0.006	-0.1133	0.03	2.6
-0.0248	0.0067	0.0195	0.066	2.6
0.0795	0.0052	0.0652	0.081	2.6
0.048	0.0045	0.0967	0.0487	2.7
-0.027	0.0075	0.0727	0.0135	2.8
-0.0383	0.0045	0.0802	-0.0691	2.6
-0.0623	0.0015	0.1162	-0.1418	2.6
-0.0795	0.0007	0.1177	-0.063	2.8
-0.0863	-0.0083	0.0667	0.0022	3
-0.0368	-0.0278	-0.0165	-0.0083	2.6
0.1687	-0.03	-0.0083	0.0652	3
0.3007	-0.0091	0.0975	0.054	2.7
0.3037	0.0052	0.1672	0.0345	2.7
0.3742	0.0172	0.0952	0.042	2.9
0.3097	0.0157	0.0367	-0.0706	2.6
0.2422	0.0022	-0.0285	-0.1441	3
0.2655	0.0082	-0.0593	-0.0833	2.9
0.2542	0.0382	-0.0383	0.063	2.9
0.3187	0.0465	-0.066	0.0915	3
0.2767	0.0195	-0.0518	0.1192	2.8
0.1702	0.0037	-0.012	0.0592	2.9
0.1027	-0.0023	0.0345	-0.0555	3
0.0082	0.0015	0.048	-0.054	3
-0.015	0.0052	0.0352	-0.063	3.1
-0.09	-0.0053	0.018	-0.0091	2.9
-0.153	-0.0083	0.0007	0.0067	3
-0.18	-0.0195	-0.003	0.0262	2.9
-0.2213	-0.024	-0.0075	0.03	3
-0.261	-0.0165	0.0112	0.0225	3
-0.3758	-0.0158	0.0172	0.0037	3
-0.492	-0.012	0.018	-0.0555	3
-0.618	-0.0091	-0.0008	-0.0181	3
-0.6855	-0.0068	-0.0256	-0.0203	3
-0.6841	-0.0181	0.0187	-0.0256	3
-0.6128	-0.027	0.1192	-0.0195	3
-0.4628	-0.03	0.1852	-0.0338	3
-0.297	-0.027	0.2197	-0.03	2.6
-0.114	-0.0233	0.2055	-0.0278	3
-0.0053	-0.015	0.0495	0.0015	2.8
-0.0346	0.0052	-0.075	0.0202	3
-0.165	0.0232	-0.0968	0.027	3
-0.2843	0.0195	-0.1403	0.012	3
-0.3203	0.0045	-0.1628	0.0082	3
-0.3015	-0.0008	-0.18	0.0105	2.9
-0.222	-0.0046	-0.1711	0.0075	3
-0.1508	0.0015	-0.111	0.027	3
-0.1741	0.0172	-0.0638	0.0292	2.9
-0.225	0.0195	-0.0285	-0.015	2.9
-0.2123	0.0105	0.0067	-0.048	3
-0.1718	0.0022	0.042	-0.0068	3.1
-0.1553	-0.0046	0.0577	0.018	3
-0.159	-0.012	0.0652	-0.0091	2.8
-0.1965	-0.0075	0.0802	-0.0233	3.1
-0.159	0.0045	0.087	0.0052	3
0.0037	0.0105	0.1282	0.0112	3.1
0.1462	0.0135	0.1845	0.0105	3
0.114	0.0105	0.1155	0.021	3.2
0.0082	0.003	0.0112	-0.0053	3
0.0007	-0.0038	-0.0046	-0.0195	3
0.0577	-0.0046	-0.0293	-0.0308	3
0.276	0.0015	-0.0195	-0.0173	3
0.5077	0.0075	0.0045	0.0015	3.2
0.4957	0.012	0.0382	0.0202	3.1
0.357	0.0195	0.0772	0.0142	3.1
0.225	0.0195	0.0817	0.0262	3.1
0.1755	0.012	0.1485	0.072	2.8
0.1665	0.0015	0.1612	0.054	3.1
0.1725	-0.0105	0.099	0.0015	2.9
0.1987	-0.0165	0.0082	-0.0353	3.1
0.2152	-0.0165	-0.1095	0.0232	2.9
0.2595	-0.0105	-0.1403	0.0562	3.1
0.27	-0.0015	-0.1553	0.0315	3
0.2377	-0.0046	-0.2235	0.048	3
0.234	-0.006	-0.2153	-0.06	3.1
0.231	0.0007	-0.1245	-0.0691	2.8
0.2152	-0.0008	-0.0848	0.0487	3.1
0.1965	-0.0083	-0.048	-0.0075	2.7
0.1747	-0.0046	-0.0098	-0.0098	2.9
0.1665	0.0097	-0.0218	0.0075	2.9
0.1627	0.0157	-0.0713	-0.0825	3
0.1447	0.0105	-0.1373	-0.0998	2.9
0.1312	0.0195	-0.0675	-0.0765	3
0.1417	0.021	0.0652	-0.0555	2.9
0.135	0.0097	0.1057	0.0292	3.1
0.111	-0.0075	0.0982	0.1597	3
0.1462	-0.0293	0.0562	0.1672	3.1
0.1837	-0.0293	0.0675	-0.0683	2.8
0.1537	-0.0098	0.1515	-0.1193	3.1
0.1162	0.0007	0.2287	0.0255	2.9
0.051	-0.003	0.201	0.0127	2.9
-0.0195	-0.0053	0.0705	0.033	3
-0.003	-0.0068	-0.0165	-0.0098	2.9
0.102	-0.0068	-0.0923	-0.0083	3.1
0.153	-0.0046	-0.1853	0.0135	3
0.0495	0.0022	-0.1935	0.0052	3
-0.0473	0.0172	-0.1088	0.0705	3
-0.063	0.0105	-0.0181	0.0157	2.9
-0.0615	0.0045	0.0412	0.0127	3.2
-0.0871	0.012	0.0907	-0.0068	2.8
-0.1441	0.012	0.1867	-0.0315	3
-0.1905	0.0105	0.2227	0.009	3
-0.2123	0	0.1005	0.0262	3.1
-0.156	-0.0053	0.0442	0.0472	3.1
-0.0465	-0.006	0.0667	0.0367	3
0.0502	-0.0068	0.1357	0.0195	3
0.096	-0.0068	0.186	-0.0195	3
0.0652	-0.006	0.0052	-0.0308	3
-0.0165	0.003	-0.1373	0.0015	2.9
-0.1485	0.012	-0.1688	0.0592	3.1
-0.2738	0.0105	-0.1785	0.0202	3.1
-0.252	0.0075	-0.1418	0.0487	3.1
-0.123	0.006	-0.1478	0.1245	3.2
-0.042	-0.0046	-0.093	-0.0848	3.1
-0.105	-0.003	-0.0405	-0.1958	3
-0.2535	0.0037	-0.0105	-0.0758	3.1
-0.3105	-0.006	0.045	-0.1035	3
-0.2798	-0.0113	0.0367	-0.1088	3.3
-0.234	-0.0105	0.0217	-0.0488	2.9
-0.1485	-0.0053	0.018	-0.0608	3.1
-0.0795	0.0082	0.0217	-0.0038	3.1
-0.114	0.021	0.0202	0.0465	3
-0.1403	0.0172	0.0052	0.057	3.1
-0.099	0.009	0.0285	0.036	3.1
-0.096	0.0142	0.0577	0.0232	3.2
-0.0503	0.0082	0.0667	0.033	3.1
0.0217	-0.003	0.0742	0.0352	3.2
0.048	-0.0098	0.0615	0.0075	3
0.1245	-0.0113	0.0457	-0.0053	3
0.2032	-0.0083	0.0412	0.018	3.1
0.1852	-0.0135	0.0307	0.0052	3
0.093	-0.0038	0.0135	0.021	3.1
-0.0068	0.0067	-0.0195	-0.0008	3
-0.0863	0.009	-0.0525	-0.039	3.1
-0.1365	0.0105	-0.0585	-0.0195	3.1
-0.0533	0.003	-0.033	-0.0105	3
0.1327	-0.0068	-0.0008	-0.0315	3.1
0.2437	-0.0143	0.0165	-0.0578	3.1
0.1912	-0.0105	0.0277	-0.042	3.1
0.0787	0.0067	0.0232	0.0067	3.2
-0.0015	0.009	0.015	0.1147	3.4
-0.045	0.0015	0.0067	0.1192	3.3
-0.0615	0.0052	-0.0023	-0.0278	3.1
-0.0998	0.0082	0.0015	-0.0803	3.2
-0.1365	0.0127	0.0022	-0.0728	3.2
-0.2026	0.0195	-0.003	0.0442	3.1
-0.2438	0.0202	-0.0083	0.1672	3.4
-0.1995	0.012	-0.0128	0.1215	3.1
-0.1223	0.003	-0.0143	0.0495	3.3
-0.054	-0.0046	-0.0173	-0.0518	3.1
-0.0346	-0.012	-0.0158	-0.1028	3.2
-0.0691	-0.0053	-0.0128	-0.0165	3.2
-0.1043	0.0037	-0.0135	0.0832	3.2
-0.105	-0.0008	-0.0128	0.0555	3.4
-0.0953	-0.0135	-0.0195	-0.039	3.1
-0.0653	-0.0256	-0.0361	-0.0593	3.4
-0.0225	-0.033	-0.0383	-0.1178	3.2
0.0067	-0.021	-0.0158	-0.1163	3.5
0.006	-0.0023	-0.003	-0.0143	3.2
-0.0053	-0.003	-0.0135	-0.0346	3.4
-0.0015	-0.0015	-0.0308	-0.0091	3.5
0.0135	0.0052	-0.0458	0.051	3.4
0.0352	-0.0008	-0.045	0.0442	3.5
0.0427	-0.0046	-0.0368	0.0337	3.5
0.0307	-0.0008	-0.03	0.0007	3.4
0.0255	0.0037	-0.0346	0.0015	3.6
0.0532	0.0045	-0.0443	0.0105	3.4
0.0952	-0.003	-0.045	-0.0046	3.5
0.114	-0.0091	-0.0428	-0.0368	3.5
0.1252	-0.0165	-0.033	-0.0623	3.6
0.1462	-0.0256	-0.0218	-0.0128	3.6
0.165	-0.0158	-0.0165	0.0007	3.6
0.1725	-0.003	-0.0053	-0.0698	3.6
0.1822	0.003	-0.0008	-0.0293	3.4
0.1785	0.0135	0.0022	0.0555	3.7
0.1672	0.021	0.0142	0.207	3.8
0.1755	0.0232	0.015	0.2152	3.8
0.1747	0.0195	0.0022	0.0465	3.8
0.1665	0.0105	-0.0135	-0.0608	3.6
0.1642	0.0097	-0.0248	-0.1238	4
0.1575	0.0225	-0.0256	0.0015	3.7
0.1537	0.024	-0.0293	0.0187	3.7
0.132	0.0097	-0.0473	0.015	3.8
0.108	-0.0023	-0.063	0.024	3.8
0.0945	-0.0158	-0.063	-0.0443	3.9
0.0615	-0.024	-0.0518	0.0045	3.7
0.0232	-0.0218	-0.0503	-0.0068	3.9
-0.0135	-0.0098	-0.0856	-0.0023	3.9
-0.0518	-0.0083	-0.1103	-0.0165	4.1
-0.0825	-0.0105	-0.0593	-0.0256	3.9
-0.129	-0.0091	0.0015	-0.0195	4
-0.159	-0.0135	0.042	-0.0203	4
-0.105	-0.0091	0.0765	0.0045	4
-0.0256	-0.006	0.0742	-0.0068	3.9
0.033	-0.0068	0.084	-0.0008	4.1
0.0435	-0.006	0.099	-0.0068	3.9
0.033	-0.0023	0.1245	0.0015	4
0.0165	0.003	0.1687	0.0067	3.8
-0.0308	0.0045	0.168	0.0112	4
-0.0503	0.006	0.138	0.009	4
-0.0735	0.006	0.1005	-0.0225	4.1
-0.0968	0.0112	0.0727	-0.0143	4
-0.1035	0.0172	0.063	0.0045	4.1
-0.1088	0.0217	0.0697	0.0135	4.2
-0.108	0.03	0.0855	0.024	4.1
-0.1043	0.0315	0.1065	0.0112	4.2
-0.1021	0.03	0.126	0.0067	4.1
-0.1283	0.0285	0.1537	0.018	4.3
-0.1373	0.0217	0.2377	0.0487	4.1
-0.1178	0.0142	0.2805	0.0705	4.3
-0.0893	0.012	0.1822	-0.0405	4.2
-0.0278	0.0037	0.0982	-0.0945	4.3
0.0442	-0.0113	0.0697	-0.0225	4.5
0.0832	-0.0195	0.0457	-0.0233	4.4
0.0442	-0.0188	0.0442	-0.0008	4.5
-0.012	-0.0135	0.0247	0.0127	4.6
-0.0615	-0.0173	0.0337	0.006	4.4
-0.099	-0.0181	0.0502	0.0232	4.5
-0.0765	-0.0143	0.0517	0	4.5
-0.0256	-0.0091	0.0787	0.0052	4.7
0.027	-0.0053	0.0855	-0.0015	4.6
0.0352	-0.006	0.0705	-0.0053	4.7
0.0127	-0.0038	0.0667	-0.0023	4.8
0.0172	-0.0038	0.0592	-0.0053	4.8
0.0105	-0.0008	0.0375	0.0015	4.8
-0.0015	-0.003	0.0142	-0.0046	4.9
0.1657	-0.0046	-0.0128	0.0022	4.8
0.4837	0.0015	-0.0405	0.0045	5.1
0.609	0.0045	-0.0623	0.0052	4.9
0.4702	0.003	-0.0818	0.0045	5
0.3322	-0.0046	-0.105	0.0007	5.1
0.336	-0.0083	-0.1381	-0.0015	5
0.315	-0.0105	-0.1538	0.0015	5.2
0.261	-0.012	-0.1538	-0.0008	5.2
0.2437	-0.0128	-0.1426	-0.0181	5.3
0.252	-0.0143	-0.1268	-0.0256	5.3
0.243	-0.012	-0.1065	-0.0218	5.5
0.18	-0.015	-0.09	-0.0188	5.4
0.0967	-0.0143	-0.0878	-0.0165	5.7
0.0337	-0.0083	-0.081	-0.0128	5.5
0.0007	-0.0075	-0.078	-0.0165	5.5
-0.0181	-0.0083	-0.078	-0.0143	5.5
-0.0015	-0.0053	-0.0833	-0.0135	5.7
-0.021	0.003	-0.0968	-0.0113	5.5
-0.0735	0.0082	-0.0915	0.003	5.5
-0.1088	0.0097	-0.078	0.0045	5.3
-0.1365	0.003	-0.0713	0.0165	5.6
-0.1613	-0.0046	-0.0698	0.054	5.4
-0.1898	-0.006	-0.0638	0.063	5.5
-0.2033	-0.0098	-0.0593	0.0405	5.4
-0.2115	-0.0083	-0.0638	0.0142	5.5
-0.21	0.0007	-0.0713	-0.0113	5.6
-0.2198	0.003	-0.075	-0.0181	5.5
-0.237	0.0052	-0.0638	0	5.6
-0.2558	0.0067	-0.0488	0.0052	5.6
-0.2768	0.0067	-0.0225	-0.0015	5.7
-0.2783	0.012	-0.0053	-0.0015	5.6
-0.2828	0.012	-0.0023	-0.0158	5.6
-0.2715	0.0105	0.015	-0.0181	5.8
-0.264	0.0127	0.0217	-0.0135	5.8
-0.2603	0.012	0.0315	-0.0105	5.8
-0.2483	0.0105	0.0427	-0.0046	5.8
-0.2513	0.012	0.0465	-0.0008	5.6
-0.2408	0.0142	0.0555	0.0067	6
-0.2325	0.0195	0.0555	0.0105	5.7
-0.2303	0.03	0.0622	0.0105	5.8
-0.2198	0.0337	0.0712	0.0052	5.8
-0.2123	0.0315	0.081	0.0082	5.9
-0.2026	0.027	0.0915	0.0217	5.7
-0.1988	0.0165	0.09	0.0367	5.8
-0.1935	-0.003	0.09	0.0075	5.9
-0.165	-0.0225	0.09	-0.0256	6.1
-0.1403	-0.0308	0.0885	0.0007	5.9
-0.1388	-0.0293	0.0802	0.0015	6.1
-0.1388	-0.0285	0.0622	-0.0323	5.7
-0.1043	-0.0293	0.0397	-0.0608	6.2
-0.0878	-0.0256	0.0292	-0.0788	6
-0.1118	-0.0203	0.0442	-0.0465	6.3
-0.1388	-0.0053	0.0637	0.0142	6.1
-0.1763	0.0067	0.0667	0.0195	6.1
-0.2063	0.0082	0.0547	0.0007	6.1
-0.2325	0.0097	0.0457	0.027	6
-0.2453	0.0082	0.0427	0.0277	6.3
-0.2408	0.0022	0.0442	0.0157	6.1
-0.2325	-0.0015	0.0442	-0.0046	6.3
-0.2183	0.0045	0.0382	-0.024	6.2
-0.207	0.0007	0.0247	-0.1058	6.2
-0.1898	-0.0083	0.0112	-0.156	6.1
-0.1673	-0.0083	0.0067	-0.0158	6.3
-0.1148	-0.0195	0.0105	0.1012	6.2
-0.048	-0.0308	0.0157	0.0885	6.3
-0.0135	-0.0225	0.0157	0.0457	6.2
0.0255	-0.0083	0.012	0.0382	6.3
0.0592	-0.0098	0.012	0.0075	6.1
0.0757	-0.0195	0.0157	-0.033	6.3
0.0937	-0.0218	0.0082	-0.0315	6.1
0.1042	-0.0128	0.0045	-0.0113	6.1
0.1252	-0.003	0.0075	-0.0128	6.1
0.1477	-0.0046	0.0022	-0.0315	6
0.1665	-0.003	-0.0053	-0.0068	6.1
0.1882	0.009	-0.0091	0.0052	5.9
0.2542	0.024	-0.0143	0.0277	6.2
0.3585	0.0292	-0.0225	0.0435	6
0.4447	0.0232	-0.0315	0.0277	6.1
0.4815	0.0165	-0.0346	0.0067	6.1
0.4837	0.0127	-0.0181	-0.0038	6.1
0.4747	0.0165	-0.0158	0.0232	6.3
0.4297	0.018	-0.0165	0.027	6.1
0.3562	0.0157	-0.0195	0.021	6.3
0.3112	0.0217	-0.0338	0.024	6.3
0.282	0.0247	-0.0668	0.0405	6.2
0.234	0.0217	-0.129	0.063	6.4
0.234	0.0172	-0.1185	0.057	6.3
0.261	0.0097	-0.0533	0.0202	6.5
0.3172	0.003	-0.0165	-0.0713	6.4
0.4057	0.0052	0.0255	-0.0871	6.5
0.4515	0.0187	0.0375	0.0067	6.7
0.48	0.0202	0.0232	0.009	6.5
0.4447	0.015	0.0195	0.0082	6.7
0.3427	0.0292	0.0105	0.0255	6.7
0.219	0.048	0.0142	0.0097	6.7
0.1297	0.0487	0.027	0.0165	6.7
0.0885	0.0405	0.0142	0.0007	6.8
0.057	0.0277	-0.0165	0.0007	7.1
0.0622	-0.0023	-0.0323	-0.0143	6.8
0.0442	-0.0278	-0.0443	-0.0203	7.2
0.0442	-0.021	-0.0495	-0.0203	6.9
0.0435	-0.0256	-0.0488	-0.033	7.1
0.018	-0.057	-0.0525	-0.0293	7.1
0.0015	-0.0706	-0.0555	-0.0263	7.1
-0.0555	-0.048	-0.0473	-0.0128	7.3
-0.0758	-0.0353	-0.0293	-0.0135	7.2
-0.093	-0.0428	-0.0181	-0.0091	7.3
-0.1313	-0.0315	0.0022	-0.0068	7.2
-0.1253	-0.0256	0.0345	-0.0053	7.6
-0.1178	-0.0188	0.0787	0.0015	7.6
-0.1298	-0.0083	0.1132	0.0022	7.5
-0.1493	-0.0091	0.1065	-0.0023	7.5
-0.1658	-0.0083	0.0877	-0.0083	7.6
-0.1838	-0.0113	0.0615	0.0007	7.8
-0.207	-0.0053	0.042	0.009	7.6
-0.2528	0.009	0.0292	0.0187	7.7
-0.291	0.0292	0.0195	0.0195	7.8
-0.2948	0.0352	0.0165	0.0157	7.6
-0.3023	0.0307	0.0165	0.0142	7.8
-0.2978	0.027	0.0202	0.0097	7.9
-0.2888	0.0165	0.018	0.0105	7.9
-0.2918	0.0082	0.0157	0.012	7.9
-0.2798	-0.027	0.018	0.0142	7.7
-0.2745	-0.0638	0.0262	0.0165	8
-0.2693	-0.0263	0.033	0.018	8.1
-0.2618	0.0195	0.0382	0.0105	8
-0.261	0.0307	0.0442	0.0007	7.8
-0.24	0.0555	0.0517	-0.0015	7.9
-0.2085	0.0652	0.054	0.0045	8
-0.1748	0.0742	0.0532	0.0292	8
-0.1358	0.081	0.0502	0.039	7.9
-0.0953	0.0712	0.048	0.0187	8
-0.0525	0.069	0.048	-0.0113	7.9
-0.012	0.0142	0.0457	-0.0578	8
0.0292	-0.0795	0.0382	-0.0885	8
0.0705	-0.099	0.0285	-0.0518	8.2
0.108	-0.0773	0.018	-0.0181	8.2
0.1395	-0.0856	0.0067	-0.012	8.1
0.1672	-0.0361	-0.0015	0.0067	8
0.1912	0.0127	-0.012	0.003	8.1
0.21	0.048	-0.024	0.006	8.1
0.225	0.1177	-0.033	0.021	8.1
0.2377	0.1072	-0.0413	0.0195	8.1
0.2482	0.048	-0.0495	0.012	8.1
0.2565	-0.0218	-0.0555	-0.0008	8.1
0.2587	-0.0293	-0.054	-0.0165	8.2
0.2535	-0.0248	-0.0525	-0.0315	8.1
0.246	-0.0788	-0.0488	-0.0135	8.4
0.2392	-0.1215	-0.0428	0.006	8.2
0.231	-0.1913	-0.0428	0.009	8.3
0.219	-0.177	-0.0413	-0.0023	8.4
0.2047	-0.0878	-0.0346	0.009	8.2
0.1905	-0.0278	-0.0315	0.0142	8.3
0.1777	0.0097	-0.0278	-0.012	8.1
0.1665	0.018	-0.0233	-0.0143	8.5
0.1545	0.0367	-0.0173	-0.0181	8.3
0.1417	0.0412	-0.0105	-0.0083	8.5
0.129	0.045	-0.0091	-0.0046	8.5
0.117	0.0615	-0.0083	0.0067	8.6
0.105	0.0405	-0.0068	0.0082	8.6
0.0952	0.0007	-0.0098	0.0022	8.7
0.084	0.0165	-0.0105	0.027	8.6
0.0735	0.069	-0.0098	0.0412	8.8
0.0615	0.0757	-0.0128	0.0277	8.6
0.054	0.0975	-0.0165	0.0127	8.9
0.0457	0.144	-0.0158	0.0232	8.7
0.0367	0.1455	-0.0165	0.0202	9
0.027	0.114	-0.0225	0.0217	8.9
0.018	0.063	-0.033	0.024	9
0.0127	-0.0503	-0.0361	-0.0068	8.9
0.0045	-0.1155	-0.0315	-0.0533	8.9
0.0007	-0.081	-0.0315	-0.0368	9
-0.0046	-0.099	-0.0285	0.0052	8.9
-0.0091	-0.048	-0.0256	0.0217	9.1
-0.0105	0.045	-0.0263	0.0307	9.1
-0.0143	0.0195	-0.021	-0.0053	9.3
-0.0165	-0.003	-0.0143	-0.0203	9.3
-0.0195	-0.012	-0.0068	-0.0143	9.3
-0.0218	-0.0128	-0.0023	0.0075	9.3
-0.024	-0.015	0.0045	0.0427	9.5
-0.033	-0.0346	0.0127	0.0787	9.5
-0.048	0.0097	0.0187	0.1065	9.7
-0.0578	0.084	0.0217	0.0825	9.4
-0.063	0.1305	0.0195	0.0555	9.8
-0.0638	0.156	0.0217	0.018	9.6
-0.066	0.1147	0.0255	-0.0113	9.8
-0.0728	0.048	0.0292	-0.0105	9.8
-0.0773	0.0712	0.033	-0.027	9.8
-0.0803	0.0945	0.0352	-0.0563	9.9
-0.0856	0.0727	0.0412	-0.084	9.9
-0.0893	0.1035	0.0435	-0.0938	9.9
-0.0915	0.0142	0.042	-0.1118	10
-0.0968	-0.1741	0.0352	-0.135	10
-0.105	-0.1335	0.0225	-0.1178	10.2
-0.1133	-0.1125	0.0127	-0.1103	10.1
-0.129	-0.2498	0.009	-0.0915	10.5
-0.1441	-0.2753	0.012	-0.0353	10.3
-0.159	-0.2858	0.0165	-0.0361	10.4
-0.1658	-0.3128	0.0202	-0.0285	10.5
-0.1726	-0.2295	0.0225	0.0202	10.5
-0.1815	-0.1778	0.0217	0.045	10.7
-0.1868	-0.1995	0.018	0.0375	10.6
-0.1898	-0.147	0.0195	0.0232	10.6
-0.1928	-0.0608	0.0225	0.0217	10.6
-0.1958	0.075	0.024	0.027	10.8
-0.1958	0.171	0.0232	0.0315	10.8
-0.1935	0.1732	0.024	0.0195	10.7
-0.192	0.147	0.0292	0.0277	11
-0.1898	0.084	0.0337	0.0375	11.1
-0.1883	0.117	0.0352	0.042	11
-0.1853	0.1395	0.033	0.033	11.2
-0.1785	0.1027	0.033	0.0157	11.1
-0.1711	0.1102	0.0315	0.0165	11.3
-0.1628	0.108	0.0262	-0.003	11.2
-0.156	0.0547	0.0232	-0.003	11.5
-0.1448	0.0045	0.0202	0.015	11.6
-0.135	0.0675	0.0165	0.0232	11.6
-0.126	0.0922	0.009	0.0382	11.6
-0.1163	0.009	0.0037	0.0202	11.6
-0.108	-0.0691	-0.0008	-0.003	11.8
-0.0945	-0.0668	-0.0083	-0.0353	11.7
-0.0848	-0.0413	-0.0105	-0.0488	11.7
-0.0758	-0.0165	-0.0143	-0.0158	11.8
-0.063	-0.0046	-0.0165	-0.0015	11.8
-0.0503	-0.096	-0.0181	0.0157	11.9
-0.0361	-0.1088	-0.0195	0.0142	12
-0.0233	-0.114	-0.0173	0.0127	12.1
-0.0105	-0.0915	-0.0173	0.0157	12.2
0.0045	-0.0105	-0.0188	0.0345	12.3
0.0195	-0.024	-0.021	0.081	12.5
0.0352	-0.0046	-0.0188	0.0307	12.4
0.0465	-0.012	-0.015	0.0022	12.4
0.0555	-0.0068	-0.0165	0.0292	12.5
0.0652	0.0037	-0.0165	-0.0405	12.5
0.075	0.0097	-0.0188	-0.0458	12.6
0.0847	0.0607	-0.024	0.0022	12.6
0.0937	0.0682	-0.0218	0.012	12.9
0.1012	0.0727	-0.021	-0.0023	13
0.108	0.0607	-0.024	-0.0008	12.9
0.1132	0.0555	-0.0256	0.0097	13
0.1162	0.0532	-0.021	0.0105	13
0.1222	0.0487	-0.0165	0.0382	13.4
0.1282	0.0607	-0.0135	0.0202	13.3
0.1267	0.063	-0.0091	0.048	13.4
0.1237	0.0555	-0.0083	0.1087	13.5
0.1237	0.0322	-0.0083	0.096	13.5
0.1192	0.0247	-0.0083	0.0787	13.7
0.1162	0.0007	-0.0023	0.0382	13.5
0.1117	-0.0075	0	-0.0143	13.8
0.1057	0.0052	0.0022	-0.057	13.8
0.0967	0.0007	0.0045	-0.0713	14
0.0922	-0.0038	0.0007	-0.0691	14
0.0877	-0.0436	0.0007	-0.108	14.1
0.0787	-0.0683	0.0015	-0.0856	14.3
0.0727	-0.0278	0.0045	-0.0315	14.3
0.0637	0.0547	0.0135	-0.0398	14.4
0.0585	0.1042	0.0195	-0.0308	14.5
0.057	0.1612	0.021	-0.0218	14.5
0.0562	0.3435	0.0255	-0.0046	14.7
0.0532	0.3967	0.0322	0.0165	14.7
0.0465	0.1972	0.0337	0.0037	14.8
0.0457	0.0915	0.0322	0.018	14.9
0.0405	0.1417	0.0292	0.0412	15.1
0.039	0.2347	0.024	0.0637	15.3
0.036	0.3097	0.024	0.078	15.2
0.033	0.1485	0.0157	0.015	15.4
0.0315	-0.0863	0.0037	-0.0511	15.4
0.0247	-0.114	-0.003	0.0195	15.6
0.0225	-0.1223	-0.0143	0.0427	15.5
0.0232	-0.3218	-0.0225	-0.0353	15.6
0.0202	-0.6173	-0.027	-0.0068	16
0.0202	-0.6105	-0.0278	0.0075	15.8
0.0165	-0.3308	-0.0256	-0.0555	16
0.012	-0.159	-0.0218	-0.1125	16.1
0.0097	-0.114	-0.0181	-0.1095	16.2
0.0067	-0.2295	-0.0188	-0.0713	16.3
0.0022	-0.3173	-0.0173	-0.0315	16.3
-0.0023	-0.2528	-0.0181	0.0105	16.5
-0.0046	-0.1823	-0.021	0.006	16.4
-0.0091	-0.096	-0.0195	-0.0263	16.7
-0.0128	-0.042	-0.0181	-0.0525	16.7
-0.0181	0.006	-0.0143	0.0037	16.9
-0.0233	0.048	-0.0113	0.0555	17
-0.024	0.0615	-0.0105	0.054	17
-0.0278	0.0615	-0.0083	0.054	17.2
-0.03	0.0555	-0.0046	0.0292	17.1
-0.0338	0.0577	-0.0015	0.018	17.5
-0.0375	0.0847	-0.0015	-0.0023	17.5
-0.0405	0.1312	0.0022	-0.0181	17.5
-0.0465	0.075	0.006	-0.0143	17.8
-0.0495	0.0345	0.0067	0.0007	17.7
-0.0518	0.0742	0.009	0.0052	18
-0.054	0.0922	0.0097	-0.003	18
-0.054	0.1215	0.0082	0.0067	18.1
-0.0563	0.15	0.0067	0.015	18.4
-0.0585	0.1987	0.0082	0.0517	18.1
-0.0585	0.1875	0.0082	0.0652	18.4
-0.0593	0.1222	0.0082	0.021	18.4
-0.063	0.123	0.0105	0.0457	18.6
-0.0668	0.1245	0.0127	0.1102	18.6
-0.0668	0.057	0.015	0.087	18.7
-0.0668	-0.06	0.0135	0.0292	18.9
-0.0698	-0.0765	0.0142	-0.0465	18.9
-0.0691	-0.0083	0.012	-0.0315	19
-0.0675	0.009	0.0112	0.018	19.2
-0.066	0.0082	0.012	-0.0428	19.2
-0.0615	-0.006	0.0097	-0.0511	19.4
-0.057	-0.0218	0.0105	-0.0848	19.3
-0.0488	0.0067	0.0105	-0.075	19.6
-0.0428	0.0262	0.0105	-0.0053	19.5
-0.033	0.018	0.012	-0.03	19.8
-0.0256	0.0015	0.012	-0.063	19.8
-0.0195	-0.0015	0.0105	-0.0143	20
-0.0091	0.024	0.0082	0.0457	20.1
0.003	0.0375	0.012	0.0195	20
0.0142	0.042	0.015	0.024	20.4
0.0255	0.0555	0.0142	-0.0105	20.2
0.039	0.0915	0.018	-0.0046	20.4
0.0532	0.1485	0.021	0.0232	20.5
0.0622	0.165	0.0195	0.0097	20.6
0.0742	0.1162	0.0202	0.0345	20.7
0.084	0.12	0.0195	0.03	20.9
0.0907	0.207	0.0195	0.0345	20.8
0.1005	0.1507	0.021	0.0382	21.1
0.1102	-0.0743	0.0232	0.0135	21
0.114	-0.252	0.027	-0.0511	21.3
0.117	-0.2723	0.0292	-0.0555	21.1
0.123	-0.3128	0.0292	-0.0181	21.5
0.129	-0.3143	0.027	-0.0128	21.3
0.1327	-0.1665	0.0255	0.0157	21.5
0.1372	-0.1823	0.0277	0.0277	21.6
0.138	-0.1763	0.027	0.0097	21.7
0.138	-0.093	0.024	-0.0135	21.9
0.1372	-0.0758	0.0262	-0.0233	22
0.1357	-0.0181	0.0277	0.0007	22
0.1342	-0.0083	0.0277	0.0367	22
0.1297	0.0142	0.0247	0.018	22.2
0.1252	0.0345	0.027	-0.0083	22.4
0.1185	0.063	0.027	0.0277	22.4
0.1117	0.0922	0.024	0.048	22.7
0.1057	0.1005	0.0255	-0.0068	22.5
0.0982	0.1567	0.0232	-0.0458	22.7
0.093	0.1312	0.0217	-0.0548	22.8
0.084	0.0165	0.024	-0.0833	22.8
0.0742	-0.027	0.0217	-0.0773	22.9
0.0675	-0.0135	0.0187	-0.0068	23
0.063	0.0007	0.0165	0.0517	23.2
0.0547	0.0787	0.0127	0.0195	23.3
0.0457	0.1537	0.0112	-0.0338	23.2
0.0375	0.1537	0.006	-0.0908	23.4
0.0285	0.1425	0.0007	-0.0503	23.4
0.021	0.1372	-0.006	0.0495	23.5
0.0165	-0.1253	-0.0278	0.0172	23.6
0.0075	-0.444	-0.0721	-0.024	23.6
-0.0008	-0.2873	-0.1485	-0.0105	24
-0.0098	-0.075	-0.2265	0.093	23.8
-0.0158	-0.0765	-0.2423	0.0817	24.1
-0.0233	-0.063	-0.1883	-0.0795	24
-0.033	-0.1515	-0.1163	-0.0706	24.3
-0.048	-0.1523	-0.0548	-0.0105	24.5
-0.0743	-0.0353	0	-0.0091	24.5
-0.1043	0.129	0.0382	0.0037	24.6
-0.1313	0.3135	0.0645	0.0495	24.6
-0.1613	0.2257	0.0765	0.009	24.9
-0.1905	0.1987	0.0742	0.0142	24.7
-0.2041	0.2902	0.0637	0.1042	24.9
-0.2011	0.2145	0.054	0.12	25
-0.1793	0.0772	0.0495	0.0637	25.2
-0.135	-0.1538	0.0465	-0.0165	25.2
