File Name: dePie.log
Channel 4: 'Recto Femoral', 43693 values, engineering units: mV, no filters.
Channel 5: 'Biceps Femoral', 43693 values, engineering units: mV, no filters.
Channel 6: 'Vasto Medial', 43693 values, engineering units: mV, no filters.
Channel 7: 'EMG Semitendinoso', 43693 values, engineering units: mV, no filters.
Channel 8: 'Flexo-Extension', 43693 values, engineering units: deg, no filters.

0.0157	0.0007	0.0015	0.0075	1.1
0.0375	0.009	0.0105	0.0142	1.1
0.0637	0.012	0.0232	0.0165	1
0.0667	0.0127	0.0352	0.0172	1.1
0.0427	0.0105	0.027	0.015	0.9
0.0262	0.0075	-0.0015	0.0127	1.1
0.012	0.0052	-0.0308	0.009	1.2
-0.0098	0.0052	-0.0405	0.0052	0.9
-0.027	0.003	-0.03	0.0015	1
-0.024	0.0022	-0.0105	-0.0008	0.8
-0.0143	-0.0023	0.0052	-0.0083	1.3
0.0015	-0.0053	0.0105	-0.012	0.9
-0.003	-0.0053	0.0105	-0.0091	1.3
-0.0263	-0.003	0.0022	-0.0075	1
-0.0443	-0.0015	0.0127	-0.0091	1.1
-0.0555	-0.0023	0.0405	-0.0083	1
-0.0533	-0.003	0.057	-0.0091	1.2
-0.0458	-0.0053	0.0547	-0.0091	1.1
-0.0315	-0.0046	0.0495	-0.0053	1.1
-0.0113	-0.0053	0.06	-0.0068	1.1
0.0052	-0.0068	0.0907	-0.0068	1.1
-0.003	-0.0023	0.0832	0.0007	1.2
-0.0218	0.0037	0.003	0.0052	0.9
-0.0195	0.006	-0.0458	0.0067	1.1
-0.021	0.0045	-0.0495	0.0067	1
-0.0368	0.0045	-0.0458	0.0045	1.1
-0.0555	0.0007	-0.0158	0.0037	0.9
-0.0503	-0.003	-0.0165	0.003	1.2
-0.0503	-0.003	-0.0465	-0.0023	0.9
-0.0555	-0.003	-0.057	-0.0068	1.1
-0.042	-0.0053	-0.0495	-0.0046	1.2
-0.0195	-0.0068	-0.0143	-0.0075	1.1
0.0337	-0.0068	0.033	-0.0053	0.9
0.0885	-0.0015	0.0802	0.0007	1
0.1267	-0.0008	0.1117	0.0007	1
0.1177	0.0007	0.0765	0.0067	0.9
0.0555	0.003	0.018	0.0112	1.2
0.0037	0.0052	-0.0233	0.012	1.1
-0.0105	0.0037	-0.0675	0.012	1.2
-0.012	0.003	-0.081	0.0112	1.2
-0.0105	0.0045	-0.0983	0.0097	0.9
-0.0143	0.0097	-0.0983	0.012	1.1
-0.0315	0.0112	-0.0615	0.0067	0.9
-0.033	0.0082	-0.0181	0.0007	1.1
-0.0308	0.0045	0.042	-0.0068	1
-0.0293	-0.0008	0.0667	-0.0135	1
-0.0278	-0.0038	0.0712	-0.015	1.1
-0.0173	-0.0053	0.069	-0.0113	1
-0.0091	-0.003	0.0592	-0.0046	1.1
-0.0308	0.0007	0.048	0.0045	1.1
-0.0405	0.0007	0.048	0.0052	1.2
-0.0465	0.0015	0.0495	0.003	1.2
-0.0458	-0.0023	0.0202	0.0015	1.2
-0.03	-0.0053	0.0067	0.0007	1.1
-0.0083	-0.003	0.018	0.0007	1.1
0.0135	-0.0023	0.036	-0.0015	1.3
0.027	-0.0008	0.0442	0.0007	0.9
0.063	-0.0023	0.0352	0.0015	1.2
0.0712	-0.0023	0.0277	-0.0038	1.1
0.0412	-0.003	0.033	-0.0068	1.2
0.0082	-0.0053	0.0382	-0.0083	0.9
-0.0173	-0.0053	0.0435	-0.0075	1.2
-0.0195	-0.006	0.0487	-0.006	1.1
-0.0135	-0.0046	0.027	-0.0015	1.2
-0.003	-0.0046	0.0007	0.0015	1
-0.0046	-0.0046	-0.0218	0.0015	1.2
-0.0068	-0.0008	-0.0353	0.0052	1.1
0.0015	0.0052	-0.0308	0.0127	0.9
-0.012	0.009	-0.0293	0.0135	1.3
-0.0068	0.009	-0.027	0.0105	1
0.012	0.0097	-0.0346	0.0075	1.3
-0.0046	0.0082	-0.0413	0.006	1.1
-0.0128	0.0075	-0.03	0.003	1.2
-0.0091	0.0052	-0.0165	0.0015	1.1
-0.0053	0.006	0.0135	0.003	1.1
0.0067	0.0082	0.0577	0.0022	1.3
0.0052	0.0097	0.0712	0.003	1.2
-0.006	0.012	0.0247	0.0007	1.2
-0.021	0.0112	-0.015	-0.0008	1.1
-0.0068	0.006	-0.0353	0	1
0.0172	0.0007	-0.0518	-0.0068	1
0.0202	-0.0105	-0.0443	-0.0158	1.2
0.0135	-0.0158	-0.039	-0.015	1.2
0.003	-0.0091	-0.0285	-0.0091	1
0.012	-0.0075	-0.0285	-0.0046	1.2
0.009	-0.0068	-0.0225	-0.003	1.1
-0.0083	-0.0053	-0.0038	-0.0023	1.2
-0.0233	0.0015	0.0157	0.0022	1.2
-0.042	0.0015	0.036	-0.0008	1.2
-0.039	-0.003	0.033	-0.0083	1.3
-0.0308	-0.0053	0.0337	-0.0143	1
-0.0181	-0.0091	0.0322	-0.0158	1.2
-0.0181	-0.0038	0.0255	-0.0053	1.3
-0.021	0.0007	0.0195	-0.0023	1.1
-0.0128	0.0015	0.015	0	1.2
-0.012	0.0052	0.0495	0.0037	1.2
-0.0046	0.0052	0.1365	0.006	1.2
0.003	0.0075	0.1582	0.009	1
0	0.0075	0.0615	0.0067	1.2
-0.0053	0.0045	-0.003	0.0045	1.3
-0.0181	0.0045	-0.0638	0.003	1.2
-0.0285	0.0015	-0.1073	0.0052	1
-0.0195	0.0015	-0.1178	0.0067	1.2
-0.0105	0.0015	-0.1335	0.0045	1.3
-0.006	0	-0.1028	0.0015	1
0.012	-0.0015	-0.1035	0.0007	1.2
0.0382	-0.003	-0.0848	0.0007	1.2
0.0652	-0.0053	-0.039	-0.0023	1.1
0.0652	-0.006	0.003	-0.0008	1.2
0.0397	-0.0023	0.0367	0.0015	1.2
0.0052	0	0.0352	0.0022	1.3
-0.0143	0.0015	0.0457	0.0015	1.2
-0.0098	0.0007	0.0427	0.0007	1.1
-0.0015	-0.0015	0.0277	0.0022	1.2
-0.0046	-0.0008	0.0142	0.0015	1.3
-0.0105	0.0007	0.0075	0.0022	1.2
0.0067	0.0007	0.0007	-0.0008	1.4
0.024	0	0.0037	0.0022	1.3
0.0172	0.0015	0.009	0.006	1.3
0.0045	0.0045	0.0142	0.009	1.2
-0.0008	0.0067	0.0277	0.0127	1.2
-0.0046	0.0105	0.0472	0.0112	1.3
-0.0053	0.009	0.0825	0.0075	1
-0.0128	0.006	0.0757	0.0037	1.3
-0.0023	0.0045	0.0262	0.0015	1.2
0.009	0.003	-0.0091	-0.0008	1.2
-0.0143	0.0015	-0.0248	-0.0038	1.3
-0.0098	-0.003	-0.0135	-0.0046	1.3
-0.0008	-0.0046	0.0307	0.0007	1.2
-0.003	-0.0008	0.0555	0.0045	1.4
0.0015	0	0.0382	0.0037	1.3
0.0015	-0.003	0.0292	0.0037	1.3
0.0255	-0.003	-0.0203	-0.0008	1.2
0.0615	-0.0038	-0.0383	-0.0091	1.1
0.0757	-0.0046	-0.0383	-0.0143	1.3
0.0562	-0.003	-0.0593	-0.0113	1.2
0.0322	-0.0015	-0.0398	-0.0038	1.3
0.0007	0.0015	-0.0593	-0.0046	1.3
-0.0046	-0.0023	-0.075	-0.0068	1.2
0.0067	-0.0075	-0.0638	-0.0023	1.3
-0.0195	-0.0015	-0.0675	0.003	1.3
-0.0383	0	-0.0458	0.0045	1.3
-0.0473	0.0007	0.0007	0.0052	1.3
-0.0465	0.0007	0.0457	0.0015	1.3
-0.0308	-0.0023	0.0915	0.0022	1.4
-0.0263	-0.0008	0.1042	0.006	1.3
-0.0233	-0.0008	0.0847	0.0067	1.3
-0.0075	-0.0015	0.081	0.0082	1.3
-0.0068	-0.0023	0.0637	0.0037	1.3
-0.0346	-0.006	0.0502	0.0007	1.3
-0.0495	-0.0046	0.0532	0.0007	1.5
-0.0361	-0.0008	0.0615	0.0045	1.3
-0.0293	0.0022	0.0465	0.0097	1.3
-0.0195	0.0067	0.0135	0.0097	1.3
-0.012	0.0075	-0.0053	0.0067	1.2
-0.0165	0.0067	-0.0143	0.0037	1.2
0.021	0.003	-0.0053	0.0015	1.2
0.0697	-0.0008	-0.0008	-0.003	1.3
0.0952	-0.0008	-0.0008	-0.0053	1.2
0.084	-0.0015	-0.0113	-0.0083	1.3
0.024	-0.0023	-0.027	-0.0105	1.3
-0.0053	-0.006	-0.0225	-0.0143	1.3
-0.0105	-0.0053	-0.0165	-0.0135	1.2
-0.0203	-0.003	0.0015	-0.0083	1.3
-0.0218	-0.0046	0.0105	-0.0083	1.4
-0.0165	-0.0068	0.0097	-0.0083	1.4
-0.0105	-0.0083	0.0165	-0.006	1.4
-0.0188	-0.0068	0.0195	-0.0046	1.4
-0.0195	-0.0053	0.0255	0.0007	1.3
-0.0188	-0.0008	0.0277	0.0022	1.4
-0.0181	0.0045	0.03	0	1.1
-0.0218	0.0015	0.024	-0.0015	1.5
-0.0263	-0.0008	0.0067	-0.003	1.3
-0.0218	-0.0008	-0.0046	-0.0015	1.4
-0.0158	-0.0015	-0.0053	0.0007	1.2
-0.0068	0.0007	-0.0046	0.0015	1.3
-0.0008	0.003	-0.003	0.0037	1.3
0.0067	0.0045	-0.0008	0.0045	1.3
0.0105	0.0045	-0.0091	0.0015	1.3
-0.0015	0.003	-0.0083	-0.0008	1.3
-0.012	0.0045	0.0232	0.0007	1.4
-0.0015	0.003	0.0817	0.0015	1.3
0.0052	0.003	0.0907	0.0015	1.5
0.0067	0.0022	0.0472	0.0007	1.3
0.018	0.0022	0.0225	0.0007	1.3
0.0262	0	-0.0368	0.0007	1.4
0.024	-0.0015	-0.0863	0	1.3
0.0067	0.0007	-0.1006	0.003	1.3
-0.0113	0.0052	-0.1065	0.0082	1.3
-0.0188	0.009	-0.0818	0.009	1.4
-0.0105	0.0075	-0.0518	0.0045	1.3
-0.0053	0.0045	-0.0068	-0.0008	1.3
-0.024	0.0007	0.0307	-0.0023	1.4
-0.024	0	0.0442	-0.0015	1.5
-0.0203	-0.0008	0.0382	-0.0023	1.3
-0.012	-0.0046	0.0292	-0.0046	1.4
0.0052	-0.0038	0.0292	-0.0046	1.5
0.0022	-0.003	0.0255	-0.003	1.3
-0.0053	-0.003	0.0285	-0.0015	1.6
-0.0158	-0.0008	0.0202	-0.0008	1.4
-0.0293	-0.0008	0.033	0.003	1.3
-0.0473	0.0037	0.105	0.006	1.4
-0.0398	0.0067	0.1365	0.003	1.3
-0.015	0.0052	0.0547	0.0007	1.5
0.0007	-0.0008	-0.0165	0.0007	1.3
0.0165	-0.0008	-0.0765	-0.0008	1.4
0.0217	-0.0015	-0.1133	-0.0038	1.4
0.0142	-0.003	-0.0825	-0.0053	1.4
0.0127	0.0007	-0.0593	0.0015	1.4
0.0382	0.0022	-0.0346	0.0067	1.5
0.0232	0.0082	-0.0413	0.0135	1.4
-0.0353	0.0172	-0.0443	0.0187	1.3
-0.054	0.018	-0.0158	0.0127	1.5
-0.0488	0.0105	0.0112	0.0045	1.3
-0.0293	0.0015	0.0367	-0.003	1.5
-0.0046	-0.0046	0.0465	-0.0046	1.4
0.0165	-0.0083	0.0472	-0.0038	1.6
0.0082	-0.0091	0.072	-0.003	1.5
-0.0158	-0.0053	0.1387	0.0007	1.4
-0.012	-0.0008	0.1657	0.0015	1.4
0.006	-0.0008	0.1155	0.0007	1.4
0.0255	0	0.0127	0.0015	1.6
0.039	0.0015	-0.0728	0.0037	1.5
0.0487	0.0015	-0.1006	0.0045	1.4
0.0367	0.0015	-0.117	0	1.5
0.0127	-0.0015	-0.1118	-0.0015	1.6
-0.0188	-0.0023	-0.1185	-0.0046	1.5
-0.0293	-0.003	-0.123	-0.0053	1.5
-0.0278	-0.003	-0.0878	-0.0008	1.4
-0.0278	0	-0.0315	0.0007	1.3
-0.0083	-0.003	0.0105	-0.0046	1.5
-0.0015	-0.0053	0.0105	-0.0068	1.5
-0.0015	-0.0046	0.0075	-0.0008	1.4
-0.0083	-0.003	0.0045	0.0022	1.5
-0.0181	-0.0023	0.0217	0.0067	1.5
-0.0293	0.0015	0.0427	0.0105	1.7
-0.0256	0.0045	0.0465	0.0067	1.5
-0.0181	0.0015	0.0457	0.0007	1.6
-0.0128	-0.0015	0.0465	-0.003	1.5
-0.0105	-0.0015	0.048	-0.0015	1.6
-0.0203	0.0015	0.033	0	1.6
-0.0248	0.0007	0.0172	-0.0038	1.7
-0.0233	-0.0008	0.0082	-0.0053	1.4
-0.0135	0	0.0045	-0.0053	1.6
-0.0113	-0.0008	0.006	-0.0046	1.6
-0.0053	-0.0008	0.0037	-0.0053	1.4
0.003	-0.0015	0.027	-0.0068	1.6
0.0142	-0.0023	0.0457	-0.0053	1.5
0.0337	-0.0008	0.0202	-0.003	1.5
0.0405	0.003	0.012	0.0052	1.5
0.0435	0.009	0.0465	0.0082	1.5
0.0202	0.0105	0.0757	0.0067	1.7
-0.0135	0.0082	0.084	0.0045	1.5
-0.0203	0.0052	0.0787	-0.0008	1.6
-0.012	-0.0008	0.0547	-0.003	1.5
0.0007	-0.0008	0.0435	-0.003	1.5
-0.0075	0	0.0232	0	1.6
-0.021	-0.0008	-0.0038	0.003	1.6
-0.0308	0.0007	-0.0105	0.0015	1.6
-0.0203	-0.0023	0.0285	-0.0023	1.6
0.0142	-0.0023	0.0727	-0.003	1.6
0.0502	0.0015	0.027	-0.0008	1.4
0.093	-0.0008	-0.0181	-0.0023	1.5
0.1087	-0.0053	-0.0383	-0.0008	1.4
0.1222	-0.003	-0.0555	0.0015	1.6
0.1365	-0.0023	-0.0315	-0.0023	1.7
0.0787	-0.0023	-0.0225	0.0015	1.4
0.0007	-0.0008	-0.0346	0.0045	1.5
-0.0256	-0.0023	-0.0495	0	1.5
-0.021	-0.003	-0.033	-0.0015	1.6
-0.0091	-0.0053	0.0427	-0.0046	1.7
0.0067	-0.0023	0.1335	-0.0053	1.6
0.0007	0.0015	0.1102	0	1.6
-0.0181	0.0037	0.0232	0.003	1.7
-0.033	0.0045	-0.0113	0.0045	1.5
-0.0518	0.0037	-0.057	0.0052	1.7
-0.0315	0.0015	-0.0728	0.0007	1.6
-0.0105	-0.0023	-0.0691	0	1.5
-0.0038	-0.0053	-0.0608	-0.0015	1.8
0.018	-0.0091	-0.0323	-0.0046	1.7
0.024	-0.0075	0.0195	-0.0015	1.7
0.0082	-0.0038	0.0465	0.0007	1.7
-0.024	-0.0015	0.0307	0.0007	1.5
-0.0353	0.0015	0.0525	-0.0015	1.7
0.0007	-0.003	0.036	-0.0068	1.5
0.033	-0.006	0.0247	-0.0015	1.7
0.0067	0.0037	0.0225	0.0105	1.6
-0.0585	0.0165	-0.0068	0.018	1.7
-0.0975	0.0232	-0.0105	0.024	1.5
-0.1013	0.024	-0.0256	0.0217	1.7
-0.0638	0.0172	-0.042	0.0127	1.4
-0.0218	0.0075	-0.0728	0.006	1.7
0.0172	0.003	-0.0983	0.0007	1.6
0.0375	0.0007	-0.0915	-0.0015	1.5
0.027	0.0007	-0.0443	0.0007	1.6
0.0202	-0.0008	0.0315	-0.0046	1.5
0.003	-0.0053	0.0877	-0.0083	1.8
-0.0128	-0.0075	0.0675	-0.0091	1.7
-0.0128	-0.0068	0.0262	-0.006	1.7
-0.0008	-0.0008	0.0217	0	1.8
0.0045	0	0.0067	-0.0046	1.5
-0.0015	-0.0046	0.0045	-0.006	1.7
0.0007	-0.003	-0.0256	-0.0046	1.7
-0.003	0	-0.0555	-0.0046	1.8
-0.0181	0.0045	-0.0495	0.0015	1.7
-0.039	0.009	-0.042	0.0015	1.8
-0.0353	0.0022	-0.057	-0.003	1.5
-0.024	-0.0053	-0.0638	-0.0083	1.8
-0.012	-0.0098	-0.0091	-0.015	1.6
-0.0091	-0.015	0.027	-0.0143	1.7
-0.0315	-0.0113	0.0577	-0.0046	1.8
-0.0465	0.0015	0.0742	0.0082	1.7
-0.0533	0.0097	0.0907	0.0142	1.7
-0.045	0.0157	0.087	0.0142	1.8
-0.0203	0.0135	0.0195	0.0075	1.6
0.0345	0.003	0.0045	0.0007	1.8
0.0997	-0.0023	0.0142	-0.0015	1.6
0.1267	-0.003	0.0135	0.0007	2
0.1102	-0.0015	0.0292	0.0007	1.8
0.0562	0	0.0367	0.0037	1.8
0.0082	0.003	0.033	0.0067	1.6
-0.0278	0.0015	0.0532	-0.0023	1.8
-0.039	-0.0068	0.0765	-0.0091	1.8
-0.0195	-0.0075	0.0735	-0.0083	1.7
-0.0203	-0.0053	0.045	-0.0068	1.7
-0.0405	-0.0075	0.0105	-0.0083	1.8
-0.027	-0.0083	-0.0128	-0.0083	1.8
0.0127	-0.0068	-0.0308	-0.0038	1.7
0.0382	-0.003	-0.042	-0.0015	1.8
0.0562	0.0007	-0.063	0.0022	1.5
0.0495	0.0037	-0.06	0.006	1.8
0.0172	0.0075	-0.0465	0.0052	1.7
-0.0165	0.0097	-0.0443	0.0067	1.8
-0.048	0.0097	-0.027	0.0022	1.8
-0.042	0.0045	0.0052	-0.0015	1.7
-0.0068	0.0037	0.0337	0.0007	1.8
0.0165	0.0022	0.0727	0.0007	1.8
0.0157	0.0015	0.159	-0.0015	1.8
0.0045	0.003	0.15	-0.0008	1.8
0.0165	0.0015	0.0367	0.0037	1.8
0.0277	0.0067	-0.0293	0.0067	1.8
0.0255	0.0075	-0.0848	0.0007	1.8
-0.0008	0.0015	-0.1133	-0.003	1.8
-0.0338	-0.0008	-0.0825	-0.003	1.5
-0.027	-0.003	-0.0308	-0.0053	1.8
-0.0023	-0.0068	0.0022	-0.0098	1.6
0.0217	-0.0091	-0.003	-0.0105	1.7
0.048	-0.0083	0.0427	-0.0083	1.9
0.0495	-0.0075	0.0352	-0.0038	1.8
0.018	-0.0053	-0.027	-0.003	1.8
0.009	-0.0075	-0.03	-0.0128	1.7
0.0172	-0.0143	-0.0405	-0.0158	1.9
-0.003	-0.0083	-0.0218	0	1.8
-0.0165	0.003	0.0015	0.0157	1.8
-0.0293	0.0082	-0.0105	0.0195	1.8
-0.0465	0.009	-0.0353	0.0127	1.8
-0.0413	0.0082	-0.0346	0.0127	1.8
-0.0495	0.009	0.0142	0.0112	1.8
-0.0428	0.0067	0.0382	0.0052	1.8
-0.0015	0.0022	0.0345	0.0052	1.8
0.0172	0.0045	0.0307	0.0067	1.9
0.0195	0.0082	0.024	0.0045	1.7
0.0112	0.0075	-0.0046	0.0015	1.8
-0.0091	0.0045	-0.0165	0.0037	1.7
-0.0315	0.0022	0.0007	0.0022	1.8
-0.0256	0.0007	-0.0008	-0.0008	1.9
-0.0091	-0.0008	-0.0023	-0.0008	1.7
-0.0015	-0.0023	-0.0015	-0.0046	1.7
-0.0008	-0.0046	-0.0068	-0.0053	1.8
0	-0.0053	-0.0046	-0.0015	1.8
0.0082	-0.0046	0.0165	0.003	1.8
0.0075	-0.0023	0.0337	0.0007	1.8
-0.0015	-0.003	0.0142	0.0007	1.7
-0.0368	-0.0053	-0.0113	-0.0008	1.8
-0.057	-0.0053	-0.0195	0.003	1.7
-0.03	0.0007	-0.0091	0.0067	1.7
-0.0046	0.0052	0.0195	0.003	1.9
0.0202	0.0015	0.0345	0.0015	1.7
0.018	-0.0015	0.039	0.0007	2
0.009	-0.0023	0.0465	-0.0015	1.8
0.012	-0.0023	0.0735	-0.0008	1.7
0.009	0	0.0937	0.0015	2
0.0075	0.0015	0.063	0.0045	1.8
-0.0195	0.0037	0.0157	0.006	1.8
-0.0173	0.003	-0.0165	-0.0008	1.6
-0.006	-0.003	-0.0465	-0.0068	1.7
-0.0233	-0.006	-0.054	-0.0068	1.8
-0.0368	-0.0075	-0.066	-0.0083	1.7
-0.0353	-0.006	-0.0706	-0.0068	1.7
-0.0346	-0.0046	-0.0458	-0.0091	1.7
-0.0256	-0.0091	-0.0203	-0.012	1.6
0.0277	-0.006	-0.003	-0.0008	1.6
0.0997	0.0045	-0.0068	0.0037	1.7
0.1582	0.0067	-0.0008	0.003	1.6
0.1687	0.0052	0.0082	0.003	1.8
0.1425	0.0037	0.0082	0.0022	1.6
0.078	0	0.0142	0.003	1.7
0.0352	0.0045	0.0195	0.0067	1.7
0.057	0.006	-0.012	0.006	1.5
0.0645	0.0037	-0.0428	0.0045	1.7
0.051	0.0052	0.0705	0.0045	1.8
0.0315	0.0067	0.1927	0.0067	1.6
0.0307	0.0082	0.1417	0.0082	1.7
0.0307	0.0067	0.0877	0.0045	1.7
-0.003	0.003	0.0382	-0.0015	1.8
0.0135	-0.0008	-0.0218	-0.0046	1.8
0.0457	0.0007	-0.0203	-0.0008	1.6
0.0255	0.0037	-0.0135	0.0015	1.6
-0.0046	0.0015	-0.006	0	1.6
-0.048	0.0007	-0.0346	-0.0008	1.7
-0.084	-0.0008	-0.0525	-0.0038	1.8
-0.0803	-0.0038	-0.0398	-0.0038	1.5
-0.0765	-0.0008	-0.0218	0.0015	1.6
-0.0518	-0.0023	0.0142	-0.0015	1.8
-0.0346	-0.003	0.0307	-0.0008	1.8
-0.0511	0.0015	0.0292	0.0007	1.8
-0.0495	0.0015	0.018	0.0015	1.7
-0.045	0.003	0.0217	0.0045	1.7
-0.0278	0.0067	0.0352	0.0075	1.8
-0.0143	0.0082	0.012	0.0067	1.7
-0.0263	0.0067	-0.006	0	1.7
-0.024	0.0015	0.0457	-0.0046	1.8
-0.0285	-0.0023	0.0645	-0.0053	1.5
-0.033	-0.0046	0.0105	-0.0068	1.7
-0.033	-0.0046	-0.024	-0.0053	1.6
-0.0405	-0.0023	-0.0346	-0.0023	1.6
-0.0398	-0.0038	-0.0293	-0.0023	1.8
-0.0353	-0.0053	-0.0346	-0.0046	1.5
-0.0256	-0.0015	-0.057	-0.0046	1.8
-0.0135	0.0007	-0.0713	0.0007	1.7
-0.0038	0.006	-0.075	0.0067	1.8
-0.0105	0.0082	-0.054	0.006	1.6
-0.0218	0.0067	0.0015	0.003	1.8
-0.0293	0.0045	0.051	-0.0015	1.7
-0.0218	-0.0053	0.0465	-0.0075	1.7
0.0082	-0.0113	0.0285	-0.0143	1.6
0.0015	-0.0128	0.0255	-0.0128	1.7
-0.0458	-0.0113	0.0352	-0.0091	1.8
-0.057	-0.0053	0.0442	-0.0038	1.7
-0.0458	-0.0015	0.0277	-0.0015	1.8
-0.0398	0.0007	0.0097	-0.0015	1.7
-0.0188	-0.0015	0.018	-0.003	1.5
-0.0038	-0.0046	0.0367	-0.0053	1.9
0.0547	-0.0091	0.0382	-0.0068	1.8
0.1177	-0.0098	-0.003	0.0007	1.5
0.0825	0.0037	-0.0533	0.0172	1.7
0.018	0.0127	-0.0803	0.0195	1.7
-0.0233	0.0112	-0.0893	0.0127	1.6
-0.0691	0.009	-0.0578	0.0067	1.5
-0.0795	0.003	-0.0353	0.003	1.7
-0.0818	-0.0008	-0.024	0.0037	1.7
-0.09	-0.0008	-0.0105	0.0015	1.5
-0.0728	0.0022	-0.0015	0.0045	1.8
-0.0608	0.0037	0.0135	-0.0008	1.8
-0.0413	-0.0015	0.018	-0.003	1.6
-0.0293	-0.0046	0.0195	-0.0053	1.8
-0.0128	-0.003	0.0232	-0.003	1.6
0.0015	0.0007	0.0592	0.003	1.8
-0.0038	0.003	0.1155	0.0052	1.7
-0.012	0.003	0.114	0.0082	1.5
-0.0256	0.0052	0.063	0.0067	1.8
0.0195	0.003	0.0532	0.0052	1.8
0.0952	0.0015	0.0292	0.003	1.7
0.168	0.003	-0.0158	-0.0008	1.7
0.1815	-0.0023	-0.0308	-0.0046	1.8
0.1177	-0.0046	-0.048	-0.0046	1.6
0.063	0.0007	-0.0691	0.0022	1.7
0.0367	0.0037	-0.0653	0.0007	1.5
0.042	0.003	-0.042	0.0007	1.6
0.0112	0.0037	-0.012	0.003	1.7
-0.027	0.0037	0.072	-0.0015	1.6
-0.0068	-0.0046	0.111	-0.0091	1.8
0.0292	-0.0083	0.0315	-0.0098	1.6
0.0637	-0.0068	-0.0113	-0.0053	1.7
0.0937	-0.0068	-0.0293	0.0007	1.8
0.1012	-0.003	-0.0593	0.0052	1.4
0.0495	0.0037	-0.0856	0.009	1.8
-0.0075	0.012	-0.0765	0.0105	1.5
-0.0188	0.0112	-0.006	0.0052	1.7
-0.0195	0.0045	0.021	-0.0015	1.6
-0.0105	-0.003	0.0697	-0.0098	1.5
0.0067	-0.012	0.1117	-0.0105	1.7
0.0255	-0.0068	0.1312	-0.0046	1.7
0.0345	-0.0046	0.1215	-0.0046	1.5
0.0045	-0.0053	0.0375	0.0007	1.7
-0.0203	0.0007	0.0255	0.0052	1.5
-0.0143	0.0007	0.033	0.0045	1.7
-0.0053	-0.0008	0.0165	0	1.5
0.0127	-0.0053	-0.0023	-0.0068	1.5
0.0225	-0.012	-0.0428	-0.0091	1.6
0.0075	-0.0091	-0.054	-0.0046	1.6
-0.0068	0.0007	-0.0525	0.0052	1.5
-0.024	0.0082	-0.006	0.009	1.8
-0.0315	0.0052	0.0832	0.006	1.5
-0.0278	0.0052	0.1327	0.0105	1.7
-0.0338	0.0112	0.102	0.009	1.6
-0.0263	0.0097	0.0292	0.003	1.7
-0.0195	0.0067	-0.0353	-0.0053	1.4
-0.0091	0.0007	-0.0623	-0.0075	1.6
-0.0015	-0.003	-0.039	-0.0046	1.3
0.0142	-0.0083	-0.039	-0.0091	1.7
0.039	-0.0083	-0.0473	-0.0008	1.4
0.0352	0.0007	-0.0346	0.0082	1.5
0.0045	0.0082	-0.0346	0.015	1.6
-0.0218	0.0142	-0.0315	0.0195	1.5
-0.0338	0.0157	0.0067	0.0142	1.8
-0.039	0.0082	0.0682	0.0045	1.5
-0.0263	0.0015	0.0787	-0.0046	1.4
-0.0405	-0.006	0.0502	-0.0083	1.7
-0.054	-0.0075	0.0255	-0.006	1.4
-0.0518	-0.0015	-0.0015	-0.0075	1.7
-0.0563	-0.003	-0.03	-0.012	1.4
-0.0428	-0.0105	-0.0488	-0.0165	1.5
-0.021	-0.0128	-0.033	-0.0143	1.5
-0.0105	-0.0135	-0.0158	-0.0113	1.7
0.0015	-0.012	0.0045	-0.0068	1.4
0.0007	-0.0046	0.006	0	1.6
-0.0068	-0.003	-0.0053	0.0007	1.4
-0.015	0.0007	0.0187	0.0067	1.7
-0.0158	0.009	0.027	0.006	1.5
0.0232	0.0067	0.0247	0.0045	1.5
0.0645	0.0045	0.0202	0.0045	1.6
0.093	0.003	-0.0015	0.0067	1.4
0.087	0.0082	-0.0293	0.0127	1.5
0.018	0.0105	-0.0346	0.0075	1.6
-0.0203	0.0015	-0.0218	0	1.5
-0.024	-0.0015	-0.0188	-0.003	1.5
-0.0165	-0.003	-0.0188	-0.0046	1.5
-0.0203	-0.0053	-0.0203	-0.0015	1.5
-0.0578	0.0015	-0.0091	0	1.5
-0.0518	0.003	-0.0143	-0.0015	1.4
-0.0158	0.0022	-0.0165	-0.003	1.5
0.018	0.0052	0.0157	-0.0038	1.6
0.0772	0.003	0.0427	-0.0038	1.4
0.1515	-0.0015	0.039	-0.0046	1.5
0.1432	-0.0023	0.0435	-0.0023	1.5
0.048	0.0007	0.1312	0.0007	1.5
-0.0143	0.0052	0.201	0.0067	1.5
-0.0308	0.0082	0.099	0.0082	1.5
-0.0233	0.0045	-0.0218	0.003	1.4
-0.0308	0.0022	-0.0668	0.003	1.6
-0.0361	0.0007	-0.0998	-0.0015	1.6
-0.0256	-0.0075	-0.1155	-0.0053	1.6
-0.021	-0.0083	-0.1163	0.003	1.5
-0.021	0.0007	-0.0698	0.0082	1.4
-0.0293	0.0052	-0.0525	0.0075	1.5
-0.0256	0.006	-0.0323	0.003	1.5
-0.0256	0.006	0.0622	0.0022	1.5
-0.0256	0.0015	0.1252	0.0007	1.5
-0.0173	-0.0015	0.0855	-0.0023	1.5
-0.0113	-0.003	-0.0165	-0.0046	1.5
0	-0.006	-0.0518	-0.006	1.3
0.0127	-0.0046	-0.0578	-0.0008	1.5
0.0015	0.0007	-0.0533	0.003	1.4
-0.0181	0.003	-0.0353	0.0045	1.5
-0.0128	0.0045	-0.024	0.006	1.6
-0.006	0.0082	0	0.0105	1.6
0.0022	0.009	0.0007	0.0105	1.5
-0.0015	0.0082	-0.0053	0.0052	1.5
-0.0195	0.0045	-0.0308	-0.0015	1.4
-0.0203	-0.003	-0.012	-0.0083	1.5
-0.012	-0.0023	0.042	-0.0038	1.5
-0.0165	0.0052	0.0742	0.0022	1.5
-0.0308	0.0075	0.114	0.0045	1.5
-0.0338	0.0045	0.1162	0.0007	1.6
-0.0383	0.0007	0.0817	-0.0053	1.4
-0.0458	-0.0023	0.0465	-0.0068	1.6
-0.048	-0.0015	0.0292	-0.0068	1.4
-0.0368	-0.0015	0.0195	-0.0098	1.5
-0.0181	-0.0038	0	-0.0105	1.5
-0.0046	-0.0046	-0.0128	-0.0091	1.5
0	-0.003	0.0075	-0.006	1.5
0.0007	-0.0015	0.021	-0.006	1.5
0.024	-0.003	-0.0195	-0.003	1.3
0.0165	-0.003	-0.0293	-0.0008	1.6
-0.0068	-0.006	-0.0165	-0.0068	1.4
-0.0233	-0.0068	-0.0015	-0.0015	1.6
-0.0413	0.003	-0.0075	0.009	1.4
-0.0353	0.0082	-0.0308	0.0097	1.5
-0.0278	0.0052	-0.015	0.0015	1.5
-0.0278	0.0007	-0.0368	-0.0008	1.5
-0.0098	-0.0015	-0.054	-0.003	1.5
0.0015	-0.0068	-0.0788	-0.0068	1.5
0.0232	-0.012	-0.1006	-0.0046	1.3
0.0667	-0.0105	-0.078	-0.0038	1.6
0.0795	-0.0091	-0.0563	-0.003	1.5
0.0585	-0.0053	0.0052	-0.0008	1.5
0.0322	-0.0008	0.0517	-0.0008	1.6
0.012	0.0015	0.0555	0.0015	1.3
0.0067	0.006	0.0465	0.0067	1.5
0.0232	0.0082	0.0675	0.006	1.6
0.042	0.0052	0.1125	0.0015	1.5
0.0427	-0.0008	0.1185	-0.0023	1.5
0.0817	-0.0038	0.1102	0.0015	1.5
0.159	0.0015	0.0705	0.0067	1.4
0.1807	0.0082	0.0367	0.0105	1.5
0.1702	0.0142	0.0405	0.009	1.6
0.1687	0.0105	0.0502	0.0022	1.5
0.195	0.0052	0.0442	-0.0015	1.6
0.2017	0.0007	0.0187	-0.0046	1.5
0.1597	-0.0068	0.0007	-0.012	1.5
0.1102	-0.012	-0.0195	-0.015	1.5
0.0562	-0.0143	-0.0105	-0.0135	1.6
0.0375	-0.012	0.0217	-0.0046	1.6
0.0105	-0.0023	0.0127	0.009	1.3
-0.0308	0.0067	-0.0278	0.012	1.4
-0.027	0.0052	-0.0698	0.0037	1.5
0.0165	0.0015	-0.0555	0.0037	1.4
0.0847	0.003	0.0382	0.0082	1.4
0.1125	0.0045	0.06	0.0082	1.4
0.0877	0.003	-0.0285	0.003	1.4
0.006	0	-0.0555	-0.0008	1.5
-0.0968	-0.0038	-0.0368	-0.0046	1.5
-0.153	-0.0091	-0.0346	-0.0105	1.3
-0.1823	-0.0091	-0.0706	-0.0075	1.5
-0.2108	-0.003	-0.0968	0.0052	1.5
-0.1973	0.006	-0.0968	0.0157	1.5
-0.1538	0.0097	-0.09	0.0172	1.4
-0.1455	0.0082	-0.0248	0.015	1.3
-0.15	0.009	-0.0128	0.0105	1.4
-0.153	0.0045	-0.0256	0.003	1.5
-0.1448	0	-0.0128	-0.0015	1.5
-0.1283	-0.003	-0.0158	-0.0038	1.5
-0.1058	-0.0083	-0.0008	-0.0038	1.5
-0.0885	-0.006	0.0082	-0.0015	1.6
-0.0833	-0.0068	0.0082	-0.0008	1.4
-0.078	-0.003	-0.0015	0.0007	1.5
-0.075	0.0015	-0.0038	0.0015	1.5
-0.0585	0.0022	0.0202	0.0015	1.5
-0.048	0.0007	0.0577	-0.0023	1.5
-0.039	-0.003	0.0765	-0.0053	1.6
-0.0645	-0.0046	0.0547	-0.003	1.3
-0.0968	-0.0075	0.0405	-0.0023	1.5
-0.0938	-0.0075	0.0322	-0.003	1.5
-0.0915	-0.0008	0.0307	0.0007	1.4
-0.0653	0.0045	0.0405	0.0067	1.5
-0.057	0.0127	0.0607	0.0082	1.4
-0.0533	0.0165	0.0802	0.0037	1.5
-0.054	0.012	0.054	0.0015	1.5
-0.0683	0.009	-0.0091	0.0015	1.3
-0.0638	0.0037	-0.0721	-0.0053	1.4
-0.0458	-0.0046	-0.1238	-0.0113	1.4
-0.027	-0.0091	-0.1103	-0.0143	1.7
-0.042	-0.012	-0.0405	-0.0165	1.5
-0.0473	-0.0105	0.0007	-0.0098	1.5
-0.0465	0.0022	0.0345	0.0052	1.4
-0.033	0.0127	0.0757	0.0105	1.6
-0.0233	0.0082	0.1312	0.0082	1.4
-0.0285	0.0037	0.1402	0.0082	1.5
-0.03	0.0052	0.0915	0.0112	1.5
-0.042	0.0082	0.0675	0.0112	1.4
-0.0436	0.0097	0.0292	0.0067	1.7
-0.039	0.0015	0.0075	-0.0008	1.5
-0.0225	-0.0083	0.0097	-0.0098	1.4
0.0157	-0.0135	-0.0023	-0.0083	1.4
0.066	-0.0105	-0.0158	-0.0008	1.4
0.0825	0	-0.027	0.009	1.4
0.0517	0.0112	-0.033	0.0157	1.4
0.0255	0.0135	-0.0315	0.0112	1.7
0.027	0.0082	-0.0053	0.0082	1.6
0.0367	0.0082	0.0112	0.0067	1.6
0.06	0.0082	0.0157	0.003	1.5
0.0742	0.003	0.021	0.0015	1.6
0.0592	0.0015	0.024	-0.0023	1.3
0.0337	0.0022	0.0225	-0.0038	1.7
0.0217	0.0007	-0.0068	-0.0053	1.4
0.018	-0.0053	-0.0293	-0.0068	1.5
-0.0143	-0.0068	-0.039	-0.0038	1.5
-0.0315	-0.0046	-0.042	-0.0008	1.5
-0.0188	0	-0.0173	-0.0015	1.5
0	-0.0008	0.0105	-0.003	1.6
0.0142	-0.0015	0.0075	-0.003	1.5
0.0105	-0.0046	0.0075	-0.0091	1.5
0.003	-0.0083	0.009	-0.0068	1.5
0.0135	-0.003	-0.0158	-0.003	1.3
0.0255	-0.003	-0.0361	-0.0091	1.6
0.0082	-0.0068	-0.0233	-0.0091	1.5
0.0067	-0.0068	0.0037	-0.006	1.4
0.069	-0.0068	0.0217	-0.0046	1.7
0.1335	-0.0053	0.0495	-0.003	1.3
0.1215	-0.0015	0.075	0.0022	1.7
0.0757	0.0067	0.0975	0.006	1.5
0.036	0.0097	0.0892	0.006	1.5
-0.0225	0.0067	0.0427	0.003	1.5
-0.0383	0.0007	0.0045	-0.0038	1.5
-0.0293	-0.0046	-0.012	-0.0046	1.5
-0.0158	-0.0075	-0.0143	-0.0075	1.5
-0.0075	-0.0113	-0.0293	-0.0046	1.4
-0.0143	-0.0053	-0.0405	0.003	1.4
0.0105	-0.0008	-0.0405	0.003	1.5
0.0675	-0.0015	-0.0383	0.0045	1.4
0.129	0.0015	-0.0338	0.0037	1.5
0.1575	0.0045	-0.0113	0.003	1.5
0.1297	0.003	0.069	-0.0008	1.5
0.0322	0.003	0.1447	-0.0008	1.6
-0.0173	0.0015	0.1057	-0.0023	1.3
0.0015	-0.0015	0.0555	-0.003	1.5
-0.003	-0.0015	0.0712	-0.0008	1.5
0.003	-0.0023	0.0187	-0.0015	1.5
0.0015	-0.0015	-0.0428	-0.0046	1.4
-0.0046	-0.0008	-0.0608	-0.003	1.4
0	0.0007	-0.0743	0.0007	1.5
-0.0008	0.0015	-0.063	-0.0008	1.5
0.027	-0.0015	-0.033	-0.0015	1.5
0.0405	-0.0015	-0.0256	-0.0068	1.5
0.0457	-0.006	-0.0555	-0.0135	1.5
0.0577	-0.0038	-0.054	-0.006	1.5
0.054	0.0045	-0.0525	0.0045	1.5
0.069	0.0052	-0.0585	0.0052	1.4
0.0577	0.0067	-0.0668	0.0045	1.6
0.033	0.0052	-0.0593	0.0045	1.6
0.0315	0.0015	-0.0308	0.0045	1.5
0.0157	-0.0015	-0.0158	0.0082	1.6
0.009	0.003	0.0022	0.0157	1.5
0.0195	0.0142	-0.0075	0.0172	1.5
0.0202	0.0157	-0.0008	0.0112	1.6
0.0352	0.0082	0.0157	0	1.5
0.0577	0.0015	0.0292	-0.0046	1.6
0.0667	-0.0015	0.039	-0.0046	1.7
0.069	-0.003	0.0345	-0.0046	1.7
0.0577	-0.003	0.0457	-0.0053	1.5
0.039	-0.0075	0.0562	-0.0083	1.6
0.0397	-0.0075	0.0615	-0.0008	1.6
0.0442	0.0007	0.042	0.0105	1.7
0.0465	0.0045	0.0127	0.0157	1.6
0.0217	0.0037	0.0015	0.0142	1.6
-0.0015	0.0052	0.012	0.0097	1.8
0.003	0.0052	0.0345	0.0075	1.4
0.012	0.003	0.0195	0.0067	1.7
0.0292	0.0052	-0.045	0.0112	1.6
0.0202	0.0105	-0.0773	0.0142	1.8
0.0015	0.0112	-0.0368	0.0105	1.7
-0.0128	0.0082	0.0195	0.003	1.7
-0.0233	-0.0008	0.0495	-0.0038	1.7
-0.012	-0.0046	0.0532	-0.0053	1.7
-0.0068	-0.0053	0.0427	-0.0098	1.8
0.0015	-0.0098	0.018	-0.015	1.6
-0.0008	-0.0068	-0.0053	-0.0105	1.5
-0.0128	-0.0015	-0.0143	-0.0083	1.8
-0.0008	-0.003	-0.0068	-0.0091	1.8
-0.0038	-0.0046	-0.0105	-0.0091	1.7
-0.0361	-0.0068	-0.0105	-0.0083	1.7
-0.0511	-0.0046	-0.0068	-0.0046	1.8
-0.048	-0.0046	-0.0165	-0.0046	1.6
-0.027	-0.0053	-0.0091	-0.0053	1.9
0.0052	-0.0046	0.012	-0.003	1.6
0.033	-0.0046	0.0367	-0.0023	1.8
0.0382	-0.0046	0.0442	-0.0008	1.9
0.003	-0.0008	0.0165	0.0052	1.7
-0.027	0.0015	0.0007	0.0067	1.7
-0.0503	0.0007	0.0015	0.009	1.8
-0.0825	0.0015	0.006	0.0127	1.8
-0.075	0.0022	0.033	0.0105	1.8
-0.0323	0.0007	0.0795	0.0082	1.9
0.0097	0.0007	0.0825	0.006	1.8
0.066	0.0015	0.0322	0.006	1.7
0.0877	0.003	-0.0023	0.003	1.5
0.0277	0.0007	-0.0308	0.0022	1.8
-0.0278	0.0015	-0.042	-0.0008	1.8
-0.0615	-0.0008	-0.027	-0.0046	1.8
-0.096	-0.0023	-0.0361	-0.0015	1.9
-0.108	-0.0008	-0.045	-0.003	1.7
-0.108	-0.006	-0.0398	-0.0083	1.9
-0.0938	-0.0075	-0.0315	-0.0098	1.8
-0.0863	-0.0068	-0.0308	-0.0091	1.8
-0.081	-0.006	0.0015	-0.0098	1.9
-0.042	-0.0038	0.0615	-0.0075	1.9
-0.0075	-0.0008	0.0877	0	1.9
-0.0023	0.0037	0.0742	0.0045	1.8
-0.0315	0.0015	0.054	0.003	1.8
-0.0593	-0.0015	0.057	0.0015	1.8
-0.054	0.0015	0.0352	0.003	2
-0.0203	0.0015	-0.0038	-0.0015	1.8
0.0052	0	-0.0188	-0.003	1.9
-0.0158	0.003	-0.0008	-0.0015	1.8
-0.0465	0.0067	0.0525	0.0007	1.9
-0.0638	0.0067	0.1117	-0.0008	2.1
-0.0638	0.006	0.114	-0.0008	1.8
-0.054	0.0045	0.0532	-0.0046	2.1
-0.0405	-0.0046	0.0172	-0.012	1.9
-0.0143	-0.0098	-0.0053	-0.012	1.9
0.0112	-0.0091	-0.015	-0.0053	1.8
0.0277	-0.0068	-0.0046	-0.0015	2
0.0202	-0.0046	0.042	0.0007	2.1
-0.003	-0.0008	0.0697	0.0007	2
-0.0158	0.0015	0.0097	0.0015	1.9
-0.0315	0.009	-0.0653	0.0045	2
-0.0525	0.0105	-0.1696	-0.0008	2
-0.0353	0.0052	-0.186	-0.0038	1.8
-0.003	0.0052	-0.1463	-0.0023	2.1
0.0405	0.003	-0.1088	0.003	1.8
0.105	0.0015	-0.042	0.0037	2
0.1575	-0.0008	-0.0428	0.0022	2
0.1462	-0.0015	-0.0256	0.003	1.9
0.0705	-0.0008	0.0105	0	2.1
-0.0008	-0.0008	0.0487	0.0015	2.1
-0.0488	0.0022	0.0682	0.0015	2.1
-0.0645	0.003	0.063	-0.0008	2
-0.0405	0.003	0.0577	-0.0023	2
-0.0218	0	0.039	-0.0083	2
-0.0015	-0.0068	0.0405	-0.0195	2.1
0.0232	-0.0158	0.054	-0.0218	2
0.0337	-0.0165	0.0645	-0.012	2
0.063	-0.0083	0.0532	-0.0038	2.1
0.09	-0.0008	0.0457	-0.003	2
0.0915	0.0037	0.054	0.0007	2.1
0.0307	0.0127	0.0495	0.0082	1.9
-0.0338	0.0157	0.018	0.0052	2
-0.0173	0.0127	-0.0128	0.015	2
-0.003	0.0142	-0.0278	0.0277	1.8
0.009	0.0127	-0.042	0.048	2.1
0.0037	0.0082	-0.0353	0.0825	2
-0.0173	0.0075	-0.0218	0.0577	1.9
-0.021	0.0067	-0.012	0.0022	1.9
-0.0346	-0.0015	0.0097	-0.0721	2
-0.0443	-0.006	0.0307	-0.054	2.2
-0.0803	0.0045	0.0652	0.057	1.9
-0.0915	0.0082	0.1177	-0.006	1.9
-0.0593	-0.0008	0.1042	-0.015	2
-0.042	-0.0046	0.0375	-0.0181	1.9
-0.033	-0.0008	-0.0038	-0.0593	1.9
-0.0218	0.0045	-0.0353	-0.003	2.1
0.003	0.0045	-0.0428	-0.0015	2.1
0.0532	0.0015	-0.0346	0.0202	1.9
0.093	0.003	-0.042	0.0157	2
0.0487	0.0112	-0.054	0.024	1.9
-0.0233	0.0127	-0.0615	0.039	2.1
-0.0361	0.009	-0.0383	0.0375	1.9
-0.0383	0.003	-0.0173	0.0375	1.8
-0.0315	-0.0053	0.0007	0.0165	2.2
-0.0083	-0.0046	0.015	0.027	2
0.0247	-0.003	0.015	-0.0015	2
0.0652	-0.0053	0.0232	-0.0578	2
0.0765	-0.0046	0.0322	-0.0653	2
0.069	0.0007	0.0367	0.012	2
0.0397	0.003	0.0202	0.0547	2.1
0.0142	0.0015	0.0075	0.0532	2
0.015	0	0.015	0.0397	2.1
0.003	-0.0053	0.0157	-0.0263	1.9
-0.0218	-0.0091	0.0007	-0.0998	1.9
-0.0608	-0.0105	-0.0068	-0.1148	2.1
-0.0863	-0.0068	0.0082	-0.0353	2
-0.0945	-0.0046	0.0105	-0.0083	2.1
-0.066	-0.0068	-0.015	-0.0428	1.8
0.0157	-0.0053	-0.0338	-0.0563	2
0.0757	-0.0091	-0.0405	-0.0495	2
0.0967	-0.0091	-0.039	0.0015	1.9
0.0862	-0.0015	-0.0338	0.0345	2.1
0.027	0.0045	-0.0353	0.042	1.8
-0.0233	0.0127	-0.0256	0.057	2
-0.0293	0.0165	-0.003	0.0442	2.1
-0.0308	0.0097	0.0127	0.0105	1.9
-0.0158	0.0015	0.0322	-0.0203	1.9
-0.003	-0.0038	0.0442	-0.0113	2.1
0.0082	-0.0023	0.0457	0.0232	1.9
0.0202	0.0037	0.0465	0.0105	2
0.015	0.0007	0.03	0.009	2.1
0.009	-0.0008	0.0112	0.0127	1.9
-0.0128	0	0.0037	-0.0068	2
-0.0195	0.0007	0.0022	-0.0083	2
-0.0075	0.0052	-0.0023	-0.003	1.9
-0.003	0.0067	-0.0068	0.0045	2
-0.0053	0.0052	-0.012	0.0007	1.9
-0.0195	0.003	-0.0068	0.006	2.1
-0.0293	0.0015	0.003	0.012	2
-0.033	0.0007	0.0097	0.0045	2.1
-0.0315	-0.0023	0.027	-0.0038	1.9
-0.0203	-0.0015	0.036	-0.0038	2
-0.0143	-0.0023	0.0262	0.003	1.8
-0.012	-0.0015	0.0142	0.0067	2.1
0.0037	-0.003	0.0075	0.0075	1.8
0.018	-0.003	0.003	0.0045	2
-0.0038	0.0022	-0.003	0.0082	1.9
-0.0188	0.0007	-0.0068	0.0082	1.8
-0.0308	-0.003	-0.0038	0.0082	2.1
-0.048	-0.003	-0.0015	0.0015	1.8
-0.0195	-0.0053	-0.0083	0.0007	1.9
0.0082	-0.0053	-0.0105	0.0067	1.8
0.012	-0.0053	-0.0105	-0.0023	1.9
0.0045	-0.0046	-0.0405	-0.0038	2
0.0127	0.0007	-0.078	-0.0113	1.9
0.0277	0.0007	-0.0533	-0.0218	1.9
0.021	-0.0015	-0.0015	-0.042	1.9
0.0112	0.003	0.0127	-0.033	1.9
0.003	0.006	0.0382	0.0052	1.8
0.0172	0.003	0.0532	0.048	2.1
0.0307	0.003	0.051	0.1072	1.8
0.033	0.0075	0.06	0.048	2.1
0.021	0.006	0.0585	-0.0181	2.1
0.0112	0.0075	0.0645	-0.0278	1.8
0.0157	0.003	0.054	-0.015	2.1
0.0067	-0.0046	0.027	0.0577	1.9
-0.003	-0.006	0.0045	0.0172	1.9
-0.0315	-0.0083	0.0082	-0.0188	1.9
-0.048	-0.0083	0.0322	-0.0023	1.9
-0.048	-0.0098	0.0412	-0.0195	1.9
-0.0578	-0.0091	0.0757	-0.0068	1.8
-0.06	-0.006	0.12	-0.0143	2.1
-0.0668	-0.0015	0.0862	-0.0083	1.9
-0.054	0.0067	0.015	-0.0015	1.9
-0.0173	0.0052	-0.0338	-0.0075	1.8
0.018	-0.0015	-0.0638	0.0015	1.9
0.057	-0.0053	-0.0691	-0.0195	1.9
0.1042	-0.0046	-0.0803	-0.0443	2.1
0.1282	0.0022	-0.0795	0.0007	2
0.0892	0.0022	-0.0698	0.0622	1.9
0.033	0.0015	-0.0593	0.0435	2.1
0.0112	0.0007	-0.0285	0.0105	1.8
-0.0015	-0.0015	-0.0046	-0.03	2
-0.0075	-0.0015	0.0082	-0.0278	2.1
-0.0173	-0.0008	0.0067	0.0015	2
-0.0233	-0.0046	0.0202	-0.015	2.1
-0.0233	-0.0068	0.0457	-0.0091	2
-0.0315	-0.0038	0.0645	-0.0308	1.8
-0.024	-0.006	0.0637	-0.0405	2
-0.0158	-0.003	0.0345	-0.0158	1.9
-0.024	0.0007	0.012	-0.0098	1.8
-0.0503	0.0022	0.012	0.0052	2.1
-0.063	0.0037	0.0172	-0.0023	1.9
-0.0608	0.0007	0.0007	-0.0091	1.8
-0.063	0.0045	-0.021	0.0007	2
-0.0458	0.0067	-0.0278	0.0015	1.9
-0.0128	0.0052	-0.0263	0.0052	2
0.0442	0.0067	-0.0233	0.0052	1.9
0.102	0.0052	-0.015	0.0075	2.1
0.147	0.003	-0.0158	0.0142	1.9
0.1357	-0.0008	-0.0195	0.0082	2
0.0517	-0.0023	-0.0083	-0.0015	2
-0.0165	-0.0015	0.0007	-0.0008	1.9
-0.0465	-0.0023	0.0067	-0.0015	1.9
-0.0248	-0.006	0.018	0.0015	1.9
0.0247	-0.0068	0.018	0.0015	1.9
0.0315	-0.0046	0.018	-0.0046	2
0.0015	-0.0015	0.015	0.003	2.1
-0.0225	0.0007	0.003	0.0105	1.9
-0.0315	0.0015	0.0127	0	2.1
-0.0346	-0.0015	0.0187	-0.006	2
-0.0465	0.0045	0.003	0.003	1.9
-0.0548	0.0105	-0.0075	0.0142	2
-0.048	0.009	-0.0023	0.0165	1.8
-0.0458	0.009	-0.0023	0.012	1.9
-0.042	0.012	-0.0083	0.0082	1.8
-0.0383	0.012	-0.0046	0.0015	1.8
-0.0285	0.0082	-0.0046	0	2
-0.012	0.0045	0.006	-0.0008	1.9
-0.0135	0.0015	0.033	-0.003	2
-0.0278	0.003	0.0787	0.0015	2.2
-0.0361	0.0037	0.0907	0.003	2.1
-0.0368	0.003	0.0352	0.0022	1.9
-0.0233	0.003	0.0127	-0.0015	2.1
-0.012	0.0022	0.0232	-0.0038	2.1
-0.0068	0.0007	0.009	-0.003	1.9
-0.0105	0.0007	0.0007	-0.0008	2
-0.015	0.0007	0	0.0007	2
-0.0008	-0.0008	0.033	0.0067	2.2
-0.0143	0.0022	0.0427	0.0127	2
-0.0233	0.003	-0.0091	0.0015	2
-0.012	-0.0008	-0.0256	-0.0338	2
0	-0.0008	-0.0233	-0.0383	2
0.0045	-0.003	-0.0173	-0.0075	2
-0.0158	-0.0053	-0.024	-0.012	2.1
-0.0195	-0.0046	-0.0615	-0.0053	2.1
0.003	-0.0008	-0.0765	0.0022	2.1
0.0097	0.0007	-0.0885	0.0075	2
0.0142	0.0067	-0.0795	0.0225	2
0.024	0.0105	-0.0585	0.0142	2.1
0.0165	0.0052	-0.0323	0.0127	2
0.0112	0	-0.0038	-0.0038	2.2
0.006	-0.0068	0.009	-0.0113	2.2
0.0075	-0.0083	0.0217	-0.0105	2.1
-0.0023	-0.006	0.021	-0.0181	2.3
-0.012	-0.0053	0.0307	-0.0278	2.1
0.0015	-0.0083	0.0352	-0.0346	2.1
0.0187	-0.0046	0.0337	-0.0308	2.2
0.0195	0	0.0405	-0.027	2.1
-0.0083	0.0007	0.0405	-0.0068	2.4
-0.0015	-0.0008	0.0442	0.0352	2.3
0.0007	-0.0038	0.042	0.0315	2.1
0.0112	0	0.0367	0.0022	2.2
0.0232	0	0.024	0.0157	2.3
0.021	-0.0015	0.012	0.0427	2.2
0.0255	0.0015	0.0082	0.084	2.3
0.0075	0.0037	0.0067	0.0435	2.2
0.0015	0.003	0.0105	-0.0015	2.1
-0.0098	0.0022	0.0105	0.0082	2.3
-0.0105	0.003	0.0127	-0.0315	2.1
-0.012	0.0007	0.015	-0.0158	2.4
-0.0233	-0.0015	0.0112	0.0105	2.1
-0.0293	-0.0008	0.0127	-0.0225	2.3
-0.0233	0	0.012	-0.0256	2.3
-0.0046	0.0015	0.0105	-0.015	2.1
0.0045	0.0037	0.0075	-0.0046	2.3
0.018	0.006	0.0045	0.009	2.2
0.0202	0.0052	0.0045	0.0105	2.2
0.0352	0.0045	0.006	0.0082	2.4
0.051	0.006	0.0082	0.0082	2.4
0.0442	0.0075	0.0082	0.0247	2.4
0.0255	0.0052	0.0045	0.0277	2.3
0.0037	0.0067	-0.0083	0.0202	2.2
-0.0105	0.0067	-0.0068	0.0337	2.3
-0.0173	-0.0008	0.0127	0.0165	2.4
-0.0188	-0.0015	0.012	-0.0143	2.2
-0.0256	-0.0015	-0.0135	0.0015	2.3
-0.0225	-0.0053	-0.03	0.027	2.2
-0.0181	-0.0023	-0.0308	0.0105	2.2
-0.0015	-0.0015	-0.0293	0.039	2.3
0.0255	0.003	-0.0173	0.0195	2.2
0.0502	0.003	-0.012	-0.0323	2.2
0.039	-0.0091	-0.0165	-0.0893	2.1
0.0067	-0.0135	-0.0158	-0.1335	2.3
-0.0091	-0.0046	-0.0083	0.018	2.2
-0.0278	-0.0008	-0.0008	0.0322	2.4
-0.033	-0.0075	0.0007	0	2.3
-0.0383	-0.0091	0.0045	-0.0143	2.5
-0.0346	-0.0128	0.0037	-0.1118	2.1
-0.0218	-0.012	0.0067	-0.0608	2.3
-0.0188	-0.0053	0.0105	-0.0091	2.2
-0.0173	-0.0046	0.0067	0	2.3
-0.0053	0.0007	0.006	0.012	2.4
0.0082	0.0052	0.0075	0.0217	2.2
0.0007	0.0052	0.0105	0.0105	2.4
-0.0091	0.003	0.0135	0.0135	2.3
-0.0165	0.003	0.0142	0.0352	2.2
-0.0203	0.0015	0.0142	0.0105	2.4
-0.015	-0.003	0.0127	-0.0218	2.3
-0.0075	-0.0015	0.0127	0.0067	2.3
0.003	0.0022	0.0105	0.0247	2.2
0.0037	0.0052	0.0067	0.0082	2.2
-0.0015	0.0052	0.0082	0.0202	2.4
-0.015	0.0052	0.0232	0.0157	2.5
-0.033	0.0075	0.048	0.0172	2.3
-0.042	0.0037	0.0922	0.0105	2.2
-0.039	0.0037	0.1125	0.0165	2.4
-0.0068	0.003	0.0607	0.0232	2.2
0.0495	-0.0008	0.0052	0.0187	2.4
0.0847	-0.0053	-0.0315	0.0217	2.1
0.0802	-0.0053	-0.0721	-0.0015	2.3
0.0675	-0.0008	-0.0915	-0.027	2.2
0.0502	0.0022	-0.1163	-0.0218	2.2
0.033	0.0045	-0.1335	-0.0091	2.2
0.0247	0.0075	-0.123	-0.0015	2.1
0.015	0.0052	-0.078	0.006	2.4
0.0067	0.0007	-0.0008	0.0007	2.3
0.012	-0.0023	0.063	0.0037	2.3
0.0165	-0.0046	0.0937	0.0022	2.2
0.0097	-0.0023	0.1012	0.0075	2.4
0.0112	0.0022	0.1012	0.0127	2.1
0.0165	0.003	0.09	0.0075	2.3
0.03	-0.0008	0.0802	0.0052	2.4
0.0472	-0.0023	0.063	-0.0008	2.3
0.048	-0.0038	0.0307	-0.0046	2.4
0.021	-0.003	-0.0091	-0.0046	2.1
0.0015	0.0052	-0.039	-0.0046	2.2
0.0082	0.0067	-0.0443	-0.0023	2.3
0.0165	0.0052	-0.0353	0.0052	2.3
0.024	0.003	-0.03	-0.0023	2.3
0.0285	-0.0038	-0.0278	-0.012	2.2
0.0277	-0.0038	-0.0248	-0.0105	2.3
0.018	-0.003	-0.0218	-0.0008	2.3
-0.0015	-0.0038	-0.0158	0.0022	2.2
-0.024	-0.0046	0	-0.0068	2.4
-0.0315	-0.0053	0.018	-0.0046	2.5
-0.0218	-0.006	0.0277	-0.0068	2.2
-0.006	-0.0068	0.0315	-0.0053	2.4
0.0142	-0.0053	0.0345	-0.0046	2.3
0.0262	-0.003	0.0367	-0.0015	2.4
0.0255	0.0007	0.033	-0.0008	2.3
0.0127	0.003	0.0277	-0.0053	2.2
0.0097	0.0045	0.0255	-0.0008	2.5
0.0075	0.0037	0.0262	0.003	2.3
0.006	0.0045	0.0292	0.0045	2.3
0.0127	0.0037	0.0277	0.0082	2.4
0.015	0.0022	0.024	0.009	2.2
0.0142	0.0015	0.024	0.003	2.3
0.009	0.0015	0.0217	0.0142	2.4
0.006	0.0052	0.0195	0.027	2.4
0.0052	0.003	0.018	0.0217	2.5
0.0045	0.0015	0.0165	-0.0008	2.4
0	0.003	0.015	-0.0256	2.2
-0.0053	0.0007	0.0097	-0.0346	2.3
-0.0135	0.0015	0.0022	-0.0405	2.2
-0.027	0.0052	-0.0008	0.0082	2.4
-0.0338	0.0082	0.0022	0.0202	2.5
-0.033	0.0105	0.0187	0.0022	2.2
-0.0293	0.003	0.0345	0.024	2.4
-0.0195	-0.0046	0.0187	0.0157	2.3
-0.0038	-0.0008	0.0127	-0.012	2.4
0.0157	-0.0008	0.0382	-0.0443	2.4
0.0585	-0.0046	0.0405	-0.0675	2.3
0.1012	-0.0038	0.0172	-0.0361	2.4
0.1005	-0.003	-0.0068	0.009	2.3
0.075	-0.0053	-0.021	0.057	2.3
0.057	-0.0068	-0.0346	0.1177	2.4
0.0255	0	-0.039	0.0555	2.4
-0.0015	0.0052	-0.0195	0.0135	2.2
-0.0143	0.0067	-0.0105	0.006	2.5
-0.024	0.003	-0.0188	-0.0555	2.2
-0.0225	-0.006	-0.0195	-0.0181	2.5
-0.027	-0.0015	-0.0128	0.0292	2.4
-0.0405	0.0022	-0.0091	0.0427	2.2
-0.0443	0.0007	-0.0053	0.0262	2.5
-0.0285	-0.0015	-0.0015	-0.0165	2.3
-0.0188	-0.0068	0.0037	-0.0503	2.4
-0.0083	-0.0053	0.006	-0.0555	2.5
0.006	-0.0046	0.0097	-0.0075	2.4
0.0127	-0.0008	0.012	-0.006	2.5
0.0105	0.0022	0.0127	-0.0091	2.4
-0.0053	-0.0008	0.0157	-0.0285	2.5
-0.042	-0.003	0.0165	-0.0593	2.4
-0.0638	0.0007	0.018	-0.0368	2.4
-0.0495	0.006	0.0165	-0.0263	2.2
-0.0503	0.0082	0.0195	-0.0293	2.5
-0.0308	0.009	0.0195	0.0037	2.5
-0.0075	0.006	0.015	0.0675	2.4
-0.015	0.009	0.0165	0.0742	2.4
-0.012	0.0097	0.0165	0.0375	2.4
-0.0128	0.0015	0.0172	0.0405	2.6
-0.0098	-0.0046	0.015	0.015	2.4
-0.0135	-0.0053	0.012	0.0112	2.5
-0.0128	-0.0038	0.0105	0.012	2.3
-0.0053	-0.0015	0.0097	-0.0135	2.4
-0.003	-0.0015	0.009	0.0067	2.4
-0.0008	-0.0008	0.009	-0.0091	2.4
-0.0068	0	0.0052	-0.0053	2.4
-0.0053	0.0022	-0.0008	-0.0008	2.4
-0.0075	0.0037	-0.003	-0.0038	2.4
-0.0091	0.0067	-0.0038	0.0045	2.3
-0.0105	0.0082	-0.006	-0.021	2.5
-0.012	0.0052	-0.0046	-0.033	2.3
-0.0083	0	-0.0046	-0.0293	2.4
-0.0068	-0.0046	-0.006	-0.024	2.4
-0.0075	-0.012	-0.0053	-0.027	2.2
-0.0075	-0.0091	-0.0068	0.033	2.4
-0.0083	-0.003	-0.0053	0.048	2.3
-0.0083	-0.003	-0.0015	-0.0105	2.4
-0.0068	-0.0015	-0.0008	0.0262	2.4
-0.0091	-0.003	0.0007	0.0315	2.3
-0.0113	-0.0068	-0.0008	-0.003	2.6
-0.012	-0.0023	0.0007	-0.039	2.4
-0.0135	0.0015	0.0015	-0.0181	2.5
-0.015	0.0007	0.0015	0.003	2.4
-0.015	0.0007	0.003	-0.0308	2.6
-0.0128	0.003	0.003	-0.0143	2.3
-0.0068	0.0067	0.003	0.03	2.6
-0.003	0.0097	0.0067	0.0585	2.4
-0.0038	0.006	0.0075	0.0007	2.6
-0.0008	0.0022	0.0045	-0.0113	2.6
0.009	0.0007	0.0015	-0.0046	2.5
0.0232	-0.0023	-0.0046	0.0412	2.6
0.0127	-0.0023	-0.0046	0.0225	2.4
-0.0165	0.0015	0.003	-0.03	2.6
-0.0488	0.0052	0.0052	0.0127	2.6
-0.0721	0.0052	0.0015	0	2.5
-0.078	0.006	-0.0008	0.0457	2.6
-0.0645	0.006	-0.0023	0.0637	2.6
-0.0203	-0.0008	-0.0038	0.0645	2.6
0.0427	-0.0098	0.0037	0.0442	2.6
0.0742	-0.0165	0.003	-0.054	2.6
0.048	-0.0128	-0.0046	-0.1155	2.5
0.0232	0.0015	-0.0091	-0.0953	2.6
0.0142	0.018	-0.0158	0.0112	2.6
-0.0015	0.0195	-0.015	0.033	2.6
-0.003	0.0105	-0.0098	-0.0511	2.6
-0.0053	0.0015	-0.0038	-0.1006	2.6
-0.003	-0.0075	0.0007	-0.0128	2.7
0.0015	-0.0105	0.0015	0.0292	2.6
0.0045	-0.0083	0.0045	-0.0653	2.8
0.015	-0.006	0.0037	-0.0091	2.6
0.0187	-0.0046	0.0015	0.006	2.7
0.0232	-0.0015	0.0015	-0.0015	2.9
0.0217	0.0007	0.0045	0.0322	2.9
0.018	-0.003	0.006	-0.003	3
0.0112	-0.0046	0.0067	0.039	2.7
0.009	0.0007	0.0067	0.0435	2.9
0.0037	0.0052	0.0067	0.0435	2.9
0.0007	0.0015	0.0067	0.0345	3
0	-0.0038	0.009	0.0195	2.8
-0.003	-0.006	0.0082	-0.0075	3
-0.0046	-0.0046	0.006	-0.0706	3
-0.003	0.0007	0.0052	-0.0165	2.7
0.0105	0.0067	0.009	0.0307	3.1
0.0187	0.0082	0.0195	0.0007	2.8
0.0067	0.0082	0.0202	-0.0143	3
-0.0046	0.0075	0.009	-0.0143	3
-0.0053	0.0045	0.0052	-0.0263	2.8
-0.0105	0.0007	0.0007	-0.0555	3
-0.012	-0.0068	-0.0023	-0.0743	3
-0.0113	-0.0068	-0.0046	-0.0436	2.9
-0.0181	0.0075	-0.006	0.0345	3
-0.027	0.0135	-0.0083	0.0457	3
-0.027	0.012	-0.0068	0.0067	3
-0.0091	0.0097	-0.003	0.036	3.1
0.0015	0.0007	-0.0023	0.042	2.9
-0.003	-0.0068	-0.0015	0.033	3.2
-0.0113	-0.0098	0.0007	0.0315	3.2
-0.0075	-0.012	0.0045	0.03	3.1
-0.0008	-0.0083	0.0105	0.0382	3.3
0.003	-0.0046	0.0157	0.0442	3
-0.0068	-0.003	0.018	0.0397	3.3
-0.027	-0.0023	0.0195	0.0135	3.2
-0.0398	-0.003	0.0202	0.015	3.2
-0.0256	-0.0008	0.0217	-0.003	3.2
0.009	-0.0038	0.024	-0.054	3.2
0.0442	-0.0053	0.024	-0.054	3.2
0.087	-0.0038	0.024	0.0127	3.3
0.1245	-0.0038	0.024	0.0187	3.5
0.15	-0.0023	0.027	-0.0068	3.2
0.1575	-0.0046	0.027	-0.0128	3.4
0.1507	-0.0046	0.0277	-0.0443	3.4
0.1417	-0.0023	0.0285	-0.0008	3.4
0.1252	-0.0023	0.027	-0.0068	3.4
0.1005	0.0007	0.0255	-0.024	3.4
0.069	0.0037	0.021	0.0045	3.5
0.0337	0.0052	0.0195	0.0022	3.5
0.0007	0.0067	0.0195	0.0157	3.6
-0.0293	0.0052	0.021	0.0075	3.5
-0.0563	0.003	0.0217	0.0045	3.5
-0.0803	0.003	0.018	0.0015	3.6
-0.0975	0.0015	0.0165	-0.003	3.6
-0.1088	0	0.0135	-0.0105	3.6
-0.1155	-0.0008	0.0135	-0.0233	3.6
-0.1193	-0.0008	0.0127	-0.0195	3.7
-0.1178	0.0015	0.012	-0.015	3.5
-0.111	0.0052	0.0127	0	3.8
-0.1006	0.0067	0.009	0.0202	3.6
-0.0915	0.003	0.0045	0.0427	3.9
-0.0803	0.0022	-0.0008	0.027	3.7
-0.0706	0.0007	-0.0038	-0.0015	3.6
-0.0653	0	-0.003	-0.0046	3.8
-0.0555	0.0007	-0.003	0.0045	3.6
-0.0465	0.0015	-0.0053	0.0142	3.8
-0.045	0.0045	-0.0091	0.0142	3.9
-0.0503	0.0037	-0.012	-0.0098	3.8
-0.0555	0.0015	-0.012	-0.0225	3.8
-0.0608	0.0015	-0.0105	0.0135	3.8
-0.06	0.003	-0.012	0.0255	3.8
-0.06	0.0052	-0.015	0.03	3.8
-0.0683	0.0052	-0.0128	0.024	3.8
-0.0706	0.0015	-0.0105	-0.0015	3.8
-0.0773	-0.003	-0.012	-0.0405	4
-0.0825	-0.0105	-0.0128	-0.0728	3.9
-0.0863	-0.0083	-0.0135	-0.0338	4.1
-0.0983	-0.0008	-0.0128	-0.0188	4
-0.1043	-0.0015	-0.0091	-0.0308	4
-0.1095	-0.0023	-0.0046	-0.0053	4.1
-0.114	-0.003	0.0015	0.018	4.1
-0.117	-0.003	0.0037	0.018	4.1
-0.1125	0	0.0022	0.0135	4.2
-0.105	0.0052	0.0007	0.015	4.1
-0.1006	0.009	-0.003	0.0105	4.2
-0.093	0.009	0	0.0105	4.2
-0.0706	0.009	0.0015	0.006	4.3
-0.0308	0.0082	-0.0008	-0.0015	4.1
0.0067	0.006	-0.0015	-0.0075	4.2
0.0472	0.0037	-0.0015	-0.0083	4
0.0765	0.0052	-0.0023	-0.003	4.2
0.0937	0.0045	-0.0015	0.0127	4.3
0.0997	0.0015	0.0007	0.0307	4.5
0.0967	-0.0015	0.0007	0.0022	4.4
0.0915	-0.0038	0.003	-0.0278	4.5
0.0802	-0.0015	0.0037	-0.0038	4.6
0.0727	-0.0015	0.0037	-0.0038	4.5
0.0607	-0.0008	0.0045	0.0022	4.6
0.0495	0.0007	0.0067	0.0172	4.6
0.0375	0.0007	0.0075	0.0127	4.6
0.0255	0	0.0082	0.018	4.8
0.0142	-0.0038	0.006	0.0045	4.6
0.0075	-0.0038	0.0022	-0.0075	4.7
0.0037	-0.003	0.0015	-0.0128	4.8
0.0015	-0.0046	0.0015	-0.0165	4.8
0.0045	-0.0038	-0.0008	-0.0083	4.7
0.0082	-0.0015	-0.003	-0.0075	4.9
0.0082	-0.0023	-0.003	-0.0256	4.8
0.0097	-0.003	-0.0046	-0.0248	4.8
0.0142	-0.0008	-0.003	-0.0105	5.1
0.0187	-0.0008	0.0015	0.0015	4.9
0.024	-0.0008	0.0022	0.0502	5.3
0.0285	-0.0015	0.0015	0.0907	5
0.0292	-0.0068	-0.003	0.0255	5.1
0.024	-0.0068	-0.003	-0.0608	5.1
0.018	0.0022	0.0007	-0.0075	5.3
0.0105	0.0075	0.0045	0.015	5.2
0.003	0.003	0.009	-0.0068	5.2
-0.006	0.0015	0.009	0.0127	5.3
-0.0158	0.0022	0.0052	-0.012	5.3
-0.027	0.0015	0.0045	-0.0083	5.5
-0.033	0.003	0.0067	-0.0203	5.3
-0.0383	0.003	0.0067	-0.0278	5.4
-0.0375	0.0022	0.0075	-0.0293	5.4
-0.0353	0.0037	0.0075	-0.0368	5.4
-0.0315	0.0007	0.009	-0.0038	5.6
-0.0233	-0.0053	0.0142	0.0307	5.5
-0.0105	-0.0075	0.0142	0.0315	5.8
0.012	-0.0105	0.0105	0.0435	5.4
0.0285	-0.012	0.0097	0.0427	5.6
0.0247	-0.0091	0.0082	-0.0181	5.7
0.0307	-0.003	0.009	0.0112	5.7
0.048	-0.003	0.0105	-0.0038	5.8
0.0592	-0.0015	0.009	-0.0188	5.6
0.0555	0.003	0.0082	0.0142	5.8
0.0562	0.0045	0.0067	-0.0046	5.8
0.051	0.0105	0.0075	0.0232	5.9
0.0405	0.015	0.0202	0.0052	5.7
0.0592	0.009	0.0292	-0.0105	5.9
0.0712	0.0045	0.0255	-0.0158	5.9
0.0855	0.0007	0.0217	-0.0053	6.1
0.093	0.0015	0.0225	0.0105	6.1
0.0967	0.003	0.024	-0.0075	6
0.1042	0.0015	0.0217	0.003	6.2
0.1042	0.0022	0.0195	-0.0015	6.1
0.1087	0.0022	0.0187	0.0015	6.1
0.1072	0.006	0.0157	0.0105	6.3
0.1057	0.0112	0.012	0.0157	6.1
0.1027	0.009	0.009	0.0142	6.3
0.1012	0.0075	0.0082	0.0277	6.3
0.1005	0.0037	0.0045	0.045	6.3
0.0967	-0.0046	0.003	-0.0346	6.3
0.093	-0.0046	0.003	-0.0443	6.3
0.087	-0.0023	0.0007	0.0697	6.4
0.0825	-0.0038	-0.0015	0.0067	6.6
0.075	-0.0015	-0.0046	-0.0256	6.4
0.0675	0.0007	-0.0053	0.0457	6.4
0.0585	-0.0046	-0.0068	-0.0218	6.5
0.0517	-0.0128	-0.0053	-0.1043	6.3
0.042	-0.0158	-0.0046	-0.1448	6.5
0.0337	-0.0105	-0.006	-0.0923	6.4
0.027	-0.0046	-0.0098	-0.0046	6.6
0.0202	0.0015	-0.015	0.0052	6.7
0.0142	0.0067	-0.0278	0.0232	6.6
0.0082	0.0052	-0.081	0.0457	6.6
0.003	0.0007	-0.195	0.021	6.6
-0.0015	-0.0015	-0.2918	-0.012	6.5
-0.003	-0.0008	-0.2783	0.0015	6.6
-0.0053	0	-0.1898	0.012	6.7
-0.0053	0.0007	-0.078	-0.0083	6.6
-0.0075	-0.0008	0.0172	0.0105	6.7
-0.0128	0.0045	0.0615	0.018	6.7
-0.0203	0.0082	0.0915	0.0195	6.7
-0.0263	0.009	0.1155	0.0202	6.9
-0.0293	0.0105	0.1357	0.0277	6.8
-0.0315	0.0075	0.1537	0.0517	7
-0.0361	0.0015	0.1567	0.0345	6.9
-0.0383	-0.0038	0.1537	-0.0143	6.9
-0.0405	-0.0098	0.141	-0.0256	7.1
-0.0405	-0.0046	0.129	0.0127	7
-0.0405	-0.003	0.114	0.0045	7
-0.0405	-0.0053	0.1012	0.0015	7
-0.0346	-0.0008	0.09	0.009	7
-0.0308	0.0037	0.0825	0.0045	7
-0.0315	0.0037	0.0772	0.0082	7.1
-0.033	0.0007	0.0705	-0.0105	7.2
-0.0353	-0.0008	0.063	-0.0068	7.2
-0.0383	0.0022	0.054	0	7.2
-0.0398	0.0015	0.0465	-0.0008	7.2
-0.0436	-0.0015	0.0375	0.0007	7.4
-0.0473	-0.0008	0.03	0.0007	7.1
-0.0398	-0.0038	0.0217	0.003	7.3
-0.0233	-0.0046	0.012	-0.003	7.2
-0.0008	-0.003	0.009	-0.0015	7.2
0.0255	-0.0015	0	0.003	7.3
0.045	0.0022	-0.0053	-0.0068	7.2
0.0532	0.0022	-0.0091	-0.0203	7.2
0.0502	0.003	-0.015	-0.0256	7.4
0.0442	0.0022	-0.0158	-0.024	7.4
0.0352	-0.0008	-0.0188	-0.0091	7.5
0.0255	-0.003	-0.021	0.0187	7.4
0.015	-0.0046	-0.021	0.0292	7.5
0.0052	-0.0023	-0.024	0.0165	7.6
-0.003	0.0015	-0.0256	0.0277	7.5
-0.0105	0.003	-0.024	0.0232	7.4
-0.0158	0.0022	-0.0225	0.0067	7.6
-0.0233	0.0007	-0.0218	0.0082	7.6
-0.0278	-0.0015	-0.021	0.0015	7.6
-0.0346	0	-0.0203	0.0037	7.6
-0.0413	0.0007	-0.0188	-0.0015	7.6
-0.0465	0.0015	-0.0173	-0.0038	7.7
-0.0518	-0.0008	-0.0158	-0.0113	7.8
-0.0555	-0.0015	-0.0128	-0.0181	7.8
-0.0555	-0.0015	-0.0143	-0.0143	7.8
-0.0533	-0.0015	-0.0158	-0.0105	7.8
-0.0511	0.0022	-0.0135	-0.0015	7.8
-0.0465	0.0037	-0.012	-0.0023	7.9
-0.042	0.003	-0.0135	-0.0091	7.9
-0.039	0.003	-0.012	-0.021	7.9
-0.042	-0.0015	-0.0113	-0.0263	7.9
-0.0436	-0.003	-0.0098	-0.0083	7.9
-0.0488	-0.0038	-0.0105	0.0352	8.1
-0.0623	-0.0046	-0.0105	0.045	7.9
-0.078	0.003	-0.0083	0.0172	8.1
-0.0923	0.0075	-0.0098	0.0202	7.9
-0.0998	0.0067	-0.006	0.0112	8.1
-0.1028	0.0052	-0.003	-0.0015	8.2
-0.099	0	-0.003	-0.0046	8.2
-0.093	-0.0038	-0.003	0.0015	8.2
-0.0788	-0.0083	-0.0053	0.0127	8.4
-0.063	-0.0105	-0.003	-0.0368	8.2
-0.0443	-0.0008	-0.0038	-0.0203	8.4
-0.0346	0.0052	-0.0038	0.0375	8.4
-0.0346	0.006	-0.0008	0.0105	8.4
-0.0278	0.0067	-0.0008	0.0067	8.4
-0.021	0.003	-0.0008	-0.0128	8.6
-0.0128	-0.0015	0	-0.0518	8.6
-0.0046	-0.0053	0.0015	-0.0518	8.7
0.0045	-0.0038	0.0015	-0.024	8.5
0.0127	-0.0008	0.0007	0.0007	8.6
0.0157	-0.0015	0.0015	-0.003	8.7
0.0165	0	0.0037	0.0247	8.7
0.0165	0.0007	0.0052	0.033	8.7
0.0157	-0.0046	0.006	0.0015	8.7
0.0105	-0.0038	0.0075	-0.0165	8.6
0.0075	0.003	0.009	0.0052	8.9
0.0067	0.0052	0.009	0	8.9
0.0067	0.0045	0.009	-0.0068	8.9
0.0075	0.003	0.0082	0.0022	9
0.0052	0.003	0.009	-0.0083	9
0.006	0.0015	0.0097	0.0007	8.9
0.0067	-0.0015	0.0112	0.0232	9.2
0.0105	0.0007	0.012	0.0322	8.9
0.0127	0.0015	0.0105	0.024	9.1
0.0165	0.0045	0.012	0.0442	9
0.021	0.0045	0.0112	0.0352	9.2
0.024	0.0007	0.0105	0.018	9
0.0277	-0.0015	0.009	-0.0285	9.1
0.0292	-0.0075	0.009	-0.0893	9.2
0.03	-0.0053	0.0075	-0.0428	9.3
0.0315	0	0.006	0	9.3
0.0345	-0.0008	0.0082	-0.0038	9.4
0.0367	0.0007	0.009	0.0015	9.3
0.0375	0.0045	0.0105	0.0052	9.4
0.036	0.0045	0.0105	0.0052	9.4
0.0375	0.0045	0.012	0.0172	9.4
0.0382	0.003	0.0135	0.0157	9.4
0.0367	-0.0015	0.0105	-0.0023	9.5
0.033	-0.0053	0.0105	-0.0181	9.4
0.03	-0.003	0.0135	-0.0361	9.6
0.0292	0.0007	0.0127	-0.0428	9.5
0.0285	0.0045	0.0105	-0.0173	9.6
0.0292	0.006	0.0075	0.0037	9.8
0.0292	0.003	0.0052	-0.0128	9.7
0.0277	-0.0008	0.0052	-0.0015	9.7
0.027	-0.0053	0.0045	0.0442	9.9
0.024	-0.006	0.0022	-0.0203	9.8
0.021	-0.003	0.003	-0.0593	9.9
0.0195	-0.0068	0.0037	-0.0413	9.9
0.0187	-0.0113	0.0015	-0.0181	9.9
0.018	-0.0083	0.0022	0.099	9.9
0.018	-0.0046	0.003	0.0292	10.1
0.0187	-0.003	0.003	0.0255	10
0.0187	0.003	0.003	0.0532	10.1
0.0187	0.0082	0.003	0.0255	9.9
0.0202	0.018	0.0015	0.111	10.3
0.0202	0.0172	0.0007	0.0292	10.1
0.0187	0.0037	0.0022	-0.045	10.3
0.0157	-0.0015	0.0037	-0.0728	10.3
0.012	-0.0046	0.0052	-0.0473	10.2
0.009	0	0.006	-0.0098	10.3
0.0052	0.0067	0.0067	-0.0083	10.4
0.0015	0.0022	0.0067	0.054	10.4
0.0007	-0.0015	0.0082	0.0502	10.4
-0.003	-0.0023	0.009	-0.0053	10.4
-0.0068	0.0045	0.0075	-0.0233	10.4
-0.0128	0.0112	0.0075	0.027	10.6
-0.0165	0.0045	0.0052	0.0022	10.4
-0.0181	-0.0015	0.0045	-0.0248	10.5
-0.0218	-0.0046	0.0097	-0.0053	10.7
-0.024	-0.0046	0.015	-0.0225	10.6
-0.0278	-0.0015	0.015	-0.0256	10.7
-0.0293	-0.0008	0.0157	-0.0098	10.7
-0.03	0.0052	0.0165	0.0022	10.7
-0.0285	0.0037	0.0157	0.012	10.8
-0.0263	-0.003	0.0142	0.0255	10.7
-0.0293	-0.0091	0.0165	-0.0465	10.8
-0.0323	-0.0105	0.0195	-0.1163	10.9
-0.0315	-0.0046	0.0195	-0.042	10.7
-0.0293	0.0007	0.0202	0.027	11
-0.0256	0.0045	0.0195	0.0187	10.8
-0.024	0.0052	0.018	0.021	11
-0.0218	0.0022	0.018	0.0315	11
-0.0218	0.0007	0.0142	0.03	11
-0.0203	0.0015	0.0135	0.0547	11
-0.0195	0.0007	0.0127	0.06	11.3
-0.015	-0.0015	0.012	0.0375	11
-0.012	0.0007	0.009	0.0495	11.2
-0.0091	0.003	0.0052	0.033	11.3
-0.0046	-0.0008	0.0075	-0.0091	11.2
-0.0023	-0.0015	0.0067	-0.0135	11.2
-0.0023	0.003	0.006	-0.0053	11.2
-0.0015	0.0067	0.0045	0.0007	11.2
0.0015	0.009	0.0022	0	11.4
0.0007	0.0075	0.0007	-0.0038	11.3
-0.003	0.0052	-0.0015	0	11.6
-0.0075	0.003	-0.0038	-0.0015	11.3
-0.0098	0.0015	-0.0053	0.0015	11.6
-0.0113	0.0052	-0.006	0.0172	11.6
-0.0143	0.006	-0.0053	0.0187	11.8
-0.0143	0.0052	-0.0068	0.0157	11.5
-0.012	0.0037	-0.0098	0.0142	11.8
-0.0135	-0.003	-0.0113	-0.0015	11.7
-0.0143	-0.0128	-0.0143	-0.0143	11.8
-0.0128	-0.0181	-0.0158	-0.0675	11.8
-0.0098	-0.0158	-0.0158	-0.1021	11.8
-0.0091	-0.003	-0.0165	-0.0361	11.9
-0.0105	0.003	-0.0158	-0.0398	11.9
-0.0091	-0.0046	-0.0143	-0.0128	12.1
-0.0091	-0.0053	-0.0143	-0.012	12.1
-0.012	-0.0023	-0.0143	-0.0413	12.1
-0.0128	0.0022	-0.012	0.0277	12.2
-0.015	0.0015	-0.0135	0.0007	12.1
-0.0181	-0.0015	-0.0128	0.0105	12.2
-0.0218	-0.0053	-0.012	0.0097	12.1
-0.027	-0.0105	-0.012	0.0007	12.4
-0.0293	-0.0068	-0.0091	0.0157	12.5
-0.0338	-0.0023	-0.0083	0.0052	12.5
-0.0353	0	-0.006	0.0105	12.4
-0.0368	-0.0008	-0.003	-0.0068	12.6
-0.039	-0.0008	-0.0015	0	12.6
-0.0383	0.0045	0.0007	-0.0038	12.6
-0.039	0.009	0.003	0	12.8
-0.0405	0.009	0.003	0.0045	12.8
-0.0428	0.0045	0.0045	0.0165	12.7
-0.0443	0.0022	0.0082	0.0097	13
-0.0436	-0.0015	0.009	0.0082	13
-0.0443	-0.003	0.0112	0.0157	13.2
-0.0465	0.0022	0.012	-0.015	12.9
-0.0495	0.003	0.0135	0.003	13.1
-0.0473	0.0015	0.0142	0.0052	13
-0.0473	0.003	0.0165	0	13.1
-0.0458	0.003	0.0165	0.006	13.2
-0.042	0.0067	0.0142	-0.0046	13.4
-0.0398	0.0075	0.0165	0.0127	13.3
-0.0368	0.0067	0.018	0.0165	13.4
-0.0368	0.0075	0.0187	0.0142	13.4
-0.03	0.003	0.0202	0	13.4
-0.0203	-0.006	0.0195	-0.0465	13.5
-0.0105	-0.0098	0.0202	-0.078	13.3
-0.0008	-0.0046	0.0202	-0.0473	13.6
0.0105	0.003	0.0165	-0.0165	13.7
0.021	0.0067	0.0157	-0.0091	13.6
0.0255	0.0067	0.0172	0.036	13.8
0.03	0.0015	0.015	0.0435	13.6
0.0337	0	0.0142	0.0345	13.8
0.033	0.0007	0.0127	0.0802	13.9
0.0315	0.0015	0.012	0.0465	13.9
0.0315	0.0052	0.015	0.0105	13.9
0.0345	0.003	0.015	0.0172	14.1
0.033	0	0.0142	-0.0308	13.9
0.0292	-0.003	0.012	-0.0278	14.2
0.024	-0.006	0.0097	-0.0068	14.3
0.0127	-0.0053	0.0112	0.0067	14.2
0.0127	-0.003	0.0105	0.0052	14.4
0.0217	-0.0008	0.0105	0.0015	14.3
0.0195	-0.0008	0.012	0.009	14.3
0.024	0.0015	0.0105	-0.0015	14.4
0.0262	0.0007	0.0112	0.0045	14.3
0.0217	0.0015	0.012	0.0022	14.6
0.0345	0.0045	0.009	0.003	14.4
0.039	0.006	0.009	-0.0023	14.5
0.0457	0.0067	0.0082	-0.0075	14.7
0.0562	0.003	0.0067	-0.0105	14.6
0.0637	0.003	0.0082	-0.012	14.7
0.0742	0.0022	0.0067	-0.0083	14.8
0.078	0.0007	0.0075	-0.0075	14.8
0.0825	-0.0008	0.0075	-0.0053	14.9
0.087	-0.0015	0.0052	-0.0083	14.8
0.0855	-0.0008	0.006	-0.0038	14.9
0.0862	-0.0015	0.0075	-0.0015	15.1
0.0832	-0.0008	0.006	-0.0015	15.1
0.0825	-0.0023	0.003	0.0015	15.3
0.0802	-0.0068	0.003	-0.0015	15.3
0.0765	-0.0046	0.003	-0.0038	15.3
0.0727	-0.0015	0.003	0	15.4
0.0697	-0.0023	0.0045	0.006	15.3
0.069	-0.0008	0.0022	0.0052	15.3
0.0622	0	0.0037	0	15.6
0.057	0.0007	0.0052	0.0007	15.6
0.0495	-0.0008	0.0067	0.0112	15.7
0.042	-0.003	0.0082	0.0165	15.7
0.0382	-0.0015	0.0082	0.0217	15.6
0.033	-0.003	0.009	0.027	15.8
0.0292	-0.0053	0.0082	0.0142	15.8
0.024	-0.0068	0.0067	-0.0181	15.9
0.0195	-0.0083	0.0067	-0.0278	15.9
0.018	-0.006	0.009	-0.0128	15.9
0.0157	-0.0038	0.0082	-0.0143	16.1
0.0142	-0.0008	0.0067	-0.0128	16.2
0.0135	0.0007	0.009	-0.0158	16
0.0135	0	0.0082	-0.0158	16.4
0.0157	0.0022	0.0082	-0.0075	16.2
0.0165	0.003	0.009	0.012	16.4
0.0165	0.0015	0.009	0.042	16.5
0.015	0.0007	0.0097	0.033	16.5
0.0127	0	0.009	0.0255	16.6
0.0105	-0.0008	0.0082	0.033	16.6
0.0052	-0.003	0.009	-0.0046	16.5
0.0015	-0.006	0.009	-0.0668	16.8
-0.0038	-0.0068	0.0067	-0.0848	16.8
-0.0083	-0.0008	0.0052	-0.0143	16.7
-0.0143	0.0082	0.0082	0.009	17
-0.0203	0.0097	0.0052	-0.0053	16.9
-0.0278	0.0105	0.0045	0.012	17
-0.0346	0.009	0.0045	0.0045	17.2
-0.0383	0.0067	0.003	0.042	17.2
-0.0443	0.0067	0.0045	0.033	17.2
-0.0488	0.0045	0.003	-0.0413	17.3
-0.0525	0.0007	0.0015	-0.0203	17.4
-0.0555	0.0007	0	0.0292	17.3
-0.057	0.0015	-0.0008	0.0255	17.4
-0.063	-0.0008	-0.0008	0.0067	17.4
-0.0721	-0.0046	-0.0015	-0.024	17.6
-0.078	-0.0053	-0.0008	-0.0046	17.6
-0.075	-0.003	0.0022	-0.0053	17.9
-0.0765	-0.0038	0.0015	-0.0443	17.9
-0.075	-0.0046	0.0007	-0.0563	17.8
-0.075	-0.0053	-0.0008	-0.096	17.9
-0.0758	-0.0068	-0.0008	-0.0053	17.8
-0.0706	0	-0.0008	0.072	18
-0.0691	0.0082	0.0022	0.0442	18.2
-0.0645	0.0075	0.003	0.0352	18
-0.0578	0.0082	-0.0008	-0.0173	18.2
-0.0525	0.0082	0.0007	-0.0128	18.4
-0.0488	0.0082	0.003	0.0052	18.4
-0.0465	0.0045	0.003	0.0427	18.4
-0.0428	-0.0015	0.0045	0.0495	18.5
-0.0398	-0.0068	0.006	0.0442	18.5
-0.0368	-0.0083	0.0067	0.0675	18.8
-0.0353	-0.0098	0.0052	-0.0091	18.7
-0.0338	-0.0098	0.006	-0.006	18.8
-0.0308	0.0015	0.0037	0.0202	18.9
-0.0315	0.003	0.0007	0.003	18.8
-0.0308	-0.0023	-0.0008	0.0232	19
-0.0293	-0.0015	-0.0008	-0.0053	19
-0.0285	0	-0.0015	-0.0375	19
-0.0248	-0.0053	0	-0.048	19.4
-0.0218	-0.0046	0.0015	-0.033	19.2
-0.0165	-0.0008	0.0007	-0.0158	19.3
-0.0128	0.0007	0	-0.0188	19.4
-0.0113	0.0007	-0.0008	-0.0195	19.4
-0.0091	-0.0008	0	-0.0353	19.5
-0.0068	0.0022	0.0007	-0.027	19.6
-0.0053	0.0045	0.0015	-0.0181	19.6
-0.0023	0.0045	0.003	-0.0053	19.8
0.003	0.0007	0.0015	0.0382	19.8
0.006	-0.0015	0.003	0.0427	19.8
0.0075	-0.0015	0.0045	-0.0091	19.9
0.009	0.003	0.0045	-0.0091	20
0.0135	0.0082	0.0075	0.0105	20.1
0.0157	0.009	0.0082	0.0157	20.2
0.0172	0.0082	0.006	0.0435	20.2
0.018	0.003	0.0045	0.0105	20.3
0.018	0.0015	0.0067	-0.0308	20.4
0.0187	0.0052	0.0052	-0.0008	20.5
0.0172	0.0067	0.0052	0.0352	20.6
0.0202	0.0112	0.0082	0.027	20.5
0.0217	0.015	0.0052	0.0277	20.7
0.021	0.0075	0.0052	0.0067	20.7
0.0202	-0.0008	0.0045	-0.0248	20.7
0.0202	-0.0046	0.0045	-0.0593	20.9
0.0202	0	0.0067	-0.0413	21
0.018	0.0015	0.003	0.012	21
0.0172	-0.0046	0.0045	0.012	21.1
0.0202	-0.006	0.006	0.018	21.1
0.027	-0.0038	0.0052	0.0007	21.2
0.0382	-0.003	0.0037	0.0015	21.4
0.0517	0.003	0.0052	0.0082	21.3
0.0645	0.0082	0.0082	0.0075	21.6
0.0742	0.0105	0.0105	0.0202	21.5
0.0765	0.009	0.0127	0.0202	21.5
0.078	0.0082	0.0142	0.0277	21.7
0.0787	0.0097	0.0142	0.0217	21.9
0.0757	0.0052	0.012	0.0075	21.9
0.0712	-0.0023	0.012	-0.0165	21.7
0.0645	-0.006	0.0112	-0.0218	22
0.054	-0.003	0.0105	-0.0083	22.1
0.0435	-0.0046	0.0097	-0.0046	22.1
0.036	-0.006	0.0052	-0.0083	22.1
0.027	-0.0128	0.0045	-0.0181	22.3
0.0127	-0.0158	0.0045	-0.003	22.2
0.0037	-0.0046	0.0007	-0.0008	22.5
-0.0053	-0.0053	-0.0015	-0.0195	22.4
-0.015	-0.0113	-0.003	-0.0346	22.4
-0.0225	-0.0105	-0.003	-0.042	22.5
-0.0285	-0.0083	-0.0015	-0.0181	22.6
-0.0346	-0.0091	0.0015	-0.0128	22.7
-0.0353	-0.0158	0.003	-0.021	22.9
-0.0353	-0.0083	0.0067	0.009	22.8
-0.0346	0.0007	0.009	0.0345	22.9
-0.0346	0.003	0.0135	0.015	22.9
-0.0315	0.0075	0.0157	-0.0053	23
-0.03	0.0105	0.018	0.0142	23.2
-0.0263	0.012	0.0202	0.0277	23.3
-0.0256	0.0067	0.0157	0.0307	23.3
-0.0278	0.0007	0.0135	0.0142	23.4
-0.0293	0.0015	0.0127	0.0097	23.3
-0.033	0.0015	0.0097	0.0307	23.4
-0.033	-0.0053	0.0082	0.0082	23.4
-0.0346	-0.0053	0.006	-0.012	23.4
-0.0383	-0.0038	0.0015	-0.0518	23.8
-0.039	-0.006	-0.003	-0.093	23.6
-0.039	-0.0046	-0.0038	-0.0525	23.7
-0.0405	-0.0038	-0.0075	0.0375	23.8
-0.042	-0.0015	-0.0105	0.0825	23.8
-0.045	0.0112	-0.015	0.0435	23.9
-0.048	0.0202	-0.0203	0.0195	23.8
-0.0503	0.018	-0.0256	0.0352	24.1
-0.0503	0.0195	-0.0278	0.0217	24.1
-0.0518	0.0165	-0.0285	0.0352	24.2
-0.0503	0.012	-0.0256	0.0315	24.3
-0.0428	0.003	-0.0188	0.0007	24.5
-0.033	-0.0015	-0.0128	-0.0105	24.4
-0.0195	0.0097	-0.0053	-0.0068	24.6
-0.0015	0.0127	0.0015	-0.0308	24.6
0.0142	0	0.0105	-0.0713	24.7
0.0277	-0.0098	0.018	0.006	24.7
0.0405	-0.0128	0.0232	0.0375	24.8
0.051	-0.0158	0.027	0.0112	24.8
0.06	-0.0075	0.0262	-0.0158	25
0.0637	-0.0038	0.027	-0.0728	25
0.0652	-0.006	0.0247	-0.024	25.1
0.0592	-0.006	0.0232	-0.0165	25.2
0.0517	-0.0143	0.0202	-0.0263	25.3
0.0427	-0.0218	0.018	-0.0256	25.4
0.0352	-0.0338	0.0187	-0.042	25.4
0.0255	-0.0383	0.018	-0.0113	25.4
0.0165	-0.0308	0.018	-0.024	25.6
0.009	-0.021	0.0157	0.0037	25.6
0.0022	-0.0113	0.0127	0.0165	25.6
-0.0046	-0.0075	0.0105	0.0082	25.8
-0.0091	0.0052	0.009	0.024	25.7
-0.0098	0.0315	0.009	0.0292	25.9
-0.0105	0.0442	0.0045	0.03	26
-0.0128	0.018	0.003	0.0142	26
-0.0158	0.006	0.0015	0.0127	26.2
-0.0165	0.0262	-0.0015	-0.0091	26.1
-0.0181	0.0322	-0.003	-0.0218	26.2
-0.0195	0.0255	-0.003	-0.0068	26.3
-0.0158	0.0052	-0.0023	-0.0143	26.4
-0.0143	-0.0068	-0.0008	-0.024	26.3
-0.0135	-0.0165	-0.0023	0.027	26.7
-0.0091	-0.0203	-0.0053	0.0397	26.5
-0.0075	-0.0015	-0.003	0.0172	26.7
-0.0068	0.0067	-0.0015	0.0742	26.8
-0.0053	0.0232	0	0.0465	26.9
-0.006	0.0457	0.0007	-0.0015	27.1
-0.0068	0.0345	0.003	-0.0015	26.9
-0.0068	-0.0008	0.003	-0.0105	27
-0.0053	-0.0128	0.0045	0.012	27.4
-0.0038	-0.015	0.0097	0.0157	27.2
-0.0046	-0.015	0.0105	0.0157	27.5
-0.0053	0.0127	0.012	-0.0083	27.3
-0.006	0.0195	0.0135	-0.0315	27.4
-0.0053	0.0232	0.0135	-0.0353	27.5
-0.0046	0.0292	0.0142	-0.0368	27.5
-0.006	0.0247	0.0142	-0.006	27.7
-0.003	0.0337	0.0127	0.0442	27.9
0.0007	0.0315	0.0127	0.045	27.9
0.0022	0.0202	0.012	0.012	27.9
0.0052	-0.021	0.0097	0.0232	28
0.0082	-0.0593	0.0082	0.003	28
0.0075	-0.0698	0.0067	-0.0181	28.3
0.009	-0.0518	0.0037	-0.0068	28.3
0.012	-0.012	0.0007	-0.0053	28.4
0.012	-0.0158	-0.0015	-0.0218	28.3
0.0105	-0.012	-0.0046	-0.0323	28.4
0.0105	0.0007	-0.006	-0.0068	28.5
0.0105	0.0037	-0.0091	-0.0105	28.6
0.0105	0.0172	-0.0098	-0.0158	28.6
0.0112	-0.0038	-0.0105	-0.006	28.7
0.0127	-0.0188	-0.012	-0.0083	28.9
0.0127	-0.0293	-0.0098	-0.0158	28.9
0.0112	-0.0405	-0.0098	-0.0091	29
0.0127	-0.0293	-0.0105	0.0195	29
0.012	-0.0233	-0.0083	0.0255	29.1
0.0127	-0.0165	-0.0053	0.0045	29.3
0.012	-0.003	-0.0046	0.0165	29
0.0105	0.003	-0.003	0.0292	29.3
0.0105	0.0037	0.0007	0.0202	29.3
0.0067	0.0052	0.0037	-0.003	29.5
0.0052	0.0067	0.0075	-0.033	29.6
0.0052	0.012	0.0082	-0.0256	29.6
0.0045	0.0135	0.0105	-0.0158	29.9
0.003	0.009	0.0112	-0.027	29.7
0.0045	-0.003	0.0127	-0.078	29.9
0.0082	-0.006	0.0142	-0.0706	30
0.006	-0.0113	0.0142	-0.0173	30
0.0045	-0.0203	0.0127	0.0165	30.1
0.0052	-0.0068	0.0082	0.0172	30.3
0.0052	-0.003	0.009	-0.0615	30.1
0.0015	0.003	0.0067	-0.048	30.4
-0.0008	0.0165	0.0082	-0.0008	30.6
0.0052	0.0165	0.0097	-0.0105	30.5
0.0022	0.0277	0.0082	0.0157	30.6
0.0022	0.0345	0.009	0.0315	30.6
0.003	0.0247	0.0075	0.021	30.7
0	0.0127	0.0075	0.0157	31
0.0015	0.0007	0.0067	-0.0098	30.7
-0.0038	-0.0015	0.006	-0.0173	30.9
-0.0053	0.0052	0.0105	0.0082	31
-0.006	0.0082	0.0097	0.027	31
-0.0053	0.0142	0.0105	0.0577	31.1
-0.0053	0.0217	0.0105	0.0817	31.2
-0.0083	0.0187	0.012	0.0472	31.3
-0.0091	0.0165	0.0127	-0.0278	31.4
-0.0105	0.024	0.0157	-0.0143	31.4
-0.0053	0.0292	0.0157	0.0015	31.5
-0.003	0.0255	0.0142	-0.0181	31.6
-0.0015	0.0202	0.015	0.0127	31.6
-0.0015	0.0105	0.0165	0.0112	31.7
-0.0083	-0.0346	0.0157	0.0232	31.9
-0.0165	-0.054	0.0157	0.0127	31.7
-0.0293	-0.0263	0.0142	-0.0256	31.9
-0.0368	-0.0195	0.012	-0.0105	31.9
-0.039	-0.0165	0.0127	0.006	32.2
-0.0383	-0.0181	0.0142	0.0255	32.1
-0.0353	-0.015	0.012	0.0465	32.2
-0.0315	0.0007	0.0127	0.0577	32.3
-0.027	-0.0143	0.0112	0.0472	32.4
-0.024	-0.0233	0.006	0.0322	32.4
-0.0218	-0.0256	0.006	0.0187	32.4
-0.0195	-0.0285	0.0067	-0.0143	32.5
-0.0195	-0.012	0.006	-0.0293	32.5
-0.0181	-0.0008	0.0045	-0.0361	32.8
-0.0158	0.0127	0.0052	-0.0181	32.5
-0.0135	0.0397	0.0075	0.0502	32.8
-0.012	0.0495	0.0082	0.0285	32.7
-0.0098	0.0337	0.006	-0.075	32.8
-0.0083	0.0232	0.0067	-0.0788	33
-0.0075	0.0202	0.009	-0.039	33
-0.0083	0.0157	0.0067	-0.0638	33.2
-0.0083	0.0157	0.003	-0.0675	33.3
-0.0091	0.003	0.0022	-0.0503	33.2
-0.0091	-0.0165	0.006	-0.0195	33.4
-0.0113	-0.0323	0.009	0.0165	33.4
-0.0105	-0.0233	0.0097	-0.012	33.6
-0.0105	0.0022	0.009	0.009	33.8
-0.0091	0.0045	0.0097	0.018	33.7
-0.0068	-0.0046	0.012	0.012	33.6
-0.0053	-0.0015	0.0105	0.0375	34
-0.0015	0.0015	0.009	0.0487	33.9
0.0007	0.003	0.0067	0.054	34.1
0.0015	-0.003	0.0045	0.0015	34.1
0.0022	-0.0053	0.006	-0.0188	34.2
-0.0008	0.0015	0.0037	-0.0308	34.4
-0.003	0.006	0.0022	-0.0203	34.1
-0.003	0.0105	0.0045	0.042	34.4
-0.0053	0.0082	0.0067	0.0675	34.5
-0.0053	-0.0008	0.0067	0.0547	34.6
-0.0053	-0.0083	0.0037	0.0277	34.6
-0.006	-0.0143	0.0015	0.0195	34.6
-0.0046	-0.0158	0.0015	0	34.7
-0.003	-0.0135	0.0007	-0.0218	34.9
-0.0008	-0.0015	0	-0.0443	34.9
0.0022	0.0225	0.0007	-0.045	34.8
0.003	0.0315	0	-0.0353	35.1
0.003	0.0142	0.0007	-0.0113	35.1
0.0075	0.003	0.0007	0.0442	35.1
0.0082	0.009	0	0.0457	35.3
0.009	0.0127	-0.0023	0.009	35.2
0.015	0.0127	-0.0075	0.024	35.5
0.0165	0.003	-0.0091	0.0037	35.3
0.0165	-0.0083	-0.0083	-0.0091	35.5
0.0157	-0.0135	-0.0105	-0.0068	35.5
0.0172	-0.0143	-0.012	-0.0533	35.6
0.018	-0.0083	-0.012	0.009	35.9
0.018	-0.0091	-0.012	0.045	35.8
0.0195	-0.0143	-0.0098	0.0007	35.7
0.0195	-0.0218	-0.0068	0.003	36
0.021	-0.033	-0.0068	0.033	36
0.0247	-0.0405	-0.0075	-0.0015	36
0.0217	-0.0495	-0.0053	-0.0788	36.1
0.0202	-0.0405	-0.0046	-0.0915	36.2
0.0217	0.0015	-0.0053	-0.057	36.2
0.0225	0.0577	-0.0046	0.0105	36.5
0.0232	0.0742	-0.0015	0.024	36.2
0.0225	0.0517	-0.0015	0.0337	36.5
0.0225	0.042	0.0007	0.0352	36.7
0.0225	0.024	0.0052	0.0255	36.7
0.0217	0.009	0.0075	0.0067	36.7
0.021	0.003	0.0097	-0.057	36.8
0.0195	-0.0105	0.0127	-0.024	36.8
0.0157	-0.015	0.0142	-0.003	36.9
0.012	-0.024	0.0202	-0.0323	37
0.0112	-0.0353	0.0195	-0.0195	37
0.012	-0.03	0.0202	-0.0128	37.3
0.0112	-0.0165	0.0217	0.0465	37.3
0.0105	-0.0308	0.0202	0.042	37.5
0.009	-0.0383	0.0202	-0.0083	37.3
0.0067	-0.0248	0.024	0.0202	37.3
0.0045	-0.0203	0.0262	-0.0158	37.7
0.0022	0.006	0.0255	-0.0203	37.4
0.003	0.0292	0.027	0.0165	37.7
0.003	0.0427	0.0277	0.0045	37.8
0.0022	0.0457	0.0232	0.0217	37.8
0.0015	0.0427	0.0202	0.0277	37.9
-0.0015	0.0277	0.0232	0.012	37.8
-0.003	-0.003	0.0232	-0.0181	38
-0.0053	-0.0181	0.0225	-0.021	38
-0.0068	-0.03	0.018	-0.003	38.2
-0.0083	-0.033	0.015	0	38.2
-0.0091	-0.0293	0.0105	0.0037	38.4
-0.0091	-0.0338	0.0097	-0.012	38.2
-0.0105	-0.0173	0.0105	-0.0053	38.5
-0.0105	0.0202	0.0082	0.0105	38.5
-0.0098	0.039	0.009	0.018	38.5
-0.0105	0.0255	0.0075	0.0232	38.6
-0.0113	0.0015	0.006	0.0142	38.6
-0.0113	-0.0008	0.0082	0.012	38.7
-0.0135	0.0142	0.0067	0.015	38.7
-0.0173	0.0195	0.009	0.0105	38.7
-0.0203	0.015	0.0112	0.0045	39.1
-0.0203	0.0202	0.0082	0.0127	38.8
-0.0218	0.0127	0.0052	0.0195	39.1
-0.0263	-0.0383	0.0037	-0.0008	39.1
-0.0293	-0.0525	0.003	-0.0203	39.1
-0.0293	-0.0128	-0.0008	0.0015	39
-0.03	-0.0248	0.0015	0.0427	39.5
-0.0323	-0.0458	0.006	0.0337	39.3
-0.0353	-0.039	0.0075	-0.0285	39.4
-0.039	-0.0188	0.009	-0.0675	39.6
-0.0368	0.009	0.0105	-0.0533	39.4
-0.0398	0.0187	0.012	-0.0458	39.7
-0.0405	0.0465	0.009	-0.048	39.7
-0.039	0.0652	0.0067	-0.03	39.8
-0.0375	0.0352	0.006	0.0052	40
-0.0368	0.0217	0.006	0.0157	39.9
-0.0368	0.0165	0.003	0.0097	39.9
-0.0338	0.0015	-0.003	0.033	39.9
-0.0338	0.0045	-0.003	0.0285	40.2
-0.0346	-0.006	-0.0015	-0.0075	40.1
-0.033	-0.0105	-0.0023	0.012	40.2
-0.0278	0.0045	-0.0046	0.0457	40.1
-0.0256	0.0045	-0.006	0.0165	40.5
-0.0195	0.0052	-0.0091	0.003	40.3
-0.012	-0.0038	-0.0091	0	40.5
-0.0068	-0.0105	-0.0075	-0.0691	40.7
-0.003	0.003	-0.0083	-0.0848	40.4
0.0007	0.0142	-0.0083	-0.003	40.8
0.006	0.003	-0.0105	0.0165	40.8
0.012	0.003	-0.0098	0.0142	40.9
0.015	0.0112	-0.0105	-0.0608	40.9
0.015	-0.0091	-0.0091	-0.117	40.9
0.0157	-0.0135	-0.006	0.0045	41
0.0165	-0.0218	-0.0105	0.0502	41
0.0187	-0.03	-0.0105	0.0787	41.2
0.0202	-0.0181	-0.0091	0.0862	41.3
0.021	-0.0188	-0.006	0.0232	41.4
0.0225	-0.0038	-0.0068	0.0097	41.3
0.0232	0.0127	-0.0068	0.0022	41.5
0.024	0.012	-0.0015	0.0037	41.6
0.024	0.012	-0.0023	0	41.4
0.0232	0.0157	-0.0015	-0.0015	41.8
0.0232	0.0157	0.0007	0.0007	41.7
0.0225	0.0165	-0.0008	0.0142	42
0.0225	0.012	-0.0015	0.0202	41.9
0.0217	-0.0015	0.0022	0.0067	41.9
0.0232	-0.012	0.0052	-0.0046	42.2
0.0232	-0.0188	0.0067	-0.012	42.2
0.0195	-0.0165	0.0097	-0.0023	42.2
0.018	-0.0053	0.0097	0.012	42.3
0.018	0.0285	0.0097	0.0232	42.2
0.018	0.069	0.0127	0.0112	42.4
0.018	0.0765	0.0142	0.009	42.5
0.0195	0.0592	0.0142	0.0225	42.5
0.0202	0.036	0.0127	-0.003	42.7
0.0195	0.0217	0.012	-0.0593	42.7
0.0195	0.0127	0.0112	-0.0593	42.7
0.018	0.0172	0.0127	-0.0323	42.9
0.018	0.0457	0.0172	-0.0346	42.8
0.021	0.0622	0.0195	0.039	43.1
0.0217	0.012	0.0195	0.0592	43.1
0.0217	-0.105	0.0135	0.0105	42.9
0.0217	-0.1193	0.009	0.0127	43.1
0.018	-0.0615	0.0082	0.0802	43
0.018	-0.0818	0.006	0.0877	43.2
0.0165	-0.054	0.0067	0.012	43.5
0.0127	-0.0181	0.0075	-0.057	43.2
0.0142	-0.0158	0.0045	-0.0698	43.5
0.0127	0.003	0.006	0.0382	43.4
0.012	-0.0046	0.0045	0.0562	43.5
0.012	0.003	0.0007	0.0592	43.6
0.009	-0.0008	-0.0015	0.0045	43.6
0.0045	0.012	-0.003	-0.0608	43.6
0.0007	0.0165	-0.0046	-0.1193	43.7
-0.0008	0.0037	-0.0068	-0.195	43.8
0	0.018	-0.0091	-0.1275	43.8
-0.0008	0.0307	-0.0135	-0.0638	44
-0.0008	0.0367	-0.0143	0.0517	44.1
-0.0008	0.0195	-0.0098	0.0202	44.1
-0.003	-0.027	-0.0091	0.0007	44.3
-0.0015	-0.0885	-0.0083	0.0187	44.1
0.0007	-0.0698	-0.0083	0.0232	44.5
0.0015	0.0255	-0.0083	0.1357	44.5
0.0045	0.0315	-0.0083	0.129	44.5
0.0067	0.0067	-0.0068	0.0735	44.5
0.0052	-0.0361	-0.0008	-0.0555	44.7
0.0015	-0.063	0.0015	-0.066	44.8
0.0015	-0.0195	0.0045	-0.0346	44.8
0.003	-0.0068	0.0052	-0.0533	44.7
0	0.0172	0.0045	-0.0203	45.1
-0.0015	0.0285	0.0067	-0.0368	45
-0.0053	0.027	0.0075	-0.012	45.1
-0.0068	0.0292	0.0082	0.009	45.2
-0.0068	0.006	0.0105	0.0217	45.3
-0.0091	-0.0023	0.0097	0.0172	45.3
-0.0113	-0.027	0.0135	-0.003	45.5
-0.0128	-0.0285	0.015	-0.021	45.5
-0.0165	-0.0173	0.0157	-0.0075	45.7
-0.0195	-0.0195	0.0165	0.0412	45.6
-0.0203	0.0195	0.0172	0.039	45.7
-0.0218	0.0307	0.0165	0.051	45.7
-0.0256	0.0097	0.0195	0.0742	45.9
-0.0308	-0.0083	0.0202	0.0997	46.1
-0.033	-0.024	0.0217	0.0742	46.1
-0.0353	-0.0098	0.024	-0.012	46
-0.0353	0.0232	0.0225	-0.0285	46.2
-0.0383	0.039	0.0217	-0.0383	46.3
-0.0383	0.0315	0.0202	-0.0465	46.4
-0.0353	0.0292	0.0142	0.0045	46.3
-0.033	0.0292	0.0135	-0.0008	46.5
-0.0315	0.0172	0.015	-0.0405	46.6
-0.0308	0.0082	0.0142	-0.075	46.6
-0.03	-0.0008	0.0165	-0.0578	46.6
-0.027	0.0082	0.018	0.0082	46.8
-0.0218	0.033	0.0142	-0.0143	46.9
-0.0225	0.039	0.012	-0.015	46.8
-0.0195	0.006	0.0112	-0.0233	46.9
-0.0165	-0.024	0.0067	-0.063	47.1
-0.0165	-0.0023	0.0067	-0.0128	47.1
-0.0165	0.0187	0.0052	0.0345	47.2
-0.0173	0.0045	0.0015	0.0157	47.2
-0.0165	0.0045	0.0015	-0.0068	47.4
-0.0165	0.009	0.0007	-0.0015	47.3
-0.0165	-0.0443	-0.0015	0.0052	47.5
-0.0165	-0.0863	-0.0008	0.012	47.4
-0.015	-0.0653	-0.0015	0.024	47.5
-0.015	-0.0608	0	0.0495	47.7
-0.0143	-0.0608	0.0015	0.054	47.7
-0.0135	-0.0675	0.0015	0.0555	47.7
-0.012	-0.0585	0.0045	0.063	48
-0.0083	0.0112	0.003	0.0532	47.9
-0.003	0.0352	-0.0008	-0.0323	47.9
-0.0046	0.0367	0.0022	-0.1163	48.1
-0.0105	0.069	0.0037	-0.0256	48.2
-0.0091	0.0735	0.0045	0.03	48.2
-0.0038	0.0757	0.0045	0.0442	48.4
-0.0023	0.0922	0.0082	0.0607	48.2
-0.0046	0.0675	0.009	0.003	48.6
-0.0068	0.0412	0.0067	0.0097	48.6
-0.0083	0.0202	0.0067	-0.0008	48.6
-0.012	-0.0128	0.0075	-0.0128	48.5
-0.0158	-0.0173	0.0082	-0.0165	48.7
-0.0165	-0.0143	0.006	-0.0263	48.8
-0.0195	-0.0053	0.006	-0.0308	48.8
-0.0203	0.0195	0.0082	-0.0383	48.8
-0.0188	-0.0105	0.009	-0.0458	49
-0.0181	-0.0818	0.009	-0.0856	49
-0.0203	-0.0555	0.009	-0.066	49.2
-0.0225	0.012	0.0082	0.012	49.2
-0.0203	-0.0098	0.0052	0.0277	49.4
-0.0173	-0.024	0.0022	0.009	49.4
-0.0143	-0.0278	0.0015	0.0157	49.5
-0.0075	-0.0338	0.0022	0.0052	49.4
-0.003	-0.0105	0.0067	-0.0181	49.7
0.0015	0.0007	0.0082	-0.0436	49.6
0.0127	0.0225	0.0067	-0.0375	49.7
0.021	0.045	0.0082	-0.0046	49.8
0.0262	0.0525	0.009	0.021	49.9
0.03	0.0525	0.0082	0.0832	49.9
0.0315	0.039	0.0075	0.0765	49.9
0.0322	0.0135	0.0052	-0.0008	50.1
0.0307	-0.0091	0.0067	0.0082	50.2
0.0307	-0.0278	0.006	0.0307	50.2
0.0292	-0.0383	0.0045	0.039	50.3
0.0262	-0.0225	0.0015	0.084	50.4
0.0225	-0.003	-0.0015	0.0427	50.3
0.0195	0.0082	-0.0008	0.0052	50.5
0.0127	0.003	-0.0015	-0.0053	50.7
0.0067	-0.0135	-0.0015	-0.0353	50.4
0.0052	-0.0225	-0.0008	-0.0383	50.8
0.006	-0.027	0.0015	-0.0368	50.8
0.0052	-0.027	0.0022	-0.0053	51
0.006	-0.0383	0.0022	-0.0443	51
0.0082	-0.054	0.0022	-0.0615	51
0.0105	-0.0615	-0.0008	-0.0068	51.2
0.0127	-0.0413	0	0.0202	51.4
0.0142	0.012	0	0.0435	51.1
0.0157	0.0442	-0.0015	-0.0278	51.2
0.0157	0.0277	-0.003	-0.075	51.3
0.0172	0.0127	-0.006	-0.0488	51.5
0.0187	0.0142	-0.0038	-0.0893	51.4
0.0187	0.0082	-0.0038	-0.048	51.6
0.0157	0.0127	-0.0015	-0.0218	51.7
0.0157	0.0142	-0.0015	-0.0158	51.7
0.0135	0.0135	-0.0015	0.0105	51.7
0.0127	0.0315	0.0015	0	52.2
0.012	0.0382	0.0015	0.0495	51.9
0.009	0.0382	0.003	0.054	51.9
0.0045	0.0412	0.0045	0.0757	52.2
-0.0008	0.024	0.0052	0.0855	52.2
-0.0038	0.0075	0.0067	0.027	52.2
-0.0068	0.0255	0.0075	0.0615	52.3
-0.0068	0.0405	0.009	0.0675	52.3
-0.006	0.057	0.012	0.039	52.5
-0.006	0.0877	0.0172	0.027	52.4
-0.0068	0.0787	0.0195	-0.03	52.6
-0.0091	0.0015	0.0202	-0.048	52.6
-0.0053	-0.1598	0.0195	-0.0398	52.7
-0.003	-0.189	0.0195	0.003	52.8
0.0022	-0.0495	0.0165	-0.0218	52.9
0.0045	-0.045	0.0165	-0.0803	52.8
0.0037	-0.063	0.0172	-0.0323	53.1
0.0037	-0.0285	0.0172	-0.033	53
0.003	-0.0323	0.0172	-0.0083	53.2
0.0052	0.0202	0.0105	0.027	53.2
0.006	0.0345	0.0067	0.03	53.2
0.0052	0.0165	0.0045	0.0495	53.4
0.003	0.0292	-0.0015	0.0345	53.3
0.0022	0.0465	0	0.063	53.4
0.0022	0.0652	-0.0008	0.0615	53.5
0.0015	0.039	-0.0008	0.0285	53.5
0.0007	-0.0188	0.0015	0.0135	53.6
0.0007	-0.0713	0.0037	-0.0368	53.5
0.0022	-0.057	0.0045	-0.0398	53.7
0.003	-0.0278	0.0037	0.0045	53.9
0.0015	-0.0436	0.0045	0.0195	54
-0.0015	-0.0158	0.009	0.0345	53.9
0.0007	0.0202	0.0082	0.0082	54.2
0.0015	0.03	0.0082	-0.057	54
0.0015	0.027	0.009	-0.0878	54.3
0.0007	0.0007	0.0082	-0.0825	54.3
0	-0.012	0.009	0.0187	54.3
0.0007	-0.03	0.0105	0.0915	54.5
0	-0.06	0.0075	0.0067	54.4
0	-0.0518	0.0067	-0.0765	54.4
0	0.0225	0.0097	-0.1043	54.8
-0.0008	0.0772	0.0097	-0.0675	54.6
-0.0008	0.0787	0.0127	-0.015	54.8
-0.0008	0.0877	0.0142	0.0007	54.9
0.0022	0.0517	0.015	0.0217	55
0.0045	0.0187	0.0172	0.0765	54.9
0.0045	-0.0083	0.0142	0.066	55.3
0.006	-0.0608	0.012	-0.0053	55
0.0052	-0.0698	0.0142	-0.0181	55.3
0.0037	-0.0518	0.018	-0.0203	55.4
0.0037	-0.0083	0.0157	0.0142	55.3
-0.0015	0.0255	0.0157	-0.006	55.5
-0.006	0.048	0.0157	-0.0278	55.5
-0.0068	0.0502	0.0127	0.0075	55.7
-0.0068	0.0142	0.0127	0.0292	55.7
-0.0038	-0.0353	0.009	0.0337	55.8
-0.0053	-0.0743	0.009	0.0285	55.9
-0.0015	-0.0518	0.0067	0.057	56
0.0037	-0.039	0.0015	0.0405	55.9
0.0075	-0.0465	0.0022	0.003	56.2
0.0112	-0.0443	-0.0015	-0.0203	56
0.0112	-0.0495	-0.003	-0.0293	56.2
0.009	-0.0195	-0.0046	-0.0361	56.2
0.0052	0.054	-0.0046	-0.0323	56.1
0.006	0.1005	-0.0075	-0.027	56.5
0.0067	0.0217	-0.0091	-0.0436	56.4
0.0037	-0.0518	-0.0091	-0.0128	56.5
0.003	-0.0181	-0.0083	0.0255	56.7
0.0022	0.0105	-0.0068	0.0142	56.7
0.003	0.0075	-0.0068	-0.0113	56.8
0.0015	0.0082	-0.006	-0.033	56.8
-0.0015	0.042	-0.0053	-0.0458	56.9
-0.0015	0.0682	-0.0046	-0.0135	57.1
-0.0015	0.0787	-0.0038	0.024	56.9
-0.0015	0.0877	-0.003	0.0262	57.1
-0.0015	0.0637	-0.0023	0.0142	57.1
-0.003	0.0487	-0.0023	0.0082	57.3
-0.003	0.027	0.0007	0.027	57.2
-0.0008	0.0232	0.0022	0.0277	57.6
-0.0015	0.0277	0.0045	-0.0315	57.5
-0.003	-0.0068	0.0067	-0.0788	57.7
-0.0046	-0.012	0.0112	-0.0405	57.6
-0.006	0.003	0.0165	0.0165	57.8
-0.0053	0.009	0.0195	0.0157	58
-0.0053	-0.0128	0.0217	-0.024	57.7
-0.0046	-0.0308	0.0225	0.0015	58.1
-0.003	-0.0323	0.0202	0.0465	58
-0.0015	-0.0293	0.0195	0.0382	58
0	0.0127	0.0172	0.0195	58.2
-0.0008	0.0382	0.0157	-0.0135	58.2
-0.0023	0.039	0.015	0.0232	58.2
-0.0046	0.0435	0.012	0.0367	58.4
-0.0068	0.0367	0.0082	0.0337	58.4
-0.0075	0.024	0.0007	0.0517	58.5
-0.0091	0.0045	-0.0008	0.018	58.6
-0.0105	0.0045	-0.003	0.0232	58.4
-0.0091	0.0292	-0.0068	0.0157	58.8
-0.0083	0.0075	-0.0083	0.0187	58.5
-0.0053	-0.0368	-0.0113	0.0322	58.8
-0.003	-0.0285	-0.0098	0.0277	58.9
-0.0015	-0.0923	-0.0091	-0.0173	58.7
-0.0008	-0.165	-0.0105	-0.0555	59
0.0015	-0.0915	-0.0113	-0.06	59
0.003	-0.0256	-0.0083	-0.0548	59.1
0.0007	-0.0308	-0.003	-0.0195	59.3
-0.0008	-0.0218	-0.0015	-0.0518	59.1
-0.0023	0.0142	0.0007	-0.1125	59.4
-0.0038	0.0382	0.0022	-0.0398	59.7
-0.0053	0.0337	0.0045	0.0217	59.5
-0.0083	0.015	0.0082	-0.0113	59.5
-0.0098	0.003	0.0105	0.0045	59.8
-0.0068	0.0105	0.0127	-0.0188	59.7
-0.0083	-0.0308	0.012	-0.0015	59.9
-0.0068	-0.0968	0.0127	0.0802	59.9
-0.0091	-0.0405	0.0105	0.1237	60.1
-0.0091	0.0375	0.0097	0.0682	60
-0.0046	0.0202	0.0105	0.0232	60.2
-0.0068	0.0225	0.009	0.0397	60.3
-0.0046	0.0172	0.0105	-0.006	60.3
-0.003	0.0052	0.0105	-0.012	60.3
-0.0023	0.0307	0.0097	-0.0443	60.5
-0.003	0.0315	0.009	-0.0158	60.4
-0.003	-0.003	0.0082	0.009	60.5
0.0007	-0.0383	0.0067	-0.0503	60.6
0	0.0007	0.0082	-0.0278	60.5
-0.0046	0.0352	0.009	-0.0488	60.7
-0.0046	0.033	0.009	-0.0518	60.8
-0.0015	0.0457	0.0067	-0.0346	60.8
-0.0008	0.0367	0.0052	-0.0548	61
-0.003	0.027	0.0037	-0.0368	61
-0.003	0.021	0.003	-0.0675	61.2
-0.0046	0.039	0.0052	-0.0218	61.2
-0.0083	0.0615	0.0015	0.1237	61.2
-0.0083	0.0675	-0.0015	0.132	61.4
-0.0068	0.0202	-0.0008	0.0832	61.3
-0.0083	-0.1088	0	0.042	61.5
-0.0091	-0.1485	0.0045	-0.0293	61.5
-0.0105	-0.084	0.0067	-0.027	61.4
-0.0083	-0.0848	0.009	0.027	61.7
-0.0053	-0.0878	0.0082	0.0345	61.7
-0.0053	-0.0518	0.009	0.0195	61.9
-0.0053	-0.024	0.0105	0.0097	61.8
-0.0038	-0.0038	0.012	0.0007	61.9
-0.0008	0.018	0.012	0	61.9
0	0.0427	0.009	0	62.1
-0.0008	0.042	0.0105	0.015	62.1
0	0.0255	0.0112	0.027	62.3
0.0007	0.018	0.0127	0.0292	62.3
0.0007	0.0165	0.0135	-0.003	62.2
0.0007	0.0127	0.012	-0.0361	62.2
0.0045	0.0127	0.0105	-0.0038	62.4
0.0045	0.021	0.0105	0.0352	62.5
-0.0023	0.0615	0.0135	0.0367	62.7
0.0015	0.0892	0.0105	0.0045	62.5
0.0067	0.033	0.0067	-0.0068	62.6
0.0045	-0.0113	0.0075	0.0097	62.7
0.0052	-0.0181	0.0082	0.018	62.8
0.009	-0.0263	0.0082	0.0127	63
0.0075	0.0022	0.0075	-0.0533	62.8
0.0045	0.0382	0.0045	-0.126	62.9
0.009	0.0157	0.0015	-0.0893	63.2
0.0067	-0.0053	0.0007	-0.0083	63
0.0082	0.0112	0	-0.0068	63.3
0.0067	-0.033	0.0045	-0.0075	63.2
0.0015	-0.063	0.0052	-0.0046	63.3
-0.0015	-0.0563	0.003	-0.0248	63.3
-0.0053	-0.0038	0.0007	-0.003	63.5
-0.003	0.0495	0.003	-0.0083	63.4
-0.0068	0.051	0.0052	-0.0203	63.7
-0.0083	0.0645	0.0075	-0.0233	63.7
-0.0128	0.048	0.0097	-0.0256	63.7
-0.0128	0.036	0.009	0.003	63.7
-0.012	-0.0053	0.0112	0.0187	63.8
-0.0105	-0.0765	0.0105	0.0187	63.8
-0.0053	-0.1485	0.0105	0.042	64
-0.006	-0.1381	0.0127	0.0637	64
-0.0038	-0.0315	0.0097	0.0292	64.2
-0.006	-0.0143	0.0075	0.0255	64.2
-0.0053	-0.0068	0.006	0.024	64.3
-0.0046	0.0127	0.0052	0.0105	64.3
-0.003	-0.0008	0.0075	-0.0068	64.3
-0.0068	0.033	0.0082	-0.0428	64.5
-0.0068	0.0682	0.0067	-0.042	64.5
-0.0038	0.0772	0.0067	-0.0503	64.5
-0.0046	0.0705	0.0052	-0.027	64.6
-0.0023	0.0532	0.0045	0.024	64.5
-0.003	0.0337	0.003	0.0532	64.8
-0.0015	0.0157	-0.0008	0.039	64.8
-0.0008	-0.0181	-0.0053	0.0067	64.8
0.0007	-0.0308	-0.0068	-0.0315	64.8
-0.0008	-0.0046	-0.0091	-0.0225	64.9
-0.0023	-0.0346	-0.0105	0.033	64.8
0.0007	-0.0458	-0.012	0.0405	65.1
0	-0.0203	-0.0105	0.0165	65
0.0007	-0.015	-0.0083	-0.0233	65.2
-0.0008	-0.0128	-0.0023	0.0007	65.1
-0.0008	-0.0083	0	0.0135	65.2
0.0022	0.0217	-0.0008	0.0082	65.4
0.0037	0.0142	-0.0008	0.027	65.3
0.0045	-0.0248	0	0.0082	65.6
0.0022	-0.0383	0.0015	-0.0038	65.6
0.0037	-0.0315	0.0045	-0.054	65.4
0.0015	0.015	0.0052	-0.0818	65.7
0.003	0.0112	0.0007	-0.0383	65.7
0.0082	-0.0405	-0.0068	0.0165	65.7
0.0105	0.027	-0.0105	0.0405	65.7
0.0127	0.0742	-0.0083	0.018	65.8
0.012	0.003	-0.0023	-0.0053	65.9
0.012	-0.0233	0.0045	-0.0308	66.1
0.0105	-0.015	0.0037	-0.0181	66
0.0127	-0.0023	0.0045	-0.0075	66.3
0.0127	0.0577	0.0082	-0.045	66.1
0.0082	0.1192	0.0097	0.0202	66.2
0.0097	0.1155	0.0112	0.0817	66.2
0.0067	0.0637	0.009	0.06	66.2
0.0052	0.0067	0.009	-0.0555	66.4
0.003	-0.0503	0.0082	-0.0938	66.5
0.0007	-0.1245	0.0067	0.033	66.5
0.0007	-0.1658	0.0045	-0.0181	66.6
0.0007	-0.1178	0.0022	0.0142	66.6
0	-0.0803	0.0052	0.0165	66.6
-0.0015	-0.063	0.009	-0.0495	66.8
-0.0053	-0.0233	0.0127	0.0382	66.9
-0.0105	0.0007	0.0112	-0.0173	66.8
-0.0091	0.0532	0.0105	0.027	67
-0.0098	0.09	0.009	0.0637	66.7
-0.0091	0.1035	0.0097	0.0307	66.9
-0.0053	0.0592	0.0105	0.012	67
-0.0068	-0.0443	0.009	-0.0863	67.1
-0.0068	-0.0098	0.0127	-0.0765	67.1
-0.0075	0.0285	0.0157	-0.0248	67.1
-0.0083	0.024	0.0165	0.0307	67.3
-0.0083	0.0502	0.018	0.0165	67.3
-0.0068	0.0105	0.018	0.0367	67
-0.0046	-0.012	0.0202	0.0615	67.4
-0.0046	-0.0233	0.0187	0.0367	67.3
-0.0015	-0.027	0.0165	0.033	67.4
-0.0046	0.0052	0.0165	0.0157	67.5
-0.0046	0.0045	0.0127	0.018	67.6
-0.0015	-0.024	0.009	-0.039	67.5
-0.003	0.0157	0.0082	-0.0308	67.6
-0.0015	0.0375	0.0097	-0.0181	67.6
-0.003	-0.0346	0.0105	-0.0308	67.7
-0.0046	-0.0293	0.0097	-0.0008	67.8
-0.0023	-0.0165	0.009	-0.0128	67.8
-0.003	-0.0053	0.0082	-0.0256	67.9
-0.0015	0.0217	0.0075	-0.0353	67.9
-0.0008	0.0112	0.0052	-0.0436	68
-0.0023	0.0187	0.0067	-0.0308	68.1
-0.0015	0.009	0.0112	0.0052	67.8
-0.0023	0.0052	0.0112	0.024	68.3
-0.0023	-0.0165	0.0112	0.0382	68
-0.0015	-0.0338	0.0097	0.0307	68.3
-0.0008	-0.0256	0.0082	0.0202	68.3
-0.0023	-0.0143	0.0075	0.0487	68.2
-0.0038	0.024	0.003	0.048	68.4
-0.003	0.0367	-0.0015	0.0247	68.4
-0.0015	0.042	-0.0038	-0.0165	68.3
-0.0038	0.0742	-0.0015	-0.0353	68.5
-0.0053	0.057	0.0015	0.0157	68.4
-0.0046	-0.0046	0.0015	0.0022	68.6
-0.003	0.0045	0.0045	-0.0615	68.7
-0.0023	-0.0181	0.0007	-0.0585	68.7
0	-0.0083	-0.003	-0.0361	68.6
0.0007	0.0382	0	-0.0195	68.6
0.0007	-0.0173	0.003	0.0277	68.8
0.0022	-0.0503	0.0045	0.0847	68.8
0.0045	0.018	0.0045	0.0967	69
0.0045	0.1447	0.0067	0.0427	69
-0.0015	0.0592	0.009	0.027	69
-0.003	-0.0915	0.009	0.0622	69
-0.0008	-0.1193	0.0097	0.0187	69
-0.003	-0.135	0.0105	-0.0263	69.1
-0.0046	-0.0638	0.0112	-0.027	69
-0.0068	-0.0638	0.0142	-0.0383	69.3
-0.0038	-0.075	0.0142	-0.0158	69.1
-0.003	0.0165	0.012	-0.0203	69.3
-0.006	0.0907	0.0075	-0.0511	69.5
-0.0046	0.1012	0.0007	-0.0458	69.3
-0.003	0.0517	-0.0015	-0.012	69.4
-0.0053	0.042	-0.0015	0.0112	69.4
-0.0053	0.0405	-0.003	-0.0195	69.3
-0.0053	-0.012	-0.006	-0.006	69.5
-0.0053	-0.0691	-0.0083	0.009	69.6
-0.0053	-0.1185	-0.0083	-0.003	69.6
-0.0075	-0.108	-0.0053	-0.024	69.7
-0.0083	-0.0758	-0.003	-0.0608	69.7
-0.0083	-0.0555	-0.0015	-0.0436	69.8
-0.0083	-0.0165	-0.003	-0.0278	69.7
-0.0068	0.0067	-0.0023	-0.0158	69.7
-0.0053	0.0592	0.0007	0.0195	70.1
-0.0046	0.0742	-0.0008	0.0262	69.7
-0.0053	0.0217	-0.0008	0.0075	70
-0.0083	0.0465	0.0037	0.0217	70.1
-0.0105	0.0892	0.006	0.0397	69.9
-0.012	0.1005	0.0052	0.0457	70.1
-0.0091	0.078	0.0037	0.0322	70.1
-0.0105	-0.0293	0.0052	-0.0608	70.1
-0.0098	-0.0893	0.009	-0.0225	70.3
-0.006	0.0022	0.012	0.0337	70.3
-0.0046	0.0435	0.0082	-0.0578	70.3
-0.0053	-0.0053	0.0097	-0.0195	70.3
-0.0046	0.0165	0.012	-0.0195	70.3
-0.0053	-0.0083	0.006	-0.084	70.5
-0.003	-0.0173	0.0045	0.018	70.6
-0.003	0.0045	0.0067	0.0457	70.4
-0.0015	-0.0308	0.0015	0.0135	70.7
0.0015	-0.0128	-0.0023	0.0007	70.3
0.0007	-0.0165	-0.0015	-0.0368	70.6
0	0.0015	-0.0008	-0.0308	70.6
0	0.0585	0.0015	-0.0091	70.5
0.0015	0.0915	0.0022	0.0142	70.6
0	0.075	0.0037	-0.0015	70.7
-0.0023	0.033	0.0045	0.0232	70.7
-0.0008	0.012	0.003	0.0495	71
-0.0008	-0.06	0.0045	0.006	70.8
0.0015	-0.1478	0.0045	0.018	70.9
0.0052	-0.1838	0.0022	0.0457	70.9
0.0052	-0.1028	0.003	0.033	71
0.003	-0.0053	0.0052	-0.0038	71.1
0.003	0.0105	0.0045	-0.0375	71.1
0.003	0.0795	0.0052	-0.0113	71.1
0.003	0.1425	0.0067	0.0165	71.2
0.003	0.084	0.0045	0.0097	71.1
0.003	-0.021	0.0052	0.0195	71.3
0.0015	0.0277	0.0082	0.018	71.2
0.0022	0.105	0.0052	0.0165	71.4
0.0037	0.027	0.0045	0.048	71.4
0.003	-0.0256	0.0045	0.0652	71.3
0.0015	-0.1043	0.0045	0.0832	71.4
0.0022	-0.0878	0.0045	0.0765	71.6
0.0007	0.027	0.0015	0.027	71.5
-0.0023	0.0067	-0.0008	0.0015	71.5
-0.003	0.0127	-0.0015	-0.0256	71.5
-0.0046	0.03	-0.0015	-0.0533	71.4
-0.0075	-0.0638	0.0015	-0.0218	71.6
-0.0068	-0.0945	0.003	-0.0195	71.7
-0.0046	0.0157	0.0045	-0.027	71.8
-0.0053	0.051	0.0015	-0.0833	71.7
-0.006	0.0405	0.0007	-0.1073	71.5
-0.006	0.0532	0.006	0.0255	71.9
-0.0068	0.0217	0.0082	0.0622	71.9
-0.0068	-0.0075	0.0097	-0.0233	71.7
-0.006	-0.0765	0.009	-0.0863	72
-0.0068	-0.0833	0.012	0.042	72
-0.0053	-0.0075	0.0157	0.0892	72
-0.0053	-0.0098	0.0127	-0.0428	72
-0.003	0.0007	0.0075	-0.0503	72.1
-0.0008	0.027	0.003	-0.0691	72.2
-0.0008	0.0082	0.0052	0.003	72.2
-0.003	0.009	0.0112	0.0232	72.2
-0.003	0.0075	0.009	-0.0158	72.2
-0.003	0.0127	0.0112	0.0262	72.2
-0.0046	0.039	0.012	0.0232	72.3
-0.0015	0.0487	0.009	0.0442	72.4
-0.0015	0.051	0.0105	0.0382	72.2
-0.0008	0.0652	0.009	0.0217	72.4
0.0015	0.0982	0.009	0.0067	72.3
0.0037	0.084	0.009	-0.0008	72.4
0.0045	-0.0765	0.0082	-0.0008	72.6
0.0045	-0.183	0.009	0.0217	72.5
0.0045	-0.0765	0.0067	0.069	72.6
0.003	-0.0278	0.0052	0.0652	72.7
0.0045	-0.0953	0.0067	0.0277	72.8
0.0052	-0.123	0.006	-0.0346	72.6
0.0015	-0.0353	0.0067	-0.0405	72.8
-0.0015	0.078	0.0067	-0.042	72.7
-0.0023	0.1012	0.0067	-0.0578	72.8
-0.0015	0.1087	0.0067	-0.0503	72.7
-0.0038	0.0232	0.0052	-0.0578	72.8
-0.0015	-0.057	0.0022	-0.0428	73
0	-0.0105	0.0037	-0.0353	72.7
0.0007	0.0112	0.0052	0.009	72.9
0.0015	0.039	0.0052	-0.006	72.9
-0.003	0.084	0.0097	-0.012	72.9
-0.0046	0.066	0.0135	0.0465	73.2
-0.0053	0.045	0.0135	0.0727	73.1
-0.0046	0.0165	0.0127	0.0105	73.1
-0.0023	-0.0256	0.0105	-0.1006	73.2
-0.0023	-0.048	0.0067	0.0105	73.2
-0.0015	-0.1155	0.0015	-0.0158	73.3
-0.0015	-0.1913	0.003	-0.0735	73.2
0	-0.1073	0.0007	0.0502	73.3
0.0007	0.0217	0	0.0292	73.3
0.0015	0.0247	0.003	0.0352	73.3
0	0.0427	0.0075	0.06	73.5
-0.0015	0.0472	0.0135	0.063	73.6
-0.0015	0.0405	0.0127	0.0187	73.4
0.0022	0.0637	0.0097	-0.0346	73.7
0.0052	0.0585	0.0082	-0.0765	73.4
0.003	0.057	0.0097	-0.129	73.7
0.003	0.018	0.0052	-0.0938	73.7
0.0067	-0.039	0	0.0652	73.7
0.0067	-0.039	0.0045	0.1695	73.8
0.0067	0.0427	0.0037	0.1162	73.8
0.006	0.057	0.003	0.0637	73.7
0.0045	0.0337	0.0052	0.0367	73.9
0.0037	0.0022	0.0052	0.0105	74
0.003	-0.0691	0.0052	-0.0008	73.8
0.0037	-0.0158	0.009	0.033	73.9
0.003	0.027	0.0097	-0.0308	73.8
0.0022	-0.0218	0.0097	-0.0975	73.9
0.0007	-0.0285	0.0105	-0.0361	74.1
0.0022	0.012	0.009	-0.042	73.8
0.0045	-0.0315	0.009	-0.0713	74.2
0.0037	-0.0953	0.0037	-0.0713	74
0.003	-0.054	0.0007	-0.0758	74.2
0.0015	-0.015	0.0007	-0.0443	74.2
0.0007	-0.0256	-0.0015	-0.0181	74.1
0	-0.0293	-0.0053	0.0067	74.3
0.0007	0.0067	-0.0068	0.0285	74.3
0.0007	0.0465	-0.0046	-0.0046	74.3
-0.003	0.042	-0.0023	-0.0143	74.3
-0.0023	0.0457	-0.0008	0.039	74.3
-0.0046	0.0975	-0.0008	0.078	74.4
-0.0053	0.1012	0.0037	0.0667	74.5
-0.0075	0.066	0.0045	0.0277	74.5
-0.0091	0.0532	0.0037	-0.0053	74.6
-0.0091	0.0097	0.0052	-0.0195	74.7
-0.012	-0.0623	0.0067	-0.0233	74.6
-0.0105	-0.1365	0.0097	0.0015	74.7
-0.0075	-0.0691	0.012	0.0592	74.7
-0.0068	0.0607	0.0157	0.0817	74.8
-0.0038	0.0307	0.0165	0.0705	74.8
-0.0038	0.024	0.0165	0.0787	74.7
-0.0023	0.0307	0.0165	0.066	74.9
-0.0008	-0.0195	0.012	0.0007	74.8
0.0007	-0.0503	0.0082	-0.0405	75
-0.0008	-0.0578	0.003	-0.0075	75
-0.003	0.021	-0.0015	0.0495	75
-0.0015	0.0202	-0.0068	0.0465	74.9
0.0007	-0.0165	-0.0105	-0.0398	75
-0.0008	0.0165	-0.012	-0.1283	74.9
0.0007	0.0165	-0.0091	-0.12	74.9
0.0015	0.0427	-0.0046	-0.0645	75.2
0.0007	0.0412	-0.0008	-0.0525	75
0.0007	0.0367	0.003	-0.024	75.4
-0.0008	0.0157	0.0052	0.0015	75.1
-0.003	-0.0968	0.0045	0.0037	75.2
-0.0015	-0.2295	0.0045	0.0292	75.2
0.0007	-0.1785	0.006	0.03	75.3
-0.0008	0.0525	0.0105	-0.0428	75.4
-0.0046	0.0825	0.012	-0.033	75.4
-0.0038	0.0847	0.009	0.0307	75.7
-0.0015	0.0667	0.0067	-0.0068	75.4
-0.0015	-0.0398	0.0045	0.0277	75.5
-0.0023	-0.0195	0.009	0.054	75.5
-0.003	-0.027	0.0127	0.0427	75.8
-0.0046	-0.0135	0.012	-0.0233	75.5
-0.003	-0.0023	0.0127	-0.093	75.6
-0.0008	0.0202	0.0127	-0.0503	75.6
-0.0046	-0.0218	0.012	0.0307	75.7
-0.0046	-0.1328	0.0105	0.0712	75.9
-0.0038	0.0045	0.012	0.0052	75.6
-0.0038	0.0525	0.0127	-0.0488	75.8
-0.003	-0.099	0.0127	-0.0608	75.7
-0.0053	-0.0203	0.012	-0.0158	76
-0.0038	0.081	0.012	0.0127	76
-0.0023	0.0577	0.0135	0.009	75.8
-0.0046	0.0367	0.0157	-0.006	76
-0.003	-0.0038	0.0157	0.0382	76
-0.0008	0.0532	0.009	0.0982	76.1
-0.0015	0.0705	0.009	0.0742	76.1
-0.0015	0.0592	0.0067	0.0195	76
0.0015	0.0802	0.0037	-0.0758	76
0.0007	0.057	0.0037	-0.0361	76.3
0.0015	0.0652	-0.0008	0.0082	76.1
0.0015	0.0307	-0.0015	-0.0098	76.1
0.0007	-0.0308	-0.0046	-0.0008	76.4
-0.0008	-0.084	-0.0053	-0.024	76.2
-0.0008	-0.039	-0.003	0.0075	76.3
-0.0008	0.036	0.0007	0.003	76.5
-0.0008	0.0067	0.0045	0.0165	76.3
0.0015	0.0172	0.0082	0.063	76.5
0.003	-0.0368	0.0082	-0.012	76.5
0.0052	-0.0608	0.0105	-0.039	76.5
0.0045	0.0307	0.0157	0.0045	76.5
0.009	0.012	0.0165	0.0195	76.6
0.0097	0.0075	0.0142	0.0022	76.5
0.009	-0.0083	0.0105	-0.0143	76.7
0.0075	-0.105	0.0105	0.0022	76.5
0.006	-0.0878	0.0142	0.0135	76.6
0.006	0.009	0.0165	0.0277	76.7
0.0067	0.09	0.0187	0.024	76.7
0.0082	0.0975	0.0157	-0.0165	76.9
0.006	0.069	0.0142	-0.0495	76.6
0.0067	0.0547	0.009	0.0135	76.9
0.0075	0.0382	0.0045	0.0585	76.9
0.0045	-0.006	0.0015	0.0165	76.9
-0.0008	-0.0953	0	-0.0188	77
-0.006	-0.1441	-0.0008	-0.0293	76.9
-0.0098	-0.0623	-0.0015	-0.0375	76.9
-0.0143	0.0142	-0.0015	-0.0728	76.9
-0.0203	-0.0188	-0.0023	-0.054	76.9
-0.0203	0.0367	-0.0053	-0.006	77
-0.0143	0.0727	-0.0068	0.0082	77.1
-0.012	0.036	-0.0053	-0.0405	77
-0.0143	0.0142	-0.0015	-0.0458	77.1
-0.0128	-0.0465	0.0015	0.0435	77.3
-0.0105	-0.057	0.003	0.0532	77.2
-0.0091	-0.0765	0.0067	0.0405	77.3
-0.0053	-0.09	0.0112	0.0202	77.3
0	-0.0706	0.0105	0.0187	77.4
0.0037	-0.0623	0.0082	0.0337	77.4
0.0075	-0.0105	0.006	0.0127	77.4
0.0097	0.0255	0.0075	0.0105	77.4
0.0112	0.0315	0.009	0.054	77.4
0.0142	0.0067	0.0097	0.0555	77.4
0.0135	-0.0203	0.0105	-0.0075	77.4
0.0142	0.0037	0.009	-0.0578	77.7
0.0157	0.0052	0.0067	-0.123	77.6
0.0142	-0.0053	0.003	-0.0765	77.7
0.0127	0.0292	0.0022	0.003	77.3
0.0127	0.0975	0.0045	0.0015	77.8
0.0127	0.0877	0.0052	-0.003	77.8
0.0097	-0.0668	0.0052	-0.0091	77.7
0.009	-0.0203	0.0067	0.0067	77.9
0.0075	0.1477	0.0082	0.0367	77.7
0.0052	0.0795	0.0082	0.0667	78
0.003	0.0285	0.0082	0.0547	77.8
0.0015	-0.0525	0.0067	0.0195	78
0.0022	-0.0585	0.0052	-0.0128	78
0.0007	0.0652	0.0075	-0.0181	77.8
-0.003	0.0495	0.0075	-0.0023	78
-0.0053	0.0615	0.0045	-0.0495	78
-0.0046	-0.0233	0.0007	-0.0285	78.1
-0.0015	-0.105	-0.0015	0.0727	78
0	-0.0128	-0.0008	0.0592	78.2
-0.0015	-0.024	0.0007	-0.0608	78.1
-0.003	-0.0863	0.0015	-0.1058	78.2
-0.0053	-0.0315	0.0052	-0.0308	78.2
-0.0046	0.036	0.0127	0.0405	78.2
-0.0046	0.0615	0.015	0.0592	78.5
-0.0046	0.1365	0.0142	0.1035	78.3
0.0015	0.2025	0.015	0.0817	78.3
0.0045	0.1417	0.018	0.003	78.3
0.0082	-0.054	0.024	-0.003	78.3
0.009	-0.2303	0.0277	-0.123	78.5
0.0037	-0.1935	0.0292	-0.0638	78.5
0.0045	-0.123	0.0277	0.0232	78.3
0.0045	-0.1883	0.0232	-0.0743	78.5
0.0037	-0.0675	0.0187	-0.0091	78.6
0.003	0.108	0.0142	0.0015	78.5
0.003	0.141	0.012	-0.0315	78.6
0.0015	0.1087	0.009	-0.0503	78.5
-0.0008	-0.1163	0.0045	-0.0278	78.7
-0.0008	-0.1118	-0.0008	-0.0308	78.7
-0.0046	0.0015	-0.0038	-0.012	78.7
-0.003	-0.006	-0.0053	0.069	78.9
-0.0015	0.0937	-0.0083	0.0562	78.7
-0.0046	0.0652	-0.0105	0.0607	78.9
-0.0023	0.0712	-0.0113	0.0405	78.7
-0.0015	0.0727	-0.0113	0.0397	78.9
-0.0008	0.0322	-0.0143	0.0225	78.9
-0.0015	0.0225	-0.0113	-0.0038	78.8
-0.003	-0.021	-0.0105	-0.0098	78.9
-0.003	0.0135	-0.0128	-0.0691	79
-0.0023	-0.0908	-0.0143	-0.0691	78.9
-0.0046	-0.0968	-0.0128	-0.057	79
-0.0083	0.0345	-0.0091	-0.0113	79
-0.0083	0.0232	-0.0098	0.0592	79.1
-0.0083	0.0442	-0.003	0.0352	79.2
-0.0091	0.039	0.0007	0.033	79.3
-0.0053	0.0232	0.003	0.0532	79.2
-0.0046	0.0247	0.0075	-0.0008	79.2
-0.0068	-0.0083	0.009	-0.015	79.2
-0.0075	-0.006	0.0105	-0.0578	79.2
-0.0046	0.0202	0.009	-0.06	79.2
-0.003	0.0885	0.0105	0.0525	79.3
-0.0046	0.1087	0.0165	0.0307	79.3
-0.003	0.0877	0.0172	0.003	79.4
-0.003	0.087	0.0142	-0.0098	79.4
-0.003	0.003	0.0157	-0.033	79.3
-0.0015	-0.1508	0.0157	0.0307	79.4
0	-0.186	0.015	0.0787	79.5
0.0015	-0.0818	0.0165	0.0367	79.5
0.0015	-0.1028	0.0165	-0.0015	79.5
0.0022	-0.1178	0.0142	-0.0555	79.4
0.003	0.048	0.009	-0.0983	79.7
0.0045	0.084	0.003	0.042	79.5
0.0067	0.0157	-0.0015	0.0352	79.6
0.003	-0.114	-0.0008	-0.0165	79.6
0.003	-0.177	-0.0046	0.0127	79.7
0.0022	0.0367	-0.0105	0.0195	79.7
0.003	0.111	-0.012	0.0735	79.7
0.0037	0.09	-0.0083	0.0457	79.7
-0.0015	0.0915	-0.0046	0.0277	79.7
-0.0038	0.0615	-0.0023	-0.0165	79.7
-0.003	0.1192	0	-0.054	79.9
-0.0038	0.0915	0.003	-0.0315	80
-0.0068	0.0165	0.0037	-0.0105	79.9
-0.0068	-0.15	0.0045	-0.024	80
-0.0053	-0.2018	0.0067	-0.042	79.8
-0.0053	-0.054	0.0082	-0.0488	79.9
-0.0075	-0.048	0.0082	-0.0465	80.1
-0.0083	0.0307	0.0075	-0.0091	79.9
-0.0083	0.0315	0.0052	0.0277	80.1
-0.0098	-0.0945	0.0052	0.0435	80.1
-0.0091	-0.0075	0.0037	0.033	80.1
-0.0091	0.0307	0.0015	0.018	80.1
-0.012	-0.0525	0.0015	-0.0518	80.2
-0.0113	-0.0968	-0.0008	-0.0181	80.3
-0.0083	0.003	0.0015	0.105	80.3
-0.0091	0.1177	0.0045	0.066	80.2
-0.0135	0.0442	0.0082	-0.0225	80.3
-0.0143	-0.0098	0.0015	-0.0158	80.2
-0.012	-0.0315	-0.0053	0.0045	80.3
-0.0128	-0.0075	-0.0046	0.0645	80.4
-0.012	0.0442	-0.0046	0.0277	80.3
-0.0143	0.015	-0.0015	-0.1095	80.5
-0.0091	0.0457	0.0015	-0.1238	80.5
-0.0075	0.0855	0.0045	-0.0285	80.5
-0.0068	0.1102	0.0052	0.0277	80.7
-0.003	0.1335	0.0075	-0.0361	80.5
-0.0023	0.0225	0.009	-0.021	80.6
0.003	-0.1508	0.0067	-0.0091	80.6
0.0015	-0.1373	0.012	0.012	80.7
-0.0015	0.0517	0.015	0.03	80.7
-0.0023	0.0712	0.0135	-0.0158	80.7
-0.0015	0.0292	0.0142	-0.0256	80.7
-0.0023	0.0037	0.0157	-0.0743	80.8
-0.0015	-0.0503	0.0172	-0.0263	80.7
-0.0008	0.0255	0.0157	0.048	80.9
0.0007	0.0352	0.0105	0.0577	80.9
0.0007	-0.0083	0.009	0.0412	80.8
0.0015	-0.09	0.0052	0.009	80.9
0.0037	-0.0788	0.0045	0	81
0.003	0.0615	0.0082	-0.0308	80.9
0.0015	0.0292	0.009	0.021	81
0	0.0525	0.006	0.084	80.9
0	0.0255	0.0007	0.069	81.1
0.0007	-0.1021	-0.003	0.0675	81
0.0007	-0.1155	-0.0046	0.0337	81
0.0015	-0.0758	-0.0075	-0.0165	81
0.003	0.057	-0.003	-0.045	81.1
0.0037	0.114	0.0015	0.0067	81.1
0.0045	0.0405	0.003	0.0465	81.4
0.0045	-0.0675	0.0082	-0.0278	81.4
0.0007	-0.0698	0.0142	-0.0203	81.2
0.0007	0.0232	0.0165	-0.0128	81.4
0.0007	-0.0091	0.0127	-0.0443	81.3
0.003	-0.0518	0.0105	-0.0398	81.4
0.003	-0.003	0.012	-0.0075	81.5
0.0037	0.0052	0.009	-0.0015	81.4
0.003	-0.0046	0.0045	-0.0413	81.5
0.0067	0.0405	0.0007	-0.0053	81.4
0.0067	0.0862	-0.0008	0.0142	81.6
0.0022	0.1087	-0.0023	0.0502	81.5
0.0022	0.09	-0.0038	0.042	81.4
0.0007	0.0742	-0.006	-0.042	81.5
0.0015	0.0645	-0.0083	-0.0593	81.4
0.0015	0.0142	-0.0046	-0.0548	81.7
0.0037	0.0457	-0.0046	-0.039	81.5
0.006	0.0877	-0.003	-0.0075	81.7
0.0067	0.0127	0.0015	-0.0075	81.7
0.0045	-0.1208	-0.0008	-0.0218	81.7
0.0082	-0.1013	-0.0008	0.0217	81.8
0.0105	0.0142	0.0067	0.0592	81.7
0.0045	-0.1185	0.0112	0.0577	81.9
0.0022	-0.1613	0.0142	0.036	81.7
0.0022	-0.1418	0.0127	0.0165	82
0.0045	-0.1658	0.0082	-0.012	81.9
0	-0.0503	0.0097	-0.063	81.9
-0.003	-0.0555	0.0105	-0.0128	82
-0.0046	0.0217	0.0195	0.0127	82.1
-0.0091	0.069	0.0262	0.0277	82.2
-0.0128	0.045	0.0255	0.0277	82
-0.0173	0.0577	0.0262	-0.0233	82
-0.0165	0.0435	0.021	0.0255	82.3
-0.0158	0.1185	0.0195	0.0487	82.2
-0.0158	0.0997	0.0195	0.0547	82.2
-0.0143	0.102	0.0195	0.087	82.3
-0.0113	0.0915	0.015	0.0592	82.3
-0.0113	-0.0083	0.0067	-0.0278	82.3
-0.0083	-0.1163	0.0015	-0.081	82.3
-0.006	-0.0615	0.0022	-0.0578	82.3
-0.0075	0.0622	0.0037	0.048	82.6
-0.0038	-0.0998	0.003	0.117	82.4
-0.003	-0.126	0.0007	0.0592	82.5
0	0.0345	-0.0015	-0.0848	82.3
0	-0.0075	-0.0046	-0.1703	82.4
0.0015	-0.0443	-0.0083	-0.078	82.5
0.003	0.0742	-0.0068	-0.075	82.5
0.0045	0.1425	-0.0068	-0.027	82.8
0.0067	0.1065	-0.0105	0.0382	82.7
0.0045	0.057	-0.0128	-0.0091	82.6
0.0052	0.0142	-0.0105	-0.0195	82.8
0.0015	-0.0706	-0.006	-0.054	82.6
0.0007	-0.0706	-0.0015	-0.0413	82.7
0.0007	-0.033	0	-0.024	82.9
-0.003	-0.0256	-0.0015	0.015	82.9
-0.0038	0.0727	-0.0008	0.048	82.8
-0.0068	0.0615	-0.0015	0.0277	82.9
-0.0053	-0.0353	0.0007	0.006	82.8
-0.0068	-0.0533	0.0037	0.0015	82.9
-0.006	0.0307	0.0082	-0.0308	83
-0.003	-0.0195	0.0082	-0.0398	82.9
-0.0015	-0.1215	0.0105	0.024	83.2
-0.003	-0.0368	0.012	0.018	83
-0.0038	-0.0608	0.0112	-0.024	83.2
-0.0008	-0.1313	0.0127	-0.03	83.1
-0.0023	-0.075	0.0142	0.0195	83.1
-0.0023	0.0322	0.0165	0.084	83.1
-0.0046	0.0765	0.0165	0.1042	83.3
-0.006	0.0675	0.012	0.051	83.2
-0.0068	0.054	0.0112	0.0067	83.4
-0.0038	0.0315	0.0067	0.0022	83.3
-0.0046	0.0202	0.003	-0.0278	83.2
-0.0053	-0.0233	-0.0008	-0.0203	83.3
-0.0038	-0.0533	-0.0015	0.0442	83.2
-0.003	-0.0165	-0.0015	0.0157	83.4
-0.003	0.0405	0	-0.1013	83.2
-0.0053	0.0532	0.0015	-0.027	83.5
-0.0053	0.0577	0.0015	0.0165	83.5
-0.0068	0.0397	0.0052	0.015	83.4
-0.0046	-0.0135	0.003	0.0405	83.5
-0.0015	-0.0615	0.0015	-0.03	83.4
-0.0015	-0.1215	0.0037	0.027	83.7
0.0015	-0.15	0.0045	-0.0091	83.6
0.0015	-0.0368	0.0037	0.009	83.7
0.0052	0.1425	0.003	0.0592	83.7
0.0067	0.195	0.006	0.042	83.7
0.0067	0.1275	0.0052	0.0495	83.7
0.0037	0.0802	0.0045	-0.003	83.8
0.0015	0.0675	0.0052	-0.0256	83.9
0.0015	-0.0548	0.0052	-0.0615	83.7
0.0022	-0.0945	0.0067	0.003	84
0.003	-0.1043	0.0075	-0.042	83.8
0.0007	-0.1658	0.012	-0.0398	83.9
-0.0023	-0.0338	0.0112	-0.003	84
-0.0023	0.0922	0.0075	-0.0278	83.9
-0.0015	0.0765	0.0052	0.048	84.1
0.0007	0.054	0.0052	-0.0083	84.1
0	0.1815	0.009	-0.03	84.1
-0.0015	0.2542	0.0105	-0.054	84
-0.0015	0.012	0.0082	-0.0653	84.1
0	-0.2558	0.0075	-0.0181	84.2
-0.003	-0.2063	0.012	0.0262	84.3
-0.0068	-0.0765	0.0157	0.0622	84.2
-0.0023	-0.0691	0.0157	0.0495	84.2
-0.0008	0.0352	0.0172	0.0405	84.3
-0.0008	-0.0346	0.0127	0.0165	84.1
0.0015	-0.105	0.0105	0.0225	84.4
0.0007	-0.0818	0.0105	-0.0098	84.3
-0.0008	-0.1381	0.0097	-0.0203	84.5
0	0.051	0.009	-0.0181	84.4
0	0.123	0.0067	-0.0233	84.3
0.0022	0.069	0.0045	0.0052	84.5
0.0052	0.072	0.003	0.003	84.6
0.0045	0.0285	0.0045	-0.024	84.5
0.0015	0.0345	0.0045	-0.0428	84.6
0.0007	0.0292	0	0.0135	84.5
0	0.0555	-0.0008	0.03	84.6
-0.0008	0.0562	-0.0008	0.0015	84.6
-0.0023	0.0405	-0.0008	-0.0008	84.6
-0.0053	0.0262	-0.003	-0.0015	84.7
-0.0053	-0.0068	-0.0075	-0.0233	84.7
-0.0053	-0.0346	-0.0068	-0.0428	84.6
-0.0091	-0.0593	-0.0015	-0.027	84.9
-0.0113	0.003	0.0015	0.0232	84.7
-0.0098	0.054	0.0082	0.1042	84.8
-0.0091	0.0465	0.0135	0.0855	84.9
-0.0105	0.0277	0.0157	-0.0743	84.8
-0.0113	0.0127	0.0142	-0.1043	85
-0.0105	-0.0068	0.0105	0.006	84.9
-0.0068	-0.0593	0.0067	0.0382	84.9
-0.0068	-0.0225	0.006	0.0127	85.1
-0.0075	0.045	0.009	0.0367	85
-0.0091	0.0607	0.0075	0.0765	85
-0.0143	0.081	0.0075	0.0217	85.2
-0.0143	0.0502	0.0067	0.0007	85
-0.0105	0.0082	0.0067	0.0157	85.1
-0.0083	-0.003	0.0082	0.0165	85.1
-0.0046	-0.0225	0.0082	-0.006	85.1
-0.0015	-0.0338	0.0082	-0.0675	85.1
-0.0023	-0.0083	0.0067	-0.0203	85.2
-0.0023	-0.0968	0.0082	0.0037	85.3
-0.0008	-0.1711	0.006	-0.0008	85.2
0.003	-0.1748	0.0007	-0.033	85.2
0.0045	-0.2078	0.0015	-0.0203	85.4
0.0045	-0.0518	0.0037	0.0472	85.1
0.0022	-0.0203	0.0045	-0.0278	85.4
-0.0023	-0.0233	0.0067	-0.024	85.3
-0.0046	0.0652	0.0112	-0.0135	85.5
-0.0105	0.0502	0.012	-0.0053	85.4
-0.012	0.123	0.012	0.063	85.5
-0.0113	0.1552	0.015	0.0037	85.5
-0.012	0.18	0.0187	0.0075	85.5
-0.0105	0.129	0.021	0.0397	85.5
-0.0105	0.0165	0.0232	0.012	85.4
-0.0068	-0.0443	0.0262	0.0307	85.7
-0.0046	-0.0908	0.024	0.0157	85.5
0.0007	-0.1455	0.0195	-0.0218	85.6
0.0052	-0.0825	0.0165	-0.0225	85.5
0.0052	0.144	0.009	-0.0165	85.7
0.0082	-0.0015	0.003	-0.0383	85.6
0.0127	-0.1163	-0.0023	-0.0698	85.6
0.0135	-0.0698	-0.0068	-0.0398	85.8
0.0187	-0.1793	-0.0091	-0.0165	85.7
0.024	-0.1545	-0.0105	-0.0158	85.5
0.0247	-0.0315	-0.0083	-0.0218	85.7
0.0255	0.1245	-0.0091	-0.0683	85.9
0.0217	0.141	-0.012	-0.0465	85.7
0.0195	0.0502	-0.0113	0.0142	85.8
0.0157	0.0052	-0.0068	0.0382	85.8
0.0082	0.0292	0.003	0.0435	85.8
0.0045	-0.0428	0.0052	-0.0075	86
0.0045	-0.2198	-0.0015	-0.006	85.8
0.0075	-0.1553	-0.003	0.027	85.9
0.0067	0.1785	0.003	-0.0375	85.8
0.003	0.255	0.006	-0.0788	85.9
0.003	0.117	0.0075	-0.0346	86
0	0.138	0.0157	0.003	85.9
-0.0053	0.0202	0.0195	0.0592	86
-0.0068	-0.0083	0.0217	0.1117	86.1
-0.0068	0.078	0.0202	0.1395	86.2
-0.0091	0.0982	0.018	0.1702	86.1
-0.0098	0.1447	0.0142	0.027	86
-0.0091	-0.0398	0.0097	-0.1463	86
-0.0091	-0.2333	0.0112	-0.0675	86.3
-0.0091	-0.1485	0.0127	0.0532	86.2
-0.0091	-0.114	0.0112	0.0195	86.1
-0.0068	-0.1943	0.0082	-0.0158	86.3
-0.003	-0.0428	0.0015	-0.0436	86
-0.0015	0.2025	-0.003	-0.006	86.3
-0.006	0.2017	-0.006	0.009	86.1
-0.0083	0.096	-0.0068	-0.0128	86.1
-0.0091	0.0465	-0.0046	0.033	86.3
-0.0046	-0.0675	-0.003	0.0322	86.2
-0.0008	-0.0368	0.0015	0.0307	86.5
-0.0023	0.1102	0.0052	-0.012	86.3
-0.0015	0.0255	0.0045	-0.0278	86.4
-0.0015	-0.0863	0.0067	-0.0375	86.4
0	-0.0398	0.0082	-0.0436	86.5
-0.0015	0.0255	0.0067	-0.0203	86.3
-0.0015	-0.12	0.003	-0.0135	86.5
0.003	-0.1335	-0.003	-0.0256	86.4
0.0045	0.048	-0.003	-0.027	86.4
0.0052	0.0082	-0.0053	0.0135	86.4
0.006	0.0165	-0.0008	0.0247	86.4
0.0037	0.0127	0.006	0.0427	86.6
0.0022	-0.0143	0.0045	0.0082	86.6
-0.003	0.0292	0.0045	-0.0338	86.6
-0.0053	-0.0068	-0.0008	-0.0256	86.5
-0.0046	-0.0203	0.0007	-0.0181	86.5
-0.0053	-0.048	0.0052	0.0052	86.7
-0.0083	-0.0293	0.003	0.0067	86.6
-0.0105	0.0315	0.0052	0.0165	86.7
-0.0098	0.0592	0.0082	0.0345	86.7
-0.0105	0.0675	0.0105	0.0487	86.7
-0.0105	0.069	0.012	0.0712	86.5
-0.0083	0.0757	0.0157	0.027	86.8
-0.0091	0.0615	0.0165	-0.0203	86.7
-0.0083	0.009	0.0165	-0.0293	86.6
-0.0068	-0.1006	0.0202	-0.0428	86.8
-0.003	-0.0848	0.024	-0.0158	86.6
0	0.0007	0.0225	0.0075	86.8
0.0015	-0.0158	0.018	0.0375	86.8
0.0015	0.021	0.0142	0.0517	86.8
0.0045	0.0465	0.0105	0.027	86.9
0.0067	0.0367	0.0067	0.0292	86.7
0.0075	0.048	0.0015	0.0345	86.9
0.0067	0.0112	-0.003	0.018	86.8
0.0067	-0.0308	-0.0068	-0.06	86.7
0.006	-0.0863	-0.0091	-0.105	86.9
0.0052	-0.0698	-0.0091	-0.0765	86.9
0.003	-0.0053	-0.0046	-0.012	86.8
0.0045	-0.0256	-0.003	0.0007	86.9
0.006	-0.0105	-0.0046	-0.0578	86.8
0.006	0.0622	-0.0023	-0.0743	86.9
0.0067	0.0892	0.0045	-0.033	87.1
0.0045	0.0765	0.0127	0.0292	86.9
0.0045	0.0532	0.0157	0.0367	87.1
0.003	0.0615	0.0187	0.0577	86.9
0.0015	-0.0046	0.018	0.0547	87
0.0015	-0.1478	0.015	0.012	87.2
0.0045	-0.078	0.012	0.0052	87
0.0082	-0.0195	0.0105	-0.0023	87.2
0.0067	-0.042	0.009	0.0142	87.1
0.009	-0.0353	0.0075	0.0007	87.2
0.0105	-0.0315	0.0105	-0.0015	87.2
0.0112	0.099	0.0142	-0.003	87.3
0.012	0.0157	0.0157	-0.0128	87.2
0.012	-0.0346	0.0165	0.0292	87.2
0.0112	-0.03	0.0172	0.048	87.2
0.0127	-0.0315	0.0165	0.0472	87.3
0.015	0.0847	0.0157	0.0675	87.3
0.0135	-0.0091	0.0105	0.0615	87.2
0.0157	0.0855	0.0022	0.006	87.4
0.0195	0.177	0.0007	-0.0188	87.3
0.0217	0.084	0.0015	0.0067	87.3
0.0195	-0.0308	0.0007	-0.033	87.4
0.0127	-0.216	-0.0015	-0.1298	87.3
0.0127	-0.1381	-0.0053	-0.1358	87.5
0.0097	-0.0825	-0.006	-0.0668	87.3
0.009	-0.1373	-0.0083	-0.0278	87.6
0.012	-0.075	-0.0128	-0.0428	87.4
0.0105	-0.0091	-0.0128	-0.0218	87.5
0.0052	0.0352	-0.0105	-0.0023	87.3
0	-0.0256	-0.0091	-0.0158	87.7
0.003	-0.1028	-0.006	0.0187	87.4
0.0015	-0.024	-0.0008	0.033	87.7
-0.003	0.09	0.0082	0.036	87.7
-0.0046	0.075	0.0142	0.0517	87.7
-0.0023	0.1065	0.012	0.0772	87.7
0.003	0.1837	0.0037	0.072	87.7
0.0045	0.0697	-0.0023	0.039	87.7
0.006	-0.0968	-0.0068	0.0315	87.7
0.0037	-0.1838	-0.0083	0.0442	87.6
0.0007	-0.1396	-0.0053	0.0405	87.6
0.003	-0.0428	-0.0038	-0.0278	87.5
0.0045	-0.0188	-0.0038	-0.042	87.7
0.003	-0.0233	-0.003	0.0142	87.7
-0.0015	-0.0615	-0.0008	-0.0046	87.7
-0.003	0.0742	0.003	-0.1253	87.7
-0.0046	0.2272	0.0022	-0.0788	87.9
-0.0083	0.0765	0.0045	0.0712	87.8
-0.0091	0.0075	0.0082	-0.0338	87.8
-0.0098	0.0607	0.009	-0.0128	88
-0.0083	-0.0143	0.0097	0.0262	87.9
-0.0083	-0.0263	0.0127	-0.0263	88
-0.006	0.0075	0.0217	0.042	87.8
0.0015	0.0157	0.021	0.0255	88
0.0052	0.081	0.0232	0.0577	88.1
0.006	0.1627	0.0277	0.012	88
0.0037	0.1177	0.0315	-0.0488	88
0	-0.0361	0.0322	-0.0075	88
0.0022	-0.0495	0.0277	-0.0143	88.1
-0.0008	0.015	0.0255	-0.0413	88
-0.0008	-0.0105	0.0225	-0.0525	88.2
-0.006	-0.012	0.0142	-0.0225	88
-0.0091	0.0037	0.0105	0.0052	88.4
-0.003	0.018	0.0052	0.0315	88.1
-0.003	0.0405	0.0007	0.0255	88.2
-0.0038	0.0142	0.0007	0.0382	88.3
-0.003	-0.0083	0	0.051	88
-0.0008	-0.0975	-0.0053	-0.0188	88.3
0	-0.1575	-0.0068	-0.0278	88.1
-0.0038	-0.0308	-0.0053	-0.0278	88.3
-0.0046	0.003	-0.0046	-0.0698	88.3
-0.0068	-0.0503	-0.0053	-0.0346	88.2
-0.0091	-0.033	-0.0023	-0.0998	88.3
-0.0068	-0.0308	0.0007	-0.0893	88.2
-0.0053	0.0285	0.0045	0.0405	88.5
-0.0068	0.0547	0.0082	-0.0015	88.5
-0.0083	0.0255	0.0082	0.0495	88.5
-0.0091	0.0375	0.0097	0.0495	88.5
-0.0105	0.0292	0.0105	0.012	88.6
-0.012	0.0082	0.0082	0.0352	88.6
-0.0098	-0.0698	0.0082	-0.0046	88.6
-0.0098	-0.039	0.0105	0.0217	88.6
-0.0083	0.1027	0.0142	0.0127	88.6
-0.0068	0.117	0.0165	0.03	88.8
-0.0075	0.039	0.0135	0.027	88.7
-0.0113	-0.132	0.0105	0.0165	88.8
-0.0098	-0.114	0.003	0.0232	88.7
-0.0075	0.0442	-0.003	0.0075	88.8
-0.0068	0.012	-0.0075	0.042	88.9
-0.0008	0.0405	-0.0143	0.0345	88.7
0	0.048	-0.0165	0.009	88.7
-0.0008	0.0165	-0.0195	-0.0293	88.7
-0.0008	0.0202	-0.0218	-0.06	89
-0.0046	-0.0353	-0.021	-0.0765	88.7
-0.0068	-0.027	-0.0218	-0.081	89
-0.0105	0.009	-0.0203	-0.0195	88.7
-0.0128	0.0675	-0.0128	0.0352	89
-0.0135	0.1155	-0.0083	0.057	89.1
-0.0143	0.1102	-0.0023	0.0495	88.9
-0.0165	0.0675	0.0007	0.06	89.2
-0.0135	-0.054	0.003	0.0555	88.9
-0.0143	-0.0923	0.0082	0.039	89.1
-0.0143	-0.0675	0.0075	0.0052	89.1
-0.0128	-0.135	0.003	-0.0015	89.1
-0.0113	-0.111	0.0015	0.0255	89.2
-0.0113	-0.0578	0.0007	-0.0105	89.1
-0.0105	-0.0398	-0.003	-0.0443	89.1
-0.0098	-0.0878	-0.0068	-0.063	89.2
-0.012	-0.1523	-0.0105	0.018	89.2
-0.012	-0.0511	-0.0158	0.0007	89.2
-0.0158	-0.0053	-0.0173	-0.078	89.2
-0.0181	0.0112	-0.0181	0.0052	89
-0.0188	0.0292	-0.0181	-0.006	89.4
-0.0203	0.0382	-0.0165	-0.0563	89.2
-0.0195	0.0877	-0.012	0.0615	89.2
-0.0181	0.1102	-0.0053	0.0825	89.4
-0.021	0.0802	0.0007	-0.0308	89.3
-0.0256	0.021	0.0045	-0.027	89.6
-0.027	0	0.0052	-0.0158	89.5
-0.0256	-0.042	0.006	-0.0203	89.4
-0.024	-0.0915	0.009	-0.0068	89.5
-0.021	-0.1275	0.0105	0.0007	89.6
-0.0195	-0.0443	0.009	-0.0218	89.6
-0.0188	0.0832	0.0082	-0.0315	89.5
-0.0181	0.0742	0.009	-0.0165	89.5
-0.0203	0.06	0.0112	-0.015	89.5
-0.0181	0.0495	0.015	-0.003	89.7
-0.0135	0.0727	0.018	-0.0091	89.5
-0.0135	0.0405	0.0217	0.0007	89.7
-0.012	-0.0615	0.0217	0.0037	89.6
-0.0098	-0.045	0.0225	0.012	89.7
-0.0098	-0.0143	0.021	0.015	89.7
-0.0083	-0.0308	0.0165	-0.0181	89.5
-0.0075	-0.012	0.0142	-0.0405	89.7
-0.0075	0.0217	0.0105	-0.054	89.8
-0.0083	0.0532	0.0067	-0.0578	89.8
-0.0075	0.0937	0.0082	0.0082	89.9
-0.0038	0.0967	0.0067	0.0787	89.9
-0.0008	0.0397	0.0022	0.0742	90
0.0007	-0.09	0.003	0.0465	90
-0.0015	-0.1088	0.0067	-0.012	89.8
-0.003	-0.0046	0.006	-0.0398	89.9
0.0007	0	0.0105	0.012	90.1
0	0.0517	0.0157	0.0315	89.9
-0.0015	0.042	0.0165	-0.0015	90.1
-0.0015	-0.0256	0.0202	0.039	90
-0.0053	0.024	0.0232	0.0832	90.1
-0.003	0.0787	0.027	0.0817	90.1
-0.0008	0.0847	0.0315	0.0555	90
0.0007	0.0502	0.0292	0.006	90.2
0.0037	0.063	0.0255	0.0037	90
0.0045	-0.084	0.0187	-0.0068	90
0.0037	-0.2498	0.0082	-0.0368	90.1
0.0037	-0.0953	0.0015	-0.0346	90.3
0.003	0	-0.0015	-0.0323	90.2
0.0022	-0.0346	-0.0053	-0.042	90.1
0	0.0315	-0.0105	-0.0555	90.1
-0.0015	0.0052	-0.0113	-0.0728	90.3
-0.0008	-0.0038	-0.0068	-0.0293	90.2
0.0015	0.0465	-0.0068	0.0225	90.3
0.0037	-0.033	-0.0105	0.0382	90.3
0.0045	-0.1043	-0.0083	0.033	90.2
0.0045	-0.057	-0.0053	0.0322	90.4
0.0037	0.0367	-0.003	0.0517	90.4
0.0015	0.0135	-0.003	0.0367	90.3
-0.0023	-0.006	-0.003	-0.0375	90.5
-0.0046	0.0555	0.006	-0.0915	90.4
-0.0046	0.0577	0.0157	0.0082	90.6
-0.0015	0.0195	0.0157	0.0127	90.5
0.0007	0.027	0.0157	-0.0008	90.5
0.0015	0.039	0.0195	0.045	90.6
0.0007	0.0195	0.0232	-0.0165	90.6
0.0022	0.057	0.0217	-0.0218	90.5
0.003	0.0735	0.0202	-0.0383	90.6
0.0015	0.1012	0.0195	-0.0113	90.7
0.0015	0.1125	0.0172	0.0352	90.6
0	0.0397	0.0165	0.0307	90.7
-0.0015	-0.0555	0.0142	0.0165	90.6
-0.0008	-0.1485	0.0165	-0.0503	90.7
0.0007	-0.1283	0.018	-0.0818	90.9
0.0037	-0.0195	0.0127	-0.0623	90.8
0.0067	0.0157	0.0105	0.0165	91
0.003	0.0135	0.009	0.0232	90.7
0.0015	0.0067	0.0082	0.012	90.9
0.0007	-0.027	0.0082	0.0292	90.8
0.0015	0.0397	0.0082	0.0165	90.9
0.0007	0.0457	0.0105	0.033	90.9
-0.0015	-0.027	0.0105	0.003	90.9
-0.003	-0.1298	0.0112	-0.012	90.9
-0.0046	-0.165	0.0127	-0.0105	91.2
-0.003	0.0015	0.0172	-0.0068	91
0	-0.0023	0.0172	0.0007	90.9
0.003	0.042	0.0157	-0.012	91.1
0.0015	0.1005	0.0135	-0.033	91
0.0007	0.0157	0.0082	-0.027	91.2
0.0015	0.0195	0.0007	0.0157	91
0.0015	-0.0195	-0.006	0.0345	91.1
0.003	-0.0181	-0.0098	0.0277	91.2
0	-0.0195	-0.0098	0.039	91
-0.0015	-0.0053	-0.0075	0.0435	91.2
0.0007	0.0022	-0.0068	-0.0195	91.2
0.0015	-0.0105	-0.0053	-0.0105	91.3
0.0045	0.0345	0.003	0.0412	91.3
0.0015	0.0352	0.012	0.0067	91.4
-0.003	0.0352	0.0112	-0.0195	91.4
-0.0008	0.018	0.012	-0.0068	91.4
0.003	-0.0195	0.015	-0.0023	91.3
0.0052	-0.0818	0.012	0.006	91.4
0.003	-0.066	0.0105	0.018	91.4
0.0007	0.084	0.012	0.0517	91.3
0.0007	0.1627	0.0127	0.0622	91.6
0	0.1695	0.012	0.0277	91.4
0.0007	0.027	0.0082	-0.003	91.5
0.0007	-0.207	0.0052	-0.0256	91.7
0.003	-0.0593	0.0075	-0.003	91.5
0.0052	0.0622	0.0067	0.0022	91.6
0.0052	-0.0773	0.006	-0.0188	91.5
0.006	-0.0293	0.009	-0.0346	91.6
0.0067	-0.0233	0.0127	-0.0548	91.5
0.006	-0.0458	0.0187	-0.0495	91.6
0.0052	0.003	0.0232	-0.027	91.6
0.0067	0.0382	0.0217	-0.012	91.8
0.0067	0.0457	0.0165	-0.0158	91.5
0.0082	-0.0105	0.009	-0.0218	91.7
0.0112	-0.0878	-0.0008	-0.021	91.6
0.0127	-0.1065	-0.006	-0.0038	91.6
0.0172	-0.0113	-0.0105	0.009	91.8
0.0165	0.0352	-0.012	0.0195	91.6
0.0172	0.0307	-0.0105	0.0112	91.8
0.0142	0.0435	-0.0053	-0.0068	91.8
0.0157	0.0555	-0.0046	0.0022	91.6
0.0142	0.0292	-0.0023	-0.015	91.8
0.0082	-0.114	-0.0015	-0.0405	91.7
0.009	-0.2093	-0.0015	-0.0405	91.9
0.0075	-0.0691	0.0045	-0.0015	91.8
0.009	0.045	0.009	0.039	91.9
0.009	0.0577	0.0105	0.0472	92
0.009	0.0885	0.0105	0.045	92
0.012	0.0532	0.003	0.063	91.9
0.015	0.0607	0.0007	0.0825	91.9
0.0142	0.0577	0.0015	0.036	91.9
0.015	0.003	-0.0015	0.003	91.8
0.0105	-0.0091	-0.0046	-0.021	92
0.0075	0.0052	-0.0046	-0.0413	91.8
0.0082	0.0495	-0.003	-0.0615	92
0.0052	0.0645	0.0007	-0.0615	92.1
0.0052	0.063	0.0045	-0.0068	92
0.0075	0.057	0.009	0.0292	92.2
0.0067	0.0165	0.0105	0.0442	92
0.009	-0.0638	0.0105	0.0052	92.3
0.0105	-0.1441	0.0067	-0.048	92.1
0.0127	-0.1095	0.0082	-0.0765	92.1
0.0112	-0.0053	0.012	-0.0143	92.1
0.0067	0.015	0.0105	0.03	92.3
0.003	-0.006	0.009	0.027	92.2
-0.0008	-0.003	0.009	0.0157	92.2
-0.0038	-0.0195	0.0127	-0.0113	92.2
-0.0068	-0.0128	0.0195	0.0255	92.1
-0.0083	0.0195	0.0225	-0.0023	92.4
-0.0083	0.0735	0.0232	-0.0083	92.2
-0.0038	0.0892	0.0195	0.0067	92.4
0	0.081	0.0142	-0.0053	92.3
0.0015	0.0502	0.009	-0.0203	92.2
0.0015	-0.033	0.0067	-0.0338	92.5
0.003	-0.0256	0.006	0	92.3
0.0045	-0.0053	0.003	0.0127	92.3
0.006	0.018	0.0037	0.0382	92.4
0.0052	0.0352	0.006	0.0532	92.6
0.006	-0.03	0.0045	0.0367	92.4
0.0097	-0.0308	-0.0008	-0.0233	92.4
0.0127	0.0195	-0.0068	-0.0525	92.4
0.015	-0.0278	-0.0098	0.0007	92.4
0.0112	-0.0615	-0.0143	0.0067	92.3
0.0105	-0.024	-0.0158	0.0015	92.3
0.009	-0.0285	-0.0105	0.0015	92.6
0.0052	-0.021	-0.0075	-0.0181	92.4
0.0082	-0.0405	-0.0053	-0.0398	92.5
0.0052	-0.0743	-0.003	-0.0375	92.6
0.0045	-0.0668	-0.0015	-0.0075	92.5
0.0022	-0.0383	0.0037	-0.015	92.7
-0.0015	0.0097	0.0082	0.0082	92.5
-0.0023	0.039	0.015	0.033	92.7
-0.0053	0.0525	0.0202	0.0172	92.6
-0.0015	0.0427	0.0225	0.0232	92.6
-0.0015	0.0577	0.0255	0.0262	92.8
-0.0046	0.1012	0.0262	0.0397	92.7
-0.0046	0.1185	0.0292	0.054	92.6
0.0007	0.0937	0.024	0.0637	92.6
0.0075	0.0412	0.018	0.0577	92.7
0.0075	-0.0263	0.0082	0.0457	92.7
0.012	-0.1545	-0.0083	0.027	92.9
0.0157	-0.15	-0.0203	0.003	92.6
0.012	-0.0143	-0.0263	-0.0346	92.7
0.0082	-0.0458	-0.0293	-0.093	92.8
0.0082	-0.0533	-0.0315	-0.108	92.7
0.0052	-0.0405	-0.0315	-0.114	92.8
0.003	-0.075	-0.0346	-0.1253	92.7
0.0052	-0.0458	-0.033	-0.1155	92.9
0.0052	-0.0405	-0.0256	-0.0765	92.7
0.0067	0.0105	-0.0188	-0.0263	92.9
0.0045	0.0465	-0.0091	0.0165	92.9
0.0007	0.0592	0.0022	0.0465	92.8
-0.0015	0.069	0.0135	0.0517	92.9
-0.0038	0.06	0.0195	0.0652	93
-0.0091	0.0637	0.0255	0.066	93
-0.015	0.039	0.0307	0.0427	92.9
-0.015	0.012	0.0352	0.0202	93
-0.0165	-0.0256	0.0405	0.0142	92.9
-0.0158	-0.015	0.0382	0.057	93
-0.0128	0.0217	0.0345	0.09	93.1
-0.0128	0.0675	0.0352	0.057	93
-0.0105	0.0937	0.036	0.036	93.1
-0.0083	0.0697	0.0307	0.051	92.9
-0.0023	0.0202	0.0232	0.0217	93.1
0.003	-0.0518	0.0172	-0.003	93
0.0052	0.0352	0.012	0.018	93.1
0.0067	0.093	0.009	-0.0068	92.9
0.009	0.0217	-0.0008	-0.045	92.9
0.0105	-0.0735	-0.0105	-0.048	93
0.0097	-0.0975	-0.012	-0.0323	93.1
0.0127	0.0577	-0.0083	-0.0368	93
0.009	0.0495	-0.0046	-0.0503	93.1
0.0052	0.027	-0.0053	-0.0353	93.1
0.003	-0.0338	-0.0068	-0.0315	92.9
0.0015	-0.2445	-0.0135	-0.0383	93.1
0.003	-0.1793	-0.0143	-0.027	93.1
-0.0008	-0.027	-0.0143	-0.015	93
-0.0015	-0.0256	-0.0165	-0.0165	93.2
-0.0046	-0.027	-0.0128	0	93
-0.0015	-0.0008	-0.0181	0.03	93.2
0	-0.0068	-0.0165	0.0277	93.1
-0.003	-0.0135	-0.0105	0.0307	93.2
-0.0046	-0.015	-0.0068	0.0127	93.1
-0.0068	0	0	-0.0638	93.1
-0.0053	0.0052	0.0052	-0.0465	93.2
-0.0053	0.024	0.0097	0.0457	93.3
-0.0083	0.0562	0.0135	0.0277	93.2
-0.0091	0.009	0.0142	0.0082	93.3
-0.0105	-0.027	0.0157	0.003	93.3
-0.0091	0.0015	0.0157	0.0037	93.1
-0.0091	0.0495	0.0157	0.024	93.4
-0.0098	0.06	0.0135	0.0037	93.3
-0.012	0.093	0.0112	0.0075	93.2
-0.0128	0.1327	0.0127	0.0135	93.5
-0.0113	0.141	0.0157	0.0285	93.2
-0.012	0.1612	0.0165	0.0397	93.5
-0.012	0.1215	0.0195	0.018	93.3
-0.0105	-0.033	0.024	0.0037	93.3
-0.0068	-0.1785	0.0315	0.0127	93.3
-0.0015	-0.1095	0.0315	0.0292	93.4
-0.0015	-0.012	0.0292	0.0105	93.4
-0.0038	-0.0225	0.0247	-0.0143	93.4
-0.003	0	0.021	-0.03	93.4
-0.0015	0.0405	0.0157	-0.024	93.4
-0.0015	-0.0383	0.009	-0.024	93.5
-0.0015	-0.2295	0.0015	-0.033	93.4
-0.0015	-0.198	-0.0046	-0.015	93.5
0.0007	0.0165	-0.0053	0.0067	93.3
0.0015	0.0367	-0.0053	-0.0008	93.3
0.0007	-0.0143	-0.0091	-0.0143	93.5
0.0007	-0.0256	-0.0068	-0.0143	93.3
0.0015	-0.0293	-0.006	-0.0008	93.5
0.003	0.0352	-0.003	0.0217	93.4
0.0015	0.0562	0.0007	0.0277	93.6
0.003	0.069	0.0015	-0.0053	93.5
0.0007	0.0907	0.0067	-0.0091	93.5
0.0022	0.1117	0.0082	0.0397	93.5
0.0052	0.084	0.0097	0.0382	93.6
0.0022	-0.0053	0.0127	0.0127	93.5
0.0015	-0.0158	0.009	0.0277	93.5
0.003	-0.0383	0.0082	0.045	93.7
0.0045	-0.0713	0.009	0.027	93.5
0.0067	-0.075	0.0052	-0.0188	93.7
0.009	-0.1035	0.0052	-0.0525	93.6
0.012	-0.063	0.0045	-0.0593	93.6
0.0105	-0.0105	0.0075	-0.063	93.7
0.006	-0.033	0.0082	-0.0885	93.6
0.0052	-0.0181	0.0082	-0.0668	93.7
0.0037	0.0195	0.0157	-0.0008	93.6
0.0052	0.0442	0.0232	0.0517	93.7
0.003	0.0532	0.0285	0.06	93.7
-0.003	0.0367	0.0315	-0.012	93.7
-0.0091	0.0277	0.027	-0.039	93.7
-0.0128	0.0165	0.0232	-0.0218	93.7
-0.0135	0.0307	0.0187	0.027	93.8
-0.0143	0.0337	0.0135	0.072	93.7
-0.015	0.018	0.0037	0.0352	93.9
-0.012	0.0112	-0.0015	0.0247	93.7
-0.0113	-0.0068	-0.0068	-0.0015	93.8
-0.0098	-0.0188	-0.0165	-0.0293	93.8
-0.0098	-0.0285	-0.0181	-0.0383	93.7
-0.0113	-0.027	-0.0158	-0.0533	93.8
-0.0113	-0.0158	-0.0135	-0.0518	93.8
-0.0091	-0.0053	-0.0098	-0.0465	94
-0.006	0.0097	-0.0091	-0.0248	93.7
-0.0046	0.0255	-0.0046	0.003	93.8
-0.0038	0.057	0.0015	0.0427	93.9
-0.0053	0.0817	0.0067	0.0502	93.9
-0.0046	0.0802	0.0105	0.0495	93.8
-0.0023	0.0817	0.0112	0.0585	94
-0.0046	0.072	0.0105	0.0495	93.8
-0.0075	-0.0008	0.0067	0.0315	93.8
-0.006	-0.1418	0.009	0.0037	94.1
-0.0083	-0.123	0.012	-0.0098	93.8
-0.0135	0.0292	0.0142	-0.012	94
-0.0135	0.0052	0.015	0.0067	94
-0.0113	-0.081	0.0202	0.0142	94
-0.0113	-0.084	0.0232	-0.0015	94.1
-0.012	-0.0068	0.0195	-0.0158	93.9
-0.0128	0.0217	0.0127	-0.0105	94
-0.015	0.009	0.0067	-0.0038	93.9
-0.0128	0.009	-0.0008	-0.0225	93.9
-0.0128	-0.024	-0.0038	-0.0008	93.9
-0.0143	0.0082	-0.003	-0.003	94
-0.0181	0.0015	-0.0023	-0.027	94
-0.0195	-0.0068	-0.0068	-0.0263	94.1
-0.0143	0.0157	-0.0105	-0.0346	94
-0.0135	0.0195	-0.012	-0.0143	94
-0.015	0.03	-0.012	0.0015	94.1
-0.0135	0.0022	-0.0181	0.0135	94
-0.0128	0.0202	-0.0195	0.0165	94.1
-0.0165	0.024	-0.0173	0.0247	94
-0.0143	-0.0533	-0.0188	0.0142	94
-0.0143	-0.0615	-0.0135	-0.027	94.1
-0.0165	-0.0158	-0.012	-0.0181	94
-0.0143	-0.0293	-0.012	0.009	94.1
-0.0135	-0.0428	-0.0068	0.0052	94
-0.0128	-0.0518	-0.0046	0.0105	94
-0.0128	-0.006	-0.0046	0.0232	94.1
-0.0165	0.0577	0.0007	0.003	94.2
-0.015	0.0532	0.0082	-0.0008	94
-0.0158	0.0472	0.0142	-0.0443	94.2
-0.0181	-0.0465	0.0172	-0.1013	94.2
-0.0195	-0.0473	0.0225	-0.0165	94.2
-0.0165	0.0405	0.0255	-0.0353	94.3
-0.0173	-0.0113	0.0247	-0.0195	94.2
-0.0181	0.054	0.027	0.0705	94.3
-0.0158	0.0697	0.027	0.0052	94.3
-0.0165	-0.027	0.0217	-0.0091	94.3
-0.0165	0.0345	0.0142	0.0015	94.3
-0.0173	0.0772	0.003	0.0472	94.2
-0.0158	0.0817	-0.0053	0.0457	94.3
-0.0128	0.0915	-0.012	0.0645	94.2
-0.0143	0.1237	-0.012	0.081	94.3
-0.0135	0.111	-0.0158	0.0397	94.2
-0.0128	0.0135	-0.0218	0.039	94.2
-0.012	-0.015	-0.0218	-0.012	94.3
-0.0128	-0.0691	-0.0225	-0.0308	94.3
-0.0135	-0.315	-0.0218	-0.0458	94.2
-0.0135	-0.2813	-0.015	-0.0068	94.3
-0.015	0.033	-0.0046	0.033	94.3
-0.0143	0.012	0.0007	0.0442	94.1
-0.0128	0.0292	0.0015	0.0532	94.4
-0.0128	0.0442	0.0045	-0.0046	94.3
-0.0158	-0.033	0.009	-0.057	94.4
-0.0158	-0.0083	0.0112	-0.078	94.3
-0.0143	-0.0871	0.0082	-0.0458	94.3
-0.0143	-0.063	0.0037	-0.0585	94.5
-0.0143	-0.0473	0.0037	-0.0585	94.4
-0.012	-0.0735	0.0067	-0.0405	94.5
-0.012	-0.0368	0.015	-0.03	94.5
-0.0113	0.0067	0.0157	-0.0083	94.3
-0.0083	0.012	0.012	-0.0008	94.5
-0.0068	0.0082	0.0195	0.0337	94.6
-0.006	0.048	0.0315	0.039	94.4
-0.0046	0.0375	0.0382	0.0232	94.6
-0.0038	0.0532	0.0337	0.0195	94.6
-0.0023	0.054	0.0307	0.0382	94.4
-0.003	0.0427	0.0255	0.0255	94.5
-0.0038	0.0427	0.0135	0.0292	94.5
-0.0038	0.03	0.003	0.039	94.5
-0.0046	0.0442	-0.0023	0.0127	94.6
-0.0023	0.06	-0.003	-0.027	94.5
0	0.1042	-0.0083	-0.054	94.5
0.0037	0.1005	-0.0091	-0.0105	94.4
0.009	0.0367	-0.0083	-0.0098	94.4
0.0082	0.003	-0.0046	-0.0165	94.5
0.0075	0.0045	-0.0046	-0.0113	94.4
0.0105	-0.0353	-0.0068	-0.0181	94.5
0.0067	-0.147	-0.0038	0.003	94.6
0.0075	-0.0975	0.0022	0	94.5
0.0097	0.069	0.0075	0.0052	94.6
0.0105	0.114	0.0127	0.0255	94.7
0.0105	0.1837	0.0202	0.0345	94.5
0.0082	0.2257	0.0292	0.0495	94.7
0.0075	0.1597	0.0345	0.0367	94.6
0.0067	-0.042	0.0345	-0.0008	94.6
0.0075	-0.3563	0.0315	-0.0068	94.7
0.0082	-0.384	0.0315	0.0082	94.6
0.012	-0.1553	0.033	0.0427	94.6
0.0142	0.006	0.0285	0.0547	94.5
0.015	0.069	0.0232	0.0255	94.8
0.012	0.057	0.0172	-0.0233	94.6
0.009	-0.0458	0.009	-0.0608	94.7
0.0105	-0.1305	0.0015	-0.081	94.6
0.009	-0.075	-0.0008	-0.0818	94.7
0.006	-0.0436	0.0052	-0.0518	94.7
0.0007	-0.0458	0.0127	-0.0256	94.8
0.0007	0.0247	0.015	-0.0256	94.8
0.0007	0.0217	0.0135	-0.0113	94.8
-0.003	0.054	0.009	0.0127	94.9
-0.0023	0.09	0.0007	0.0277	94.8
-0.003	0.0727	-0.0015	0.0442	94.7
-0.0053	0.0862	-0.0015	0.012	94.8
-0.0068	0.063	-0.0053	-0.0218	94.6
-0.0023	-0.003	-0.0053	-0.0038	94.7
-0.0015	-0.114	-0.0015	0.0255	94.9
-0.0008	-0.0893	-0.0015	0.0217	94.8
0.0015	0.0217	-0.0015	0.0127	94.8
0.0015	0.0217	0.0015	0.0097	94.9
0.0022	0.0315	0.003	-0.0075	94.7
0.0015	0.0412	0.003	-0.0038	94.9
0.0045	0.0465	0.0015	-0.0173	94.9
0.006	0.0577	-0.0038	-0.0218	94.7
0.0045	0.0405	-0.0046	-0.0173	94.8
0.0045	0.018	-0.0046	0.003	94.7
0.0045	-0.012	-0.003	0.0322	94.9
0.0052	-0.024	0.0015	0.0007	94.8
0.0067	-0.0248	0.0075	0.0067	94.9
0.0075	-0.0015	0.0105	0.0082	95
0.0082	0.0157	0.0082	-0.0083	94.9
0.0082	0.006	0.0067	-0.0233	95.2
0.009	0.0105	0.0127	0.009	94.9
0.0082	0.0187	0.021	0.0442	95.1
0.0067	0.0277	0.0262	0.0315	95.2
0.0045	0.0345	0.024	0.039	95
0.0045	0.0345	0.0247	0.0097	95.1
0.003	0.021	0.027	0.0007	95
0.0075	0.0007	0.0217	-0.0143	94.9
0.006	-0.0046	0.0202	-0.0068	95
0.0037	-0.003	0.015	0.0082	95.2
0.0075	0.0067	0.012	-0.0353	94.9
0.0097	0.033	0.0112	-0.0068	95.2
0.015	0.0457	0.0082	-0.0023	95.1
0.015	0.0307	0.0075	-0.0638	95.1
0.012	0.0142	0.003	-0.0653	95.2
0.012	-0.0105	-0.0068	-0.0368	95
0.0127	-0.1043	-0.0143	-0.0158	95.2
0.0105	-0.15	-0.015	-0.012	95
0.0067	-0.048	-0.0181	0.0022	95.2
0.009	-0.0165	-0.0195	0.009	95.2
0.0105	-0.0256	-0.0165	-0.0053	95.2
0.0075	-0.0143	-0.0105	-0.003	95.2
0.0052	-0.063	-0.0046	-0.0278	95.2
0.003	-0.0428	0.0022	-0.0443	95.3
0.0015	-0.0008	0.0105	0.0232	95.2
0.0007	0.0195	0.012	0.0637	95.3
0	0.0502	0.0127	0.0682	95.3
-0.0015	0.0697	0.0112	0.0382	95.5
