File Name: sentado.log
Channel 4: 'Recto Femoral', 69374 values, engineering units: mV, no filters.
Channel 5: 'Biceps Femoral', 69374 values, engineering units: mV, no filters.
Channel 6: 'Vasto Medial', 69374 values, engineering units: mV, no filters.
Channel 7: 'EMG Semitendinoso', 69374 values, engineering units: mV, no filters.
Channel 8: 'Flexo-Extension', 69374 values, engineering units: deg, no filters.

0.0015	0.0015	0.0045	0	70.6
0.0045	0.0007	0.0052	0.0045	70.7
0.0045	-0.0015	0.0052	0.0037	70.6
0.0045	-0.003	0.0067	0.003	70.7
0.0052	-0.0015	0.0082	0.0067	70.4
0.0075	-0.0023	0.0067	0.012	70.8
0.0067	-0.003	0.0067	0.012	70.6
0.0082	-0.0008	0.0075	0.009	70.7
0.006	0.0015	0.0075	0.0067	70.7
0.0052	0.0022	0.0082	0.0045	70.7
0.0052	0.0007	0.0052	0.0045	70.6
0.0052	-0.0015	0.0067	0.0045	70.6
0.0045	-0.0015	0.0082	0.0052	70.6
0.003	-0.0008	0.0067	0.0015	70.7
0.003	-0.0008	0.0075	0.0007	70.6
0.0007	0.0015	0.0082	-0.0008	70.6
-0.0008	0.0022	0.0067	-0.0046	70.6
0	0.003	0.0052	-0.0038	70.6
-0.0008	0.003	0.0067	-0.003	70.7
-0.0015	0.0037	0.0082	0	70.6
-0.0023	0.0052	0.0067	0.0105	70.7
-0.0015	0.0052	0.0067	0.015	70.6
-0.0046	0.0037	0.0075	0.0075	70.7
-0.0046	0.003	0.0052	0.0052	70.5
-0.003	0.0015	0.0045	0.0007	70.6
-0.003	-0.0008	0.0045	-0.0038	70.5
-0.0046	0	0.0045	-0.006	70.7
-0.0068	0.0007	0.0045	-0.0075	70.6
-0.0075	0	0.0075	-0.006	70.6
-0.0068	-0.0008	0.0067	-0.0068	70.6
-0.006	-0.0038	0.0082	-0.0068	70.8
-0.0038	-0.003	0.0105	-0.006	70.6
-0.003	-0.0008	0.009	-0.0053	70.6
-0.0046	0	0.009	-0.0083	70.6
-0.0046	0.0007	0.0082	-0.0098	70.6
-0.003	0.0007	0.006	-0.0091	70.6
-0.0038	0	0.0075	-0.0068	70.8
-0.0046	-0.0008	0.0082	-0.0038	70.6
-0.003	0	0.0082	0.0052	70.7
-0.0008	-0.0015	0.0105	0.0157	70.6
0.0007	-0.003	0.012	0.0142	70.8
0.0015	-0.0008	0.0097	0.012	70.7
0.0037	-0.0015	0.0112	0.0172	70.6
0.0037	-0.003	0.0105	0.0105	70.6
0.0037	-0.003	0.0082	-0.0053	70.6
0.0045	-0.003	0.0075	-0.0053	70.6
0.0045	0	0.0082	0.003	70.6
0.0052	0.0007	0.0082	-0.0008	70.6
0.0052	0	0.0052	-0.0038	70.6
0.0052	0	0.0052	0.0067	70.5
0.0052	-0.0008	0.0082	0.009	70.8
0.0075	0.0007	0.0075	0.0015	70.6
0.0052	0.0015	0.006	0	70.7
0.0045	0.0022	0.0067	0	70.6
0.006	0.003	0.0067	-0.0015	70.7
0.006	0.0015	0.0052	-0.003	70.6
0.0052	0.0007	0.0045	-0.0038	70.6
0.0052	-0.003	0.0045	-0.0053	70.7
0.003	-0.003	0.0045	-0.0068	70.6
0.003	-0.0015	0.0045	-0.003	70.7
0.0037	-0.0015	0.0045	0.003	70.6
0.0045	-0.0008	0.0052	0.0015	70.6
0.0045	-0.0015	0.0075	-0.0008	70.6
0.0037	0.0007	0.0052	0	70.5
0.0045	0.0007	0.0067	0.0022	70.6
0.0007	-0.0015	0.006	0.003	70.6
0	-0.0023	0.0037	0.0007	70.7
0.0007	-0.003	0.0045	-0.0015	70.6
0.0007	-0.0015	0.0015	-0.003	70.5
0.0007	-0.0015	0.0007	-0.0046	70.6
0	-0.0023	0.0022	-0.0053	70.6
0.0015	-0.0038	0.0015	-0.0023	70.7
0.0015	-0.0023	0.0015	-0.0023	70.5
0.0007	-0.0008	0.0015	-0.003	70.8
-0.0008	0.0007	0.0037	-0.0023	70.6
-0.0015	0.003	0.0052	0.0007	70.7
-0.0023	0.003	0.0037	0.0037	70.6
-0.0023	0.003	0.0045	0.006	70.6
-0.0023	0.003	0.0067	0.0067	70.7
-0.003	0.003	0.0067	0.0022	70.6
-0.006	0.0022	0.006	0.003	70.7
-0.0053	0.0007	0.0037	0.0037	70.6
-0.0053	0.0007	0.003	0.0007	70.6
-0.0068	0.0022	0.0045	0	70.7
-0.0046	0.0045	0.0037	0.0022	70.6
-0.0046	0.0075	0.0022	0.0022	71
-0.0053	0.0082	0.0015	0.0007	70.4
-0.0068	0.006	0.0015	-0.0008	71
-0.006	0.0067	0.0037	-0.0008	70.6
-0.0053	0.0052	0.0052	0.0015	70.7
-0.006	0.0052	0.0067	0.0007	70.6
-0.0053	0.0052	0.0075	0	70.6
-0.0046	0.003	0.0052	0.0015	70.7
-0.003	0.0022	0.0052	0.0067	70.6
-0.0015	0.0022	0.0045	0.009	70.7
-0.0015	0.0015	0.0037	0.003	70.6
-0.0008	-0.0015	0.0022	-0.0068	70.7
-0.0008	-0.0023	0.0007	-0.006	70.8
0.0007	-0.003	0.0015	-0.0075	70.6
0	-0.0038	0.0015	-0.0083	70.7
-0.0015	-0.0046	0.0022	-0.0098	70.6
0	-0.006	0.0015	-0.003	70.7
0.0015	-0.0053	0.0007	-0.0008	70.7
0	-0.0053	0.0015	-0.0128	70.6
0.0007	-0.0046	0.0037	-0.012	70.6
0.0007	-0.0023	0.0045	-0.0046	70.6
0.0007	-0.003	0.0045	0.0082	70.7
0.0007	-0.0038	0.0067	0.0105	70.6
0.0007	-0.0015	0.009	0.0007	70.8
-0.0008	0.0015	0.0112	0.0045	70.6
-0.0008	0.0045	0.0105	0.0052	70.6
-0.0015	0.0045	0.0097	0.006	70.7
-0.0015	0.0022	0.012	0.0082	70.7
-0.0015	0.0015	0.012	0.0075	70.8
-0.0008	0.0015	0.0105	0.0052	70.6
0	0.0015	0.009	0.0015	70.9
0.0007	0.0015	0.0067	-0.0008	70.6
-0.0008	0.0015	0.0067	-0.003	70.6
-0.0008	0.0015	0.0052	-0.0053	70.7
-0.0008	0.0007	0.006	-0.006	70.6
-0.0015	0.0007	0.0052	-0.0068	70.7
-0.0023	-0.0015	0.003	-0.0068	70.5
-0.0008	-0.0023	0.0045	0.0015	70.8
-0.003	-0.0046	0.003	0.012	70.5
-0.0046	-0.0046	0.0052	0.0135	70.9
-0.0038	-0.003	0.0067	0.0082	70.6
-0.0053	-0.0023	0.0082	0.0045	70.8
-0.0046	-0.0015	0.009	0.0052	70.6
-0.0038	-0.0008	0.009	0.0075	70.6
-0.0046	0.0007	0.0105	0.0067	70.7
-0.0053	0.0015	0.0105	0.0052	70.5
-0.0023	0.0015	0.0105	0.003	70.8
0.0007	0.0015	0.009	-0.0046	70.6
0.0015	0.0015	0.0105	-0.0083	70.6
0.0015	0.0015	0.0105	-0.0091	70.5
-0.0008	0.0007	0.009	-0.0098	70.6
-0.003	0.0015	0.0105	-0.0083	70.7
-0.0053	0.003	0.009	-0.0083	70.6
-0.0068	0.003	0.009	-0.0046	70.7
-0.0046	0.0015	0.009	0	70.6
-0.0046	0.0007	0.0082	-0.0015	70.6
-0.003	0.0022	0.0082	-0.0053	70.6
-0.0046	0.0015	0.0067	-0.0023	70.7
-0.0053	0.0007	0.006	0.003	70.6
-0.0046	-0.0008	0.0052	0.0067	70.6
-0.0053	-0.0038	0.0052	0.0045	70.6
-0.0023	-0.0053	0.0052	-0.0038	70.8
-0.0015	-0.0046	0.0052	0.003	70.6
-0.0015	-0.0046	0.0037	0.009	70.7
-0.0015	-0.0053	0.0015	-0.0046	70.6
-0.0053	-0.0046	0.0015	-0.0068	70.8
-0.0053	-0.003	0.003	0.0022	70.6
-0.0053	-0.0038	0.0037	0.006	70.6
-0.0046	-0.0008	0.0045	0.0052	70.6
-0.0046	0.0015	0.006	0	70.6
-0.003	0.0045	0.0082	0.0015	70.7
-0.0023	0.006	0.0105	0.0007	70.6
-0.0046	0.0082	0.006	0.003	70.8
-0.0046	0.0075	0.0045	0.006	70.7
-0.003	0.0045	0.0052	0.0022	70.6
-0.0015	0.0037	0.0052	0.0045	70.7
-0.0015	0.0045	0.0067	0.003	70.6
-0.003	0.0052	0.0067	0.0015	70.8
-0.0046	0.0045	0.0067	0.0015	70.5
-0.0083	0.0037	0.0052	0.0015	70.8
-0.0068	0.0037	0.0037	0.003	70.5
-0.0068	0.0015	0.0052	-0.0008	70.8
-0.0053	0.003	0.003	-0.0046	70.6
-0.003	0.0007	0.003	-0.006	70.7
-0.003	-0.0008	0.0015	-0.006	70.6
-0.0046	0.0007	0.003	-0.0038	70.6
-0.0053	0	0.003	-0.003	70.7
-0.003	0.003	0.0015	-0.0015	70.6
-0.003	0.006	0.003	0.0007	70.8
-0.0038	0.0045	0	-0.0008	70.6
-0.0053	-0.0008	-0.0008	0.0045	70.8
-0.0053	-0.0023	-0.0008	0.0045	70.6
-0.0053	-0.0008	0	-0.0015	70.6
-0.0046	-0.0008	0.0015	-0.0015	70.7
-0.0046	0	0.003	0.0007	70.6
-0.0053	-0.0015	0.0022	0.0007	70.7
-0.0023	-0.0015	0.0015	-0.0023	70.7
-0.003	-0.0015	0.0045	-0.0046	70.6
-0.003	-0.0023	0.0045	0	70.6
-0.0008	-0.0015	0.0052	0.0097	70.6
0	-0.0038	0.0052	0.018	70.8
0.0007	-0.0038	0.0067	0.006	70.6
0	0.0007	0.0052	-0.0038	70.7
0.0007	0.0007	0.0067	-0.0053	70.8
0	0.0015	0.009	-0.0091	70.8
0.0007	0.0022	0.0067	-0.0068	70.6
0.0015	0.0007	0.0082	-0.0075	70.7
0.0022	0	0.0082	-0.0046	70.7
0.0045	-0.0008	0.0067	0	70.7
0.0045	-0.0008	0.006	0.003	70.6
0.0052	-0.0023	0.0052	0.009	70.8
0.0067	-0.003	0.0067	0.012	70.6
0.006	-0.003	0.0045	0.0067	70.6
0.0052	-0.0038	0.003	-0.0023	70.6
0.0052	-0.003	0.0045	-0.0053	70.7
0.0045	-0.0015	0.0067	-0.0038	70.6
0.003	-0.0015	0.0067	-0.003	70.8
0.0022	-0.0008	0.0045	-0.0015	70.5
0.003	0.0015	0.0052	0.0037	70.7
0.0045	0.0015	0.0067	0.0052	70.6
0.0045	0.0007	0.0067	0.0037	70.6
0.003	0.0015	0.0067	0.0022	70.7
0.0007	0.0022	0.0052	0.0015	70.8
0.003	0.0007	0.0045	-0.0008	70.7
0.003	0.0015	0.0067	-0.0008	70.8
0.0015	0.0015	0.0075	0.0007	70.7
0.003	0.0007	0.0052	0	70.7
0.0015	0	0.0075	0.0015	70.7
0.0007	0.0007	0.0082	0	70.8
0.0015	0	0.0082	-0.0008	70.6
0.0015	-0.0008	0.0105	0.0007	70.6
0.0015	-0.0015	0.0097	0	70.8
0.0015	-0.0008	0.009	0.0015	70.6
-0.0008	0.0007	0.009	0.0022	70.8
-0.0023	0.0015	0.009	0.0007	70.6
-0.003	0.0015	0.0097	-0.0015	70.7
-0.003	0.0015	0.009	-0.0038	70.6
-0.003	0.0015	0.009	-0.0053	70.6
-0.0046	-0.0008	0.0082	-0.0046	70.8
-0.0046	0	0.0067	-0.0046	70.6
-0.0046	0.0015	0.006	-0.0053	70.6
-0.003	0.0022	0.0052	-0.006	70.5
-0.003	0.0022	0.0067	-0.0053	70.6
-0.003	0.003	0.0067	-0.0046	70.6
-0.0053	0.0045	0.0082	-0.0015	70.6
-0.0068	0.006	0.0075	0.0045	70.8
-0.006	0.0045	0.0082	0.0067	70.6
-0.0068	0.0052	0.009	0.0127	70.9
-0.0068	0.0052	0.0082	0.0142	70.6
-0.0091	0.0007	0.009	0.0105	70.8
-0.0083	-0.0008	0.0105	0.0007	70.6
-0.0046	-0.0008	0.0082	-0.0083	70.7
-0.0038	-0.0008	0.0082	-0.003	70.6
-0.0023	-0.0008	0.0067	-0.0038	70.6
-0.0015	-0.0038	0.0052	-0.0015	70.7
-0.0015	-0.0053	0.0037	0.012	70.6
-0.0023	-0.0053	0.0007	0.012	70.5
-0.003	-0.0023	-0.0008	0.0067	70.6
-0.003	-0.0023	0	0.0052	70.6
-0.003	-0.0046	0.0007	-0.0008	70.6
-0.003	-0.0046	0.0007	-0.0098	70.7
-0.0053	-0.003	0.0007	-0.0083	70.8
-0.0053	-0.0015	0.0015	0.0015	70.6
-0.003	-0.0008	0.0022	0.0052	70.6
-0.0038	0.0007	0.0045	0.0045	70.7
-0.0046	-0.0008	0.0045	0.0045	70.6
-0.0053	-0.0008	0.0045	0.003	70.7
-0.0053	0.0007	0.0045	-0.0053	70.5
-0.0046	0.0015	0.0052	-0.0023	70.8
-0.0015	0.0015	0.0045	0.0045	70.6
0.0007	0.0007	0.003	0.0015	70.7
0.0007	0.0015	0.0045	0.0007	70.6
0.003	0.0015	0.0045	0.003	70.7
0.0037	0.0015	0.0052	0.0022	70.6
0.0045	0.003	0.0052	-0.0015	70.7
0.0045	0.003	0.0045	-0.0015	70.6
0.0037	0.0022	0.0052	-0.0015	70.7
0.0022	0.0015	0.0082	-0.0023	70.7
0.0015	0.0022	0.0082	-0.0046	70.8
0.0007	0.0022	0.0082	-0.0053	70.6
0.0007	0.0015	0.0082	-0.0046	70.8
0.0022	0.0015	0.0082	-0.0046	70.6
0.0007	0.0015	0.0082	-0.0046	70.7
-0.0008	0.0015	0.0067	-0.0053	70.5
-0.0008	0.0007	0.006	-0.0053	70.6
-0.0008	0	0.0067	-0.0023	70.7
0.0007	-0.0008	0.0052	0.0052	70.6
0.0037	-0.0008	0.0052	0.0067	70.7
0.0045	-0.0015	0.0052	-0.003	70.7
0.003	-0.0008	0.0037	-0.0068	70.7
0.0015	0	0.0045	-0.0091	70.7
0.0007	0.0007	0.0015	-0.0113	70.7
0.0015	-0.0008	0.0007	-0.012	70.7
0.0015	-0.0015	0.003	-0.0135	70.5
0.0007	0.0007	0.0045	-0.003	70.6
0	0.0015	0.0052	0.0157	70.6
0	-0.0015	0.0022	0.0247	70.7
-0.0008	-0.0046	0.0052	0.0105	70.6
-0.0015	-0.0046	0.0082	0.0007	70.6
-0.0008	-0.003	0.0045	0.006	70.6
0.0007	-0.0015	0.0067	0.0097	70.7
0.0007	-0.0008	0.0075	0.0165	70.6
0	-0.0015	0.0052	0.0157	70.6
-0.0008	-0.0008	0.006	0.0045	70.6
0	-0.0008	0.0067	0.0007	70.6
0.0007	0.0015	0.006	0.003	70.6
0.0007	0.0052	0.006	0.0015	70.7
-0.0008	0.0045	0.0082	-0.0015	70.6
0.0007	0.0037	0.0082	-0.0008	70.8
0.0007	0.0067	0.0082	0.0015	70.5
0.003	0.0052	0.0075	-0.0008	70.6
0.0045	0.006	0.0082	0.0015	70.6
0.003	0.006	0.0097	0.0015	70.6
0.0015	0.0037	0.009	0.003	70.6
0.0015	0.0022	0.0075	0.0045	70.6
0.003	0.0007	0.0097	0.0015	70.9
0.0022	0.0015	0.009	-0.0038	70.6
0.003	0.0015	0.0052	-0.0083	70.6
0.0045	0	0.0037	-0.0075	70.6
0.0052	-0.0015	0.0045	-0.0046	70.7
0.0067	-0.0015	0.0045	-0.0023	70.6
0.0082	-0.0023	0.0022	-0.0046	70.6
0.0067	-0.003	0.0037	-0.0091	70.6
0.0052	-0.003	0.0037	-0.0068	70.6
0.003	-0.0015	0.0022	-0.0075	70.6
0.0007	-0.0008	0.003	-0.0091	70.6
0.0015	0.0015	0.003	-0.0091	70.5
0.0007	0.0007	0.0045	-0.0075	70.7
0.0007	0.0007	0.0045	0.0015	70.6
-0.0008	-0.0023	0.0045	0.0052	70.7
0.0007	-0.0046	0.0045	0.0022	70.6
0	-0.0046	0.0045	0	70.6
-0.0038	-0.0046	0.0045	0.0075	70.6
-0.0046	-0.003	0.0082	0.0135	70.6
-0.0046	-0.003	0.009	0.012	70.6
-0.003	-0.0023	0.0105	0.0105	70.6
-0.003	-0.0008	0.0105	0.0075	70.6
-0.0038	-0.0008	0.009	0.009	70.7
-0.0046	-0.0008	0.0097	0.0135	70.6
-0.0046	0.0007	0.0082	0.0127	70.8
-0.0053	0	0.0075	0.0082	70.6
-0.0053	0.0007	0.0082	-0.0008	70.8
-0.0068	0.003	0.0052	-0.0053	70.6
-0.0083	0.006	0.0045	-0.0053	70.6
-0.0083	0.0052	0.0052	-0.0046	70.6
-0.0083	0.003	0.0045	-0.0046	70.6
-0.0068	0.0015	0.0045	-0.0046	70.7
-0.0053	0	0.003	-0.0053	70.5
-0.0046	-0.0015	0.003	-0.006	70.7
-0.0053	-0.0008	0.0045	-0.0083	70.6
-0.0053	-0.0015	0.0045	-0.0046	70.7
-0.003	-0.0015	0.0037	-0.006	70.7
-0.0038	-0.0015	0.0015	-0.0075	70.6
-0.0038	-0.003	0	-0.0046	70.8
-0.0038	-0.003	0	-0.0068	70.4
-0.003	-0.0038	0.0015	-0.0053	70.7
-0.0008	-0.003	0.0015	-0.003	70.6
-0.0008	-0.0046	0.003	-0.0015	70.6
0.0007	-0.0038	0.003	0.0015	70.6
0.0015	-0.0008	0.0022	0.0022	70.6
0.0007	0.0015	0.0052	-0.0053	70.6
-0.0008	0.003	0.0067	-0.0053	70.5
0.0007	0.0022	0.0067	0.012	70.7
0.0015	0.0015	0.0082	0.0165	70.4
0.0007	0.0007	0.0075	0.0067	70.6
0.0007	0.0015	0.0075	0.012	70.6
0.0007	0.003	0.009	0.0142	70.6
-0.0008	-0.0008	0.009	0.009	70.6
-0.0023	-0.0015	0.0082	0.0015	70.6
-0.0015	0.0007	0.009	-0.0023	70.6
-0.0023	0.0022	0.0097	0.0015	70.6
-0.0008	0	0.0097	-0.0015	70.6
0.0015	0.0015	0.009	-0.0008	70.7
0.0015	0.0052	0.009	-0.0015	70.5
0.0045	0.006	0.0075	-0.003	70.6
0.0052	0.0052	0.006	-0.003	70.5
0.0045	0.0015	0.0045	-0.0068	70.7
0.0045	0.0015	0.003	-0.0053	70.6
0.0045	-0.0008	0.0022	-0.0046	70.6
0.0037	-0.0015	0.0045	-0.0008	70.5
0.0015	-0.0015	0.0045	0.0022	70.6
0.0007	-0.0015	0.0015	0.0022	70.5
-0.0008	0.0007	0.003	0.0045	70.6
-0.0008	0.0007	0.0022	0.0037	70.6
-0.0008	0.0007	0.0015	0.0037	70.6
-0.0008	0	0.0022	0.0037	70.6
-0.0008	-0.0015	0.0052	0.0015	70.7
-0.0008	-0.0015	0.0105	0	70.5
-0.0015	-0.0015	0.0105	-0.0008	70.7
-0.0015	-0.0038	0.0105	-0.003	70.5
-0.003	-0.0023	0.0105	-0.0008	70.7
-0.003	0.0007	0.012	0.0015	70.5
-0.0023	0.003	0.0105	-0.0023	70.6
-0.0008	0.0067	0.0075	-0.003	70.6
-0.003	0.0052	0.0082	-0.0038	70.6
-0.003	0.003	0.0082	-0.003	70.6
-0.0023	0.003	0.0082	-0.0015	70.6
-0.003	-0.0015	0.0067	-0.0023	70.8
-0.0046	-0.0046	0.0075	-0.0008	70.6
-0.0046	-0.0015	0.0052	-0.0015	70.5
-0.0038	-0.0008	0.0052	-0.0015	70.7
-0.0053	-0.0008	0.0037	-0.003	70.6
-0.0053	-0.0008	0.003	-0.0053	70.6
-0.0046	0.0007	0.006	-0.0053	70.5
-0.003	0.0007	0.003	-0.0046	70.6
-0.0038	0.0015	0.0015	-0.0015	70.6
-0.003	0.0015	0.003	0.0015	70.6
-0.0023	0.0015	0.0045	0.003	70.8
-0.003	0.0007	0.003	-0.0015	70.6
-0.003	-0.0008	0.0045	-0.0008	70.6
-0.0046	0.0015	0.006	0.0045	70.5
-0.0023	0.0022	0.0052	0.0067	70.7
-0.0023	0.0015	0.0082	0.0067	70.5
-0.003	0.0015	0.0097	0.0045	70.6
-0.0046	0.0022	0.0105	0.003	70.6
-0.0046	0.003	0.009	0.0007	70.6
-0.0053	0.0007	0.0082	-0.0008	70.7
-0.0053	0	0.0075	-0.0023	70.8
-0.0068	0.0007	0.0067	-0.0008	70.6
-0.0068	0.0015	0.0052	0.0007	70.7
-0.006	0.003	0.0045	0.003	70.6
-0.0068	0.003	0.0075	0.0015	70.7
-0.0046	0.003	0.0075	0.0015	70.5
-0.003	0.003	0.0052	0.0037	70.6
-0.0046	0.0015	0.0045	0.006	70.6
-0.0023	0.0007	0.0067	0.009	70.6
-0.0015	-0.0008	0.0067	0.0045	70.5
-0.0008	-0.0008	0.0045	0.0007	70.6
-0.0008	-0.0015	0.003	-0.003	70.6
-0.0015	-0.0023	0.0037	-0.0015	70.6
0.0007	-0.0015	0.0045	-0.0015	70.6
0.0015	-0.003	0.0037	-0.0046	70.6
0.0037	-0.003	0.0045	-0.0015	70.6
0.0045	-0.0023	0.0045	0.0015	70.6
0.0067	-0.0038	0.003	0.0075	70.5
0.0075	-0.0046	0.0015	0.0105	70.7
0.0082	-0.0053	0.0007	0.003	70.6
0.0097	-0.003	0	-0.012	70.6
0.009	-0.0015	0.0015	-0.0128	70.6
0.0082	-0.0008	0.0015	-0.0075	70.6
0.009	0	0	-0.0068	70.7
0.0112	0.0007	0.0022	-0.003	70.5
0.0082	0.0015	0.0022	-0.0015	70.7
0.006	0.0022	0.0037	0.0007	70.5
0.0045	0.0045	0.006	0.0015	70.6
0.003	0.0045	0.0082	0.003	70.6
0.003	0.003	0.0082	0.0045	70.6
0.0052	0.0037	0.0067	0.0045	70.6
0.0052	0.0045	0.009	0.0045	70.6
0.0052	0.0037	0.0075	0.0045	70.6
0.0037	0.003	0.0052	0.0052	70.6
0.0045	0.0015	0.0082	0.0097	70.6
0.0045	-0.0008	0.0067	0.0157	70.7
0.003	-0.0015	0.0052	0.012	70.5
0.0007	-0.0023	0.0067	0.0015	70.7
0.0015	-0.003	0.0082	-0.003	70.4
0.003	-0.003	0.0067	-0.0038	70.6
0.0022	-0.003	0.0067	-0.0068	70.5
0.0022	-0.0015	0.0075	-0.0128	70.5
0.0022	-0.0008	0.006	-0.0158	70.6
0.0037	-0.0008	0.0067	-0.0128	70.6
0.0052	-0.0015	0.0075	-0.0075	70.6
0.0045	0	0.0082	-0.0046	70.6
0.003	0.0007	0.009	-0.0046	70.6
0.003	0.0007	0.0067	-0.0015	70.6
0.0022	0.0022	0.0082	0.0075	70.5
0.0007	0.0037	0.0067	0.012	70.6
-0.0008	0.003	0.0082	0.0067	70.5
-0.0015	0.0037	0.009	0.0067	70.7
-0.003	0.003	0.0067	0.012	70.5
-0.0023	0.0022	0.006	0.006	70.6
-0.003	0.0015	0.0052	-0.0008	70.6
-0.0053	0.0015	0.0052	-0.0023	70.6
-0.0083	0.0037	0.006	0.0007	70.6
-0.0083	0.0007	0.0067	0.0082	70.6
-0.0098	0	0.0052	0.009	70.7
-0.0105	-0.0015	0.0052	0.012	70.5
-0.0113	-0.003	0.0052	0.0075	70.6
-0.0143	-0.0015	0.003	0.0007	70.6
-0.0158	-0.0008	0.0022	0.003	70.6
-0.015	-0.0008	0.0022	-0.0008	70.6
-0.0128	-0.0015	0.003	-0.0053	70.5
-0.0128	-0.0008	0.0015	-0.0075	70.6
-0.0135	-0.003	0.0022	-0.0046	70.6
-0.012	-0.003	0.003	0.0007	70.6
-0.0135	-0.0023	0.0022	-0.0046	70.7
-0.0158	-0.0046	0.003	-0.0113	70.5
-0.0165	-0.0023	0.0052	-0.0098	70.8
-0.0165	-0.0015	0.0067	-0.0046	70.4
-0.015	0.0007	0.0045	-0.003	70.6
-0.0158	0.0015	0.0045	-0.0015	70.6
-0.0173	0.0015	0.0052	-0.0008	70.6
-0.0173	0.0045	0.0067	0	70.6
-0.0181	0.0045	0.0067	0.0007	70.6
-0.0165	0.0037	0.0067	0.0007	70.6
-0.0143	0.0015	0.0067	0.0015	70.6
-0.0128	0.0015	0.0052	0.003	70.6
-0.0143	0.0007	0.0052	0.0015	70.6
-0.0135	0.0007	0.0045	-0.0008	70.6
-0.0143	0.0007	0.0037	-0.0008	70.5
-0.015	0.0007	0.0045	-0.0015	70.6
-0.0143	0.0015	0.0052	-0.0015	70.7
-0.012	0.0007	0.0052	-0.0023	70.6
-0.0105	0.0007	0.0045	-0.0008	70.6
-0.0083	0.0007	0.0067	0.0007	70.5
-0.0068	0.0007	0.0082	0.0007	70.6
-0.0053	0.0007	0.0067	0.0022	70.6
-0.0023	0.0015	0.0052	0.0007	70.5
-0.0008	-0.0008	0.0022	0.0015	70.6
-0.0008	-0.0015	0.0037	0.0007	70.4
-0.0008	-0.003	0.003	-0.0015	70.5
0.0022	-0.0015	0.0015	-0.003	70.6
0.0037	0	0.0015	-0.003	70.6
0.0045	-0.0015	0.0015	-0.0038	70.6
0.0045	-0.0023	0.0045	-0.003	70.3
0.0015	-0.0008	0.0052	-0.0023	70.6
0.0022	0.0007	0.0052	0	70.6
0.0045	0.0015	0.006	0.0022	70.6
0.0045	0.003	0.006	0.003	70.6
0.0037	0.003	0.0075	0.0067	70.5
0.003	0.003	0.0082	0.006	70.6
0.0045	0.0045	0.0075	0.0052	70.4
0.0052	0.0045	0.0082	0.0052	70.7
0.0052	0.0052	0.0082	0.0052	70.3
0.006	0.0052	0.006	0.0052	70.6
0.006	0.0052	0.0067	0.0045	70.5
0.0052	0.0015	0.009	0.0015	70.7
0.0052	-0.003	0.0075	-0.0008	70.4
0.006	-0.003	0.0075	0.0022	70.5
0.0052	-0.0038	0.0067	0.0015	70.7
0.0052	-0.003	0.003	-0.0008	70.4
0.0082	-0.003	0.0045	-0.0015	70.6
0.009	-0.0038	0.0052	-0.003	70.6
0.0105	-0.0023	0.0067	-0.0023	70.5
0.0105	-0.003	0.0052	-0.0008	70.5
0.0082	-0.0038	0.0052	0.0015	70.6
0.0082	-0.0038	0.006	0.0007	70.7
0.0052	-0.0046	0.0067	-0.0015	70.5
0.0045	-0.003	0.0037	-0.0038	70.6
0.0052	-0.0015	0.0022	-0.003	70.5
0.0067	-0.0015	0.0022	-0.0008	70.6
0.0067	0.0007	0.003	0.0015	70.4
0.0067	0.0015	0.006	0.0015	70.6
0.006	0.0007	0.0082	0.0015	70.5
0.006	0.0045	0.0067	0.0022	70.6
0.0037	0.0045	0.009	0.0015	70.4
0.0045	0.0037	0.0112	-0.0008	70.6
0.0045	0.0037	0.012	0.0007	70.5
0.0052	0.003	0.012	0.003	70.8
0.0045	0.003	0.0112	0.003	70.5
0.0037	0.0007	0.0105	0.0015	70.6
0.0045	-0.0008	0.0082	0.0015	70.6
0.003	-0.0015	0.006	0.0022	70.6
0.003	-0.0008	0.003	0.0007	70.5
0.0015	-0.0008	0.0015	0	70.6
-0.0008	-0.0015	0.0007	-0.0008	70.8
-0.003	-0.0008	0.0007	-0.003	70.4
-0.003	0	0.0015	-0.0053	70.5
-0.003	0	0.0037	-0.0038	70.6
-0.0038	-0.0015	0.0015	-0.0038	70.5
-0.0046	-0.0015	0.003	-0.0008	70.6
-0.003	-0.0015	0.0045	0.0015	70.4
-0.0015	-0.0008	0.0045	0.0007	70.6
0	0.0022	0.006	0.0022	70.5
-0.0008	0.003	0.0067	0.0045	70.6
-0.0046	0.0052	0.0082	0.0022	70.6
-0.0046	0.0052	0.009	0.0015	70.6
-0.006	0.0045	0.0082	0.0052	70.6
-0.0053	0.0045	0.009	0.0082	70.6
-0.0053	0.0022	0.0067	0.0067	70.5
-0.0068	0.003	0.0052	0.0045	70.6
-0.006	0.0022	0.0045	0.0022	70.6
-0.0053	-0.0015	0.0015	-0.0008	70.4
-0.0053	-0.003	0.0015	-0.003	70.5
-0.003	-0.0023	-0.0015	-0.006	70.4
-0.0053	-0.0015	-0.0015	-0.0083	70.6
-0.0046	-0.0038	-0.0008	-0.0083	70.5
-0.0046	-0.003	-0.0008	-0.0091	70.4
-0.0046	-0.003	-0.0008	-0.0091	70.6
-0.003	-0.0038	0	-0.0068	70.6
-0.0023	-0.0008	0.0015	-0.0015	70.6
-0.0008	0.0007	0.0007	0.0015	70.6
0.0022	0.0007	0.0022	0.0045	70.5
0.003	0.0007	0.0037	0.0045	70.6
0.003	0.0015	0.0045	0.0052	70.5
0.0052	0.0007	0.0052	0.0052	70.7
0.006	-0.0015	0.0067	0.0052	70.3
0.0045	-0.0015	0.009	0.0045	70.5
0.003	0	0.009	0.003	70.4
0.0015	0.0015	0.0112	0.0037	70.6
0.003	0.0015	0.0127	0.003	70.5
0.003	0.0015	0.0112	0.003	70.6
0.0015	0.0007	0.012	0.0045	70.5
0.0007	-0.0008	0.0105	0.0037	70.5
-0.0008	0.0015	0.0097	0.0037	70.6
0.0007	0.0015	0.0082	0.0045	70.6
0.0015	0.003	0.0067	0.0045	70.5
0.0007	0.0022	0.0082	0.0022	70.6
-0.0008	-0.0008	0.0067	0.0007	70.4
0	-0.0008	0.0045	-0.0008	70.6
0.0007	-0.0008	0.0052	0.0007	70.4
0.0015	-0.0015	0.0067	0.0015	70.6
0.0022	0.0007	0.0075	-0.0008	70.4
0.0037	0.0007	0.0082	-0.0015	70.6
0.0037	0.0015	0.0082	-0.003	70.5
0.0045	0.0015	0.0082	-0.0046	70.6
0.0022	0.0007	0.0082	-0.0068	70.5
0.0007	0.0007	0.0067	-0.0083	70.5
0.0015	0.0015	0.006	-0.0083	70.5
0.0037	0.0015	0.0052	-0.0083	70.6
0.0067	-0.0008	0.0045	-0.0068	70.6
0.0067	0	0.0052	-0.003	70.6
0.0075	0.0015	0.009	-0.003	70.4
0.006	0	0.0097	0.0007	70.6
0.0045	-0.0008	0.0082	0.0067	70.5
0.0052	-0.0015	0.006	0.0067	70.6
0.006	-0.0008	0.0067	-0.0008	70.6
0.0067	-0.0015	0.0082	-0.0068	70.5
0.0067	-0.0008	0.0052	-0.003	70.6
0.009	0.0007	0.0067	0.0007	70.5
0.0097	-0.0008	0.0082	0.0015	70.7
0.009	-0.0008	0.009	0.0022	70.3
0.0105	0.0007	0.009	0.0052	70.6
0.0105	0.0015	0.0105	0.0067	70.5
0.0112	0.0015	0.0112	0.0045	70.4
0.0105	0.0007	0.0135	0.0022	70.6
0.009	0.0015	0.0135	0.003	70.4
0.009	0.0022	0.0127	0.0045	70.6
0.0082	0.003	0.0112	0.003	70.6
0.0052	0.0022	0.0105	0.0022	70.5
0.0037	0.0007	0.009	0	70.5
0.0015	0	0.0075	-0.0008	70.5
-0.0008	0.0007	0.0052	0.003	70.6
-0.0023	0.0015	0.0052	0.003	70.4
-0.0053	0.0015	0.0037	0.003	70.7
-0.006	-0.0015	0.003	0.003	70.6
-0.0075	-0.0038	0.0037	0.0022	70.6
-0.0068	-0.0015	0.0045	0.0007	70.5
-0.0068	0.0007	0.0015	-0.0008	70.4
-0.0068	0	-0.0008	-0.0008	70.5
-0.0075	0	-0.0023	-0.003	70.4
-0.0105	0	-0.0008	-0.003	70.5
-0.0083	-0.003	-0.0015	-0.003	70.4
-0.0105	-0.003	-0.0023	-0.0053	70.5
-0.0158	-0.0015	-0.0015	-0.0053	70.5
-0.0143	-0.0015	-0.0015	-0.0046	70.6
-0.0128	0	-0.0008	-0.0023	70.6
-0.0113	0	-0.0008	-0.0015	70.4
-0.0113	0.0007	-0.0008	-0.0008	70.6
-0.0128	0.0007	0	0.0007	70.4
-0.012	-0.0015	-0.0008	0.0007	70.6
-0.0128	-0.0023	-0.0008	0.0007	70.6
-0.0113	-0.0008	-0.0008	0.0015	70.6
-0.0105	0	0.0007	-0.0008	70.6
-0.012	0	0.0015	-0.0023	70.6
-0.0105	0.0007	0.0067	-0.0015	70.4
-0.0143	0.0022	0.0075	0	70.6
-0.015	0.0052	0.0052	0.003	70.5
-0.0143	0.0045	0.0052	0.0082	70.6
-0.0165	0.0052	0.0052	0.009	70.4
-0.0135	0.0067	0.006	0.0082	70.6
-0.0143	0.0067	0.0037	0.006	70.5
-0.015	0.0067	0.0052	0.0052	70.6
-0.012	0.0045	0.0045	0.0052	70.6
-0.0105	0.0015	0.0022	0.0037	70.6
-0.0068	0.0015	0.0015	0.0015	70.6
-0.0038	-0.0015	0.0007	-0.0015	70.5
-0.0015	-0.0038	-0.0008	-0.0038	70.6
-0.0008	-0.003	-0.0023	-0.003	70.4
-0.0015	-0.0046	-0.0015	-0.0023	70.6
-0.0015	-0.0038	-0.0008	-0.0038	70.5
-0.0008	-0.0015	-0.0008	-0.006	70.5
0.0015	-0.003	-0.0015	-0.0038	70.5
0.0052	-0.003	-0.0046	-0.003	70.4
0.0097	-0.0015	-0.0046	-0.003	70.6
0.0112	-0.0008	-0.0008	-0.0015	70.4
0.0082	-0.0008	0.0015	-0.0015	70.6
0.0082	-0.0008	0.003	-0.0015	70.6
0.009	-0.0008	0.0037	0.0015	70.6
0.0105	-0.0008	0.0075	0.0045	70.6
0.012	0.0015	0.0112	0.0067	70.6
0.0127	0.0022	0.012	0.0105	70.6
0.0142	0.0045	0.0112	0.0045	70.5
0.015	0.0045	0.012	0.0015	70.7
0.0157	0.003	0.0127	-0.0008	70.4
0.0157	0.003	0.0142	-0.0023	70.6
0.015	0.0052	0.0157	-0.0015	70.6
0.0127	0.0052	0.015	-0.0008	70.5
0.0105	0.0045	0.0157	-0.0015	70.6
0.0082	0.0045	0.0157	-0.003	70.6
0.0052	0.0022	0.0157	-0.0008	70.6
0.0022	0.003	0.0142	0.0007	70.6
0.0015	0.0015	0.0112	-0.0008	70.5
0.0105	0	0.0105	-0.0015	70.6
0.009	-0.0008	0.0067	-0.0015	70.6
0.0052	-0.0008	0.0052	0.0007	70.7
0.0022	-0.0008	0.0052	0.0007	70.5
0.0052	-0.003	0.0007	0.0015	70.6
0.0105	-0.0015	0.0007	0.003	70.5
0.0067	0.0015	0.003	0.0015	70.6
0.003	0.0007	0.003	0.0015	70.6
-0.0038	0	0.0022	0.003	70.6
-0.0053	0	0.0037	0.0045	70.6
-0.0075	0.0007	0.0082	0.0045	70.6
-0.0128	-0.0008	0.0112	0.0045	70.6
-0.0188	0.0007	0.0135	0.0045	70.6
-0.024	0.0007	0.0135	0.0022	70.5
-0.0218	0.0007	0.0135	0.0015	70.6
-0.0188	-0.0008	0.012	0	70.5
-0.0158	-0.0046	0.0105	-0.0046	70.6
-0.012	-0.0046	0.0075	-0.003	70.5
-0.0113	-0.0046	0.0052	-0.0068	70.6
-0.0098	-0.0046	0.006	-0.0075	70.5
-0.0075	-0.0038	0.0045	-0.0068	70.7
-0.0068	-0.003	0.003	-0.0075	70.6
-0.0113	-0.0015	0.0007	-0.0053	70.6
-0.0113	-0.0023	-0.0008	-0.0023	70.7
-0.0091	-0.003	0.003	0.0007	70.5
-0.0053	0.0007	0.0052	0.0015	70.7
-0.0023	0.0007	0.0067	0.0045	70.5
-0.0038	0.0007	0.0045	0.0045	70.6
-0.0038	0.0007	0.0045	0.0045	70.6
-0.0053	0.0007	0.0052	0.0052	70.5
-0.0053	0.0015	0.0082	0.0037	70.7
-0.0038	0.0007	0.0082	0.0037	70.3
-0.0023	0.0007	0.0067	0.003	70.6
-0.0023	0.0007	0.0075	0.003	70.6
-0.0015	0.0007	0.0067	0.003	70.5
-0.0046	0.0015	0.0075	0.0007	70.6
-0.006	0.0007	0.0052	0	70.5
-0.0083	0.0007	0.0045	-0.0015	70.6
-0.0083	0.003	0.009	-0.0008	70.3
-0.0038	0.0022	0.0082	-0.0015	70.7
-0.003	0.0007	0.009	-0.0015	70.6
-0.0015	0	0.012	-0.0023	70.6
0.0007	-0.0015	0.012	-0.0046	70.6
0.0007	-0.003	0.009	-0.0046	70.6
0	-0.0015	0.0082	-0.0046	70.6
0.003	-0.0008	0.0082	-0.003	70.5
0.0045	0.0007	0.0097	-0.003	70.6
0.0037	-0.0008	0.0067	-0.0008	70.7
0.0037	-0.0008	0.0067	-0.0015	70.6
0.0022	-0.0015	0.0052	0.0007	70.6
0.0007	-0.0015	0.0045	0.0022	70.4
-0.0015	0	0.0052	0.0022	70.7
-0.0015	0.0015	0.0067	0.003	70.5
-0.0008	0.0022	0.0082	0.0015	70.7
-0.0008	0.0015	0.0075	0.003	70.6
-0.003	0.0007	0.0082	0.0022	70.6
-0.0053	0.0015	0.0075	0	70.6
-0.0053	0.0015	0.0082	-0.0015	70.5
-0.0053	0	0.009	-0.0015	70.4
-0.0068	0.0007	0.0067	0	70.6
-0.0075	0.0015	0.0052	0.003	70.6
-0.0091	0.003	0.0067	0.003	70.5
-0.0091	0.0015	0.0075	0.0037	70.6
-0.0091	0.0022	0.0067	0.0082	70.6
-0.0091	0.0022	0.0067	0.0105	70.6
-0.0091	-0.0008	0.0052	0.0105	70.6
-0.0083	-0.0015	0.0052	0.006	70.6
-0.0053	-0.0015	0.0052	-0.0023	70.6
-0.0038	0.0007	0.0052	-0.0008	70.6
-0.003	0.003	0.0075	0.003	70.6
-0.0015	0.003	0.0067	-0.0008	70.7
-0.0008	0.0022	0.0067	-0.0023	70.5
-0.003	0.0007	0.0075	-0.0023	70.6
-0.0023	0.0015	0.0067	0.0007	70.5
-0.0015	0.0022	0.0052	0.0015	70.6
-0.0008	0.0007	0.0045	-0.0015	70.7
0.0007	0	0.0022	-0.0015	70.5
0.003	0	-0.0015	-0.0046	70.8
0.0022	0.0007	-0.0046	-0.0053	70.3
0.0037	0	-0.003	-0.0023	70.6
0.006	0	-0.003	-0.0015	70.4
0.006	0.0007	-0.003	-0.0008	70.4
0.0067	0.0007	-0.003	-0.0023	70.6
0.0067	-0.0008	-0.0038	-0.0046	70.5
0.0067	-0.0015	-0.0015	-0.003	70.6
0.006	-0.0008	0.0007	-0.0015	70.4
0.006	0.0007	0.003	-0.0015	70.6
0.0052	0.0007	0.0037	-0.0008	70.5
0.0052	0.0007	0.003	0.0007	70.7
0.0052	0	0.003	0.0015	70.5
0.0037	0.0015	0.0007	0.0015	70.5
0.0052	0.0022	0.003	0.0015	70.6
0.0067	0.003	0.0045	0.0015	70.6
0.006	0.003	0.0052	0.003	70.6
0.0052	0.003	0.0045	0.0015	70.6
0.0052	0.003	0.0052	0.0015	70.6
0.0082	0.0022	0.0045	0.003	70.6
0.006	0.0007	0.0052	0.003	70.7
0.0052	0.0007	0.0067	0.0015	70.6
0.0052	0.0015	0.006	0.003	70.4
0.0015	0.003	0.0067	0.0037	70.6
0.0007	0.003	0.0067	0.0037	70.6
0.0022	0.003	0.0067	0.0045	70.7
0.003	0.003	0.0082	0.0045	70.6
0.0045	0.0015	0.0067	0.003	70.4
0.0045	0.0007	0.006	0.0037	70.6
0.0075	0.0015	0.0052	0.003	70.6
0.0105	0	0.0037	0	70.5
0.009	-0.0015	0.003	-0.0023	70.6
0.0105	-0.0008	0.0022	-0.003	70.5
0.0097	0	-0.0008	-0.0053	70.6
0.0037	-0.003	-0.0008	-0.0075	70.3
0.0015	-0.0053	-0.0008	-0.0091	70.6
0.0007	-0.0053	0.0007	-0.0105	70.4
-0.0015	-0.006	-0.0008	-0.0068	70.6
-0.003	-0.0053	0.0007	-0.0053	70.5
-0.003	-0.006	0.003	-0.0046	70.6
-0.0015	-0.0053	0.0015	-0.003	70.6
-0.0023	-0.0046	0.0037	-0.0015	70.5
-0.003	-0.0038	0.0045	-0.0008	70.6
-0.0038	-0.0023	0.0052	0.0007	70.6
-0.0053	0.0007	0.0052	0.0022	70.6
-0.0091	0.0015	0.0052	0.0015	70.5
-0.0091	0.0007	0.0082	0.003	70.5
-0.0068	0.0022	0.0082	0.0045	70.6
-0.0083	0.0015	0.009	0.0052	70.5
-0.0075	0.003	0.009	0.0045	70.6
-0.006	0.0052	0.009	0.0045	70.5
-0.0068	0.0052	0.0105	0.006	70.6
-0.0046	0.0075	0.0112	0.0067	70.5
-0.003	0.0075	0.0135	0.0067	70.6
-0.0053	0.0052	0.0157	0.0045	70.7
-0.0068	0.0045	0.0157	0.0015	70.6
-0.0023	0.0022	0.0135	0.0007	70.6
0.0007	0.0015	0.0105	-0.0008	70.5
0	-0.0008	0.009	0	70.6
-0.0008	-0.0015	0.0075	-0.0015	70.5
-0.0015	-0.0015	0.0052	0	70.5
0	-0.0046	0.0045	0.0037	70.6
0.0052	-0.0038	0.003	0.0067	70.6
0.0052	-0.006	0.0022	0.0052	70.6
0	-0.0053	0.0045	-0.0008	70.6
-0.0015	-0.0046	0.0052	-0.0023	70.6
-0.003	-0.003	0.009	0	70.6
-0.0046	0.0007	0.009	0	70.3
0.0015	0.0007	0.0067	-0.0023	70.6
0.009	0.0007	0.0082	-0.0015	70.6
0.0067	-0.0008	0.0112	-0.0015	70.5
0.0045	0.0007	0.012	-0.003	70.6
0.0045	0.0007	0.0097	-0.0023	70.6
-0.0015	-0.0008	0.0082	-0.0023	70.6
0.0007	-0.0015	0.0082	-0.0023	70.5
0.0007	-0.003	0.0067	-0.0008	70.6
-0.0053	-0.0023	0.0067	0.0007	70.6
-0.0046	-0.0023	0.0082	0.0015	70.4
-0.0091	-0.0015	0.0067	0.0007	70.6
-0.0105	0.0015	0.009	0.0015	70.6
-0.0091	0.0015	0.0105	0.0007	70.6
-0.0075	0.003	0.0105	-0.0008	70.5
-0.006	0.0022	0.0112	-0.0008	70.7
-0.0053	0.0007	0.012	-0.0015	70.5
-0.006	0.0015	0.009	-0.003	70.8
-0.006	0.0007	0.0082	-0.0015	70.6
-0.003	0.0007	0.0052	-0.0015	70.5
-0.003	0	0.0015	0.0007	70.6
-0.0015	-0.0015	0.0007	0.0022	70.5
-0.003	-0.0015	-0.0008	0.0015	70.6
-0.0046	-0.0008	-0.003	0.0007	70.6
-0.0046	-0.0015	-0.003	0.0015	70.6
-0.0075	0	-0.003	0.0037	70.6
-0.0105	0.0015	-0.0023	0.0045	70.5
-0.012	0.0037	0.0022	0.0045	70.6
-0.0135	0.0052	0.003	0.003	70.5
-0.0143	0.0045	0.0007	-0.0008	70.5
-0.0083	0.003	0.0007	-0.0015	70.6
-0.0091	0.0015	0.0015	-0.0015	70.6
-0.0098	0.0015	0	0.0007	70.5
-0.006	0.0015	0.0007	0.0007	70.4
-0.0046	0.0007	0.003	-0.0008	70.6
0.003	0	0.0022	0.003	70.4
0.0015	-0.0008	0.0022	0.0037	70.6
-0.0023	0.0007	0.0052	0.0045	70.6
-0.0046	0.0007	0.0075	0.0045	70.6
-0.0046	0.0015	0.009	0.0037	70.6
-0.0008	0.003	0.009	0.003	70.6
-0.0008	0.0022	0.0097	0.0015	70.5
0.0007	0.0037	0.0105	0.0052	70.4
0.0007	0.0045	0.0097	0.0052	70.5
0.0015	0.006	0.012	0.003	70.5
0.0022	0.0052	0.0105	0.0007	70.6
0.003	0.0015	0.0067	-0.0015	70.6
0.0045	0.0015	0.0052	-0.0038	70.5
0.0045	-0.0008	0.0052	-0.0046	70.7
0.0052	-0.0008	0.0037	-0.0038	70.3
0.0052	-0.0015	0.0007	-0.0068	70.6
0.003	-0.0015	0.0007	-0.0075	70.4
0.0045	-0.0015	-0.0008	-0.0075	70.6
0.003	-0.0015	-0.0015	-0.0091	70.3
0.003	-0.0015	-0.0008	-0.0091	70.5
0.0052	-0.003	-0.0015	-0.006	70.5
0.0037	-0.0023	0	-0.003	70.5
0.0045	-0.0023	0.0007	-0.0015	70.4
0.0052	-0.003	0.003	-0.0008	70.4
0.003	-0.003	0.003	-0.0008	70.5
0.0015	-0.003	0.0015	0.0045	70.5
-0.0008	0.0007	0.0045	0.0075	70.5
-0.0008	0.0015	0.0037	0.0105	70.6
-0.0008	0.003	0.0037	0.0105	70.5
-0.0015	0.0022	0.0067	0.0082	70.6
-0.003	0.0015	0.0075	0.0045	70.6
-0.0015	0	0.0075	0.0015	70.6
-0.0008	-0.0008	0.0082	0.003	70.6
-0.0015	0.0007	0.009	0.0015	70.4
0.0007	0	0.009	-0.0015	70.6
-0.0015	-0.003	0.0082	-0.003	70.5
-0.003	-0.0015	0.0105	-0.003	70.6
-0.0038	-0.0015	0.0105	-0.0023	70.5
-0.0046	-0.0015	0.0082	-0.0015	70.7
-0.0053	-0.0015	0.0105	-0.0015	70.5
-0.003	-0.0023	0.0067	-0.0015	70.6
-0.0015	-0.0015	0.0052	-0.0015	70.6
-0.003	-0.0015	0.0067	-0.003	70.5
-0.003	-0.0015	0.006	-0.0046	70.6
-0.003	-0.0008	0.009	-0.003	70.6
-0.003	-0.0008	0.009	-0.0008	70.5
-0.003	0	0.009	0.0015	70.6
-0.0023	0.0015	0.0082	0.0022	70.4
-0.0015	0.0015	0.0082	0.003	70.6
-0.0053	0.003	0.0075	0.0022	70.4
0.0007	0.0022	0.009	0.0015	70.6
0.0135	0.0007	0.0112	0.0022	70.5
0.0262	0	0.0082	0.0045	70.6
0.0352	0.0007	0.0067	0.0067	70.6
0.0315	-0.0008	0.0067	0.009	70.5
0.0217	-0.0046	0.0045	0.009	70.5
0.0082	-0.0053	0.0037	0.0052	70.4
-0.0053	-0.0053	0.0045	-0.0038	70.6
-0.0165	-0.0015	0.003	-0.0075	70.4
-0.0233	0.0007	0.003	-0.0015	70.5
-0.0278	0	0.0015	-0.0008	70.6
-0.0293	0.0015	0.0022	0	70.5
-0.024	0.003	0.006	-0.0008	70.6
-0.024	0.0015	0.0052	-0.0015	70.4
-0.0225	0.003	0.0082	0.0015	70.5
-0.0158	0.0052	0.0112	0.0037	70.6
-0.0128	0.0052	0.0135	0.0052	70.5
-0.0098	0.006	0.0127	0.0052	70.5
-0.0053	0.0052	0.0112	0.0052	70.5
-0.0046	0.0045	0.0105	0.0037	70.5
-0.003	0.0022	0.0105	-0.0008	70.4
-0.0038	0.0015	0.0067	-0.0046	70.6
-0.003	0	0.0022	-0.0075	70.3
-0.0038	-0.0015	-0.0008	-0.0091	70.4
-0.0075	-0.0008	-0.003	-0.0098	70.5
-0.0105	-0.0008	-0.0015	-0.0098	70.2
-0.0098	-0.0023	-0.003	-0.0053	70.6
-0.0083	-0.0015	-0.0023	0.0007	70.4
-0.0091	0	0.0015	0.0022	70.6
-0.0091	-0.0008	0.0015	0.003	70.6
-0.0083	0.0007	0.0007	0.0045	70.6
-0.0083	0.0007	0.003	0.0045	70.6
-0.0098	0.0007	0.003	0.003	70.5
-0.0083	0.0015	0.0067	0.0015	70.6
-0.003	0	0.009	0.003	70.4
-0.0008	-0.0015	0.009	0.0007	70.6
-0.0015	-0.003	0.009	0	70.4
-0.0008	0.0007	0.0105	-0.0008	70.4
0	0.0037	0.0097	-0.0008	70.6
0.0037	0.0022	0.009	0.0015	70.5
0.0052	0.0045	0.009	0.0045	70.6
0.006	0.0045	0.0067	0.003	70.5
0.0075	0.0022	0.0067	0.0007	70.6
0.0052	0.0007	0.0052	0.0007	70.4
0.006	-0.0008	0.0045	-0.0015	70.5
0.0045	-0.0008	0.0052	-0.0008	70.5
-0.0015	-0.0008	0.0052	0.0007	70.6
-0.0008	-0.0023	0.0045	0	70.6
0.003	-0.0053	0.003	-0.0023	70.5
0.003	-0.003	0.0045	-0.003	70.8
0.006	0	0.0067	-0.0008	70.6
0.0052	-0.0008	0.0082	0.0007	70.6
0.0052	-0.0008	0.0045	0	70.5
0.009	-0.0023	0.0052	0	70.7
0.0105	-0.0008	0.0052	0.006	70.5
0.012	0.0015	0.0052	0.006	70.5
0.009	0.0007	0.0067	0.0037	70.5
0.006	0.0015	0.0045	0.003	70.6
0.0067	0.0037	0.0037	0.0007	70.4
0.0067	0.0045	0.003	0.0007	70.6
0.0052	0.0037	0.0045	0.0015	70.4
0.0075	0.0022	0.003	0.003	70.6
0.0082	0.003	0.0052	0.0052	70.6
0.0082	0.003	0.0082	0.0067	70.6
0.009	0.0022	0.0082	0.0067	70.6
0.0052	0.0022	0.0082	0.0045	70.6
0.0052	-0.0008	0.0082	0.0045	70.6
0.0045	0.0015	0.009	0.003	70.4
0.0067	0.003	0.0105	0.003	70.6
0.0082	0.003	0.0105	0.0007	70.6
0.0075	0.003	0.009	-0.0053	70.5
0.0045	0	0.0067	-0.0083	70.5
-0.0008	0	0.0067	-0.0091	70.4
-0.0008	0	0.0075	-0.0068	70.5
0.003	-0.0008	0.0067	-0.006	70.4
0.006	0	0.006	-0.0053	70.4
0.009	-0.0015	0.0067	-0.0068	70.5
0.0045	-0.0015	0.0045	-0.0083	70.6
-0.0015	-0.0015	0.0007	-0.0068	70.5
-0.0015	-0.0046	-0.0023	-0.0098	70.5
0.0007	-0.0068	-0.0038	-0.0068	70.6
0.0052	-0.0068	-0.0023	-0.0046	70.4
0.0082	-0.0053	-0.0008	0.0007	70.6
0.0067	-0.0046	0.0007	0.0082	70.6
0.0045	-0.0015	0.0045	0.0105	70.6
0.0007	-0.0015	0.006	0.0135	70.6
-0.0008	0	0.003	0.012	70.5
0.0015	0.003	0.003	0.0052	70.6
0	0.003	0.0052	0.0045	70.4
0	0.003	0.0067	0.0045	70.6
-0.0015	0.0022	0.006	0.0045	70.5
-0.0008	0.0007	0.0067	0.0007	70.6
0	0.0015	0.0037	0	70.6
0.0007	0.0015	0.006	0.0015	70.5
0.0075	0.0015	0.0045	-0.0008	70.7
0.009	0.0007	0.003	0.0007	70.4
0.0045	0.0015	0.006	0	70.7
0.0007	0.0015	0.0082	-0.0015	70.6
-0.0008	0.0007	0.0052	-0.0008	70.6
0.0007	0.0022	0.0067	0	70.6
0.0007	0.0022	0.009	-0.0015	70.6
0.0015	0.0015	0.0075	-0.0053	70.6
0.0007	0.0007	0.0067	-0.0083	70.6
-0.0023	-0.0008	0.006	-0.006	70.6
-0.0046	0	0.0045	-0.0053	70.6
-0.0068	-0.0008	0.003	-0.0053	70.6
-0.0068	-0.0008	0.0022	-0.0046	70.6
-0.0083	-0.0023	0.0015	-0.0046	70.5
-0.0091	-0.003	0.003	-0.003	70.8
-0.0105	0.0007	0.0015	0.0007	70.4
-0.0091	0.0015	0	0.0045	70.6
-0.0008	0.0022	0.0022	0.0067	70.4
0.006	0.003	0.0052	0.0067	70.6
0.0075	0.003	0.0052	0.0045	70.6
0.009	0.0015	0.0037	0.0067	70.5
0.0105	0.003	0.003	0.009	70.7
0.0045	0.003	0.0045	0.0052	70.6
0.0052	-0.0008	0.0045	0.0015	70.6
0.0067	-0.0008	0.0052	0	70.5
0.0022	-0.0008	0.0067	-0.0015	70.6
-0.0008	0	0.0082	-0.0015	70.6
-0.0046	0	0.0082	-0.0015	70.6
-0.0068	-0.0015	0.0067	-0.003	70.6
-0.0105	0.0007	0.0082	-0.0008	70.6
-0.0128	0.0007	0.0075	0.003	70.6
-0.012	0.0007	0.0075	0.0037	70.6
-0.0105	0.0015	0.0105	0.0045	70.6
-0.0091	0.0015	0.0112	0.006	70.6
-0.0075	0.0045	0.0135	0.0052	70.6
-0.003	0.0015	0.0142	0.003	70.6
-0.0046	0.0015	0.012	0.0007	70.4
-0.0046	0.0015	0.0127	0.0007	70.6
-0.0015	-0.0015	0.0082	-0.0008	70.4
-0.0053	-0.0023	0.0052	-0.0046	70.6
-0.0143	-0.0038	0.0052	-0.006	70.7
-0.0158	-0.003	0.003	-0.0075	70.6
-0.0135	-0.0046	0.0007	-0.0053	70.6
-0.0083	-0.0046	0.0007	-0.0053	70.6
-0.0046	-0.003	0.0022	-0.0038	70.6
-0.0015	-0.0023	0.0015	-0.0015	70.7
0.0082	-0.003	0.0022	0	70.5
0.0052	0	0.003	0.0015	70.6
-0.0015	0.0037	0.0045	0.0015	70.6
-0.0068	0.003	0.003	0.0007	70.6
-0.006	0.0015	0.0015	0.0007	70.6
0.0067	0.0022	0.0045	0.0007	70.8
0.0052	0.0007	0.0052	-0.0008	70.5
-0.0046	0.0015	0.0082	0	70.6
-0.0091	0	0.0097	0.0015	70.6
-0.015	0	0.009	0.0007	70.6
-0.0158	0.0007	0.0105	0.0022	70.6
-0.0068	0.0007	0.0127	0.0022	70.6
0.0045	0.0015	0.0135	0.003	70.6
0.0105	0.0022	0.0135	0.003	70.7
0.0097	0.0015	0.012	0.0045	70.6
0.003	0.0015	0.0112	0.003	70.6
-0.0008	0	0.0105	0.0022	70.6
-0.0008	-0.0008	0.0082	0.003	70.8
-0.0008	0	0.0052	0.0037	70.7
-0.0015	-0.0008	0.0067	0.0015	70.6
-0.0053	0.0007	0.0045	0.0007	70.6
-0.0105	0.0007	0.0015	0	70.6
-0.0128	0.0007	0.003	-0.003	70.6
-0.0158	0	0.0022	-0.0053	70.6
-0.0158	0.0007	0.003	-0.0015	70.6
-0.0181	0.0007	0.0015	0.0015	70.7
-0.0195	0.0007	0	0.006	70.6
-0.0143	0.0007	0.0007	0.0105	70.6
-0.0128	-0.0023	-0.0015	0.0067	70.5
-0.0135	-0.0038	0.0007	-0.0053	70.9
-0.0143	-0.0023	0.003	-0.0091	70.6
-0.012	0	0.003	-0.0023	70.6
-0.0091	0.003	0.0037	0.0015	70.6
-0.0105	0.0037	0.0052	0.003	70.8
-0.006	0.0007	0.009	0.003	70.6
-0.003	-0.0008	0.0097	0.0022	70.6
-0.003	-0.0008	0.0082	0.006	70.8
-0.003	0	0.009	0.0045	70.6
-0.0046	0.0015	0.0097	0.0007	70.8
-0.003	0.0007	0.009	-0.0008	70.6
-0.003	0.0007	0.009	-0.0015	70.8
-0.0038	0	0.0082	-0.003	70.8
-0.0008	-0.0008	0.0082	-0.003	70.6
0.0015	0.0007	0.0067	-0.0053	70.6
0.0045	-0.0008	0.006	-0.0038	70.7
0.0105	0.0007	0.0052	-0.0023	70.7
0.0105	0.0022	0.003	-0.0015	70.7
0.0067	0.003	0.003	-0.0008	70.6
0.012	0.0045	0.0015	0.0007	70.6
0.0097	0.003	0.0007	0.0022	70.6
0.0067	0.003	-0.0008	0.0022	70.6
0.0067	0.0022	-0.003	0.0015	70.5
0.0082	0.0007	-0.0023	0.003	70.8
0.0045	0.0015	0.0007	0.0052	70.7
-0.0015	0.0015	0.0022	0.0022	70.6
-0.0023	-0.0008	0.0052	-0.0008	70.7
-0.003	-0.0015	0.0052	-0.0046	70.8
0.0007	-0.0023	0.0052	-0.006	70.6
0.0045	-0.003	0.0045	-0.0038	70.7
0.0067	-0.0015	0.0052	0	70.6
0.009	-0.0023	0.0082	-0.0008	70.6
0.0052	-0.003	0.0037	-0.0015	70.6
0.009	-0.0008	0.0015	-0.003	70.7
0.0165	-0.0015	0	-0.003	70.5
0.0142	-0.003	-0.0008	-0.0038	70.7
-0.0015	-0.0046	0	-0.0038	70.6
-0.0053	-0.003	0	-0.0023	70.6
-0.0068	-0.0023	-0.0008	-0.0015	70.6
-0.012	-0.0015	-0.0008	0.0015	70.7
-0.0098	-0.0008	-0.0015	0.0015	70.6
-0.0105	0.0015	0.0007	0.0007	70.8
-0.0091	0.003	0.0037	-0.0008	70.8
-0.0046	0.0007	0.0052	-0.0038	70.5
0.0022	0.0015	0.0097	-0.0023	70.7
0.009	0.0007	0.009	-0.0008	70.6
0.0105	0.0007	0.0082	-0.0015	70.7
0.0142	0.0015	0.009	-0.0015	70.8
0.0202	0	0.009	0	70.5
0.0165	0.0007	0.009	0.0007	70.9
0.018	0.003	0.0075	0.0007	70.6
0.0217	0.0045	0.0052	0.003	70.7
0.0142	0.0045	0.0082	0.003	70.6
0.0105	0.003	0.0082	0.0052	70.8
0.0052	0.003	0.0082	0.0052	70.7
0.0037	0.0045	0.012	0.006	70.6
0.0007	0.003	0.0112	0.0067	70.7
-0.0023	0.003	0.0112	0.0037	70.6
-0.0023	0.003	0.009	0.003	70.7
-0.0083	0.0007	0.0067	0.0007	70.6
-0.0091	0.0007	0.009	0	70.8
-0.0091	0.0015	0.009	0.0007	70.6
-0.0105	-0.0008	0.0067	-0.0015	70.6
-0.0098	-0.0008	0.0067	0.0015	70.8
-0.0098	0.0007	0.0105	0.0052	70.6
-0.0083	0.0015	0.0105	0.0067	70.8
-0.0098	0.0007	0.0097	0.0052	70.7
-0.012	-0.0008	0.009	0.003	70.6
-0.0105	-0.0008	0.0067	0.0015	70.7
-0.0091	-0.0023	0.0045	0.0007	70.6
-0.0105	-0.003	0.003	-0.0015	70.8
-0.0128	-0.0015	0.003	-0.0008	70.6
-0.0128	0	0.0015	-0.0015	70.9
-0.0105	0.0007	0.0015	-0.0023	70.7
-0.0083	-0.0008	0.003	-0.0023	70.8
-0.006	-0.0015	0.003	-0.0008	70.6
-0.0053	-0.003	0.0052	0.0015	70.7
-0.0046	-0.003	0.0045	0.0022	70.7
-0.0046	-0.003	0.0045	0.0015	70.8
-0.0068	-0.0038	0.0067	0	70.7
-0.0053	-0.0046	0.006	0	70.7
-0.0046	-0.0023	0.0075	0.0022	70.8
-0.0015	0.0022	0.009	0.0037	70.6
-0.0008	0.0037	0.0105	0.0052	70.6
0	0.0037	0.0135	0.0015	70.8
0.0015	0.0037	0.015	0.0045	70.6
0.0007	0.0037	0.0142	0.0045	70.8
-0.0008	0.0037	0.012	0.0007	70.6
0.0007	0.0015	0.0105	-0.0015	70.8
0.0037	-0.0008	0.012	-0.003	70.7
0.0082	-0.0023	0.009	-0.003	70.8
0.0097	-0.0038	0.0052	-0.003	70.8
0.006	-0.0023	0.0015	-0.0053	70.8
0.0045	-0.0023	0.0007	-0.0068	70.7
0.0052	-0.0038	0.0015	-0.0075	70.7
0.0082	-0.0023	0	-0.0046	70.6
0.009	-0.0008	-0.0008	-0.003	70.6
0.0082	0.0022	0	-0.0008	70.6
0.0052	0.0045	0.0007	0.0007	70.9
0	0.003	0.0015	0	70.7
-0.006	0.0015	0.0045	0.0007	70.9
-0.006	0.003	0.0045	0.0007	70.7
-0.0068	0.0045	0.0052	0.0015	70.8
-0.0075	0.0045	0.0052	0.0052	70.7
-0.0068	0.0045	0.0067	0.0045	70.8
-0.0083	0.0037	0.0082	0.0037	71
-0.0135	0.0045	0.0097	0.0045	70.6
-0.0181	0.003	0.0105	0.0007	71
-0.0143	0.0007	0.009	-0.0008	70.8
-0.012	-0.0008	0.0045	-0.0023	70.8
-0.0053	-0.0008	0.003	-0.0015	70.8
0.0082	0.0007	0.0015	-0.0008	70.8
0.0172	0.0015	0.0015	-0.0015	70.9
0.0142	-0.0008	0.0045	-0.0008	70.6
0.009	0.0007	0.003	-0.003	70.9
0.0052	0.0015	0.003	-0.0015	70.7
0.0015	0.0015	0.006	-0.0008	70.9
0.003	-0.0008	0.0067	-0.0015	70.7
0.0007	-0.003	0.0052	0.0007	70.7
-0.0053	0	0.0037	0.0015	70.9
-0.0015	0.0007	0.0007	0.0007	70.7
0.003	0	-0.0053	0	70.8
-0.0008	0	-0.0098	-0.0008	70.6
0.0007	-0.0015	-0.0128	0.0007	70.8
-0.0015	-0.0015	-0.0135	-0.0008	70.8
-0.0008	-0.0015	-0.012	0.0015	70.7
0.006	-0.0038	-0.0083	0.003	70.8
0.0082	-0.003	-0.0068	0.0022	70.7
0.0075	-0.0015	-0.0046	0.003	70.9
0.0045	-0.0008	0.0015	0.003	70.8
0.0075	0.0007	0.003	0.003	70.8
0.0127	0	0.003	0.0022	70.9
0.0202	0.0007	0.0075	-0.0008	70.8
0.024	-0.0008	0.009	0.0007	70.8
0.0127	0.0007	0.009	0.0007	70.8
-0.0068	0.003	0.0075	0.0007	70.8
-0.0165	0.0007	0.0082	0.0007	70.8
-0.012	0.0015	0.0105	-0.0008	70.9
-0.0015	0.0022	0.0105	-0.0015	70.8
0.0007	0.0015	0.0127	-0.0008	70.8
-0.0143	0.003	0.0142	-0.0008	70.8
-0.015	0.0007	0.0135	-0.0008	70.8
-0.012	-0.0008	0.015	0.0007	70.9
-0.012	-0.0008	0.0127	-0.0015	71.1
-0.0053	-0.0008	0.0142	0	70.9
-0.0038	0	0.018	0.0007	70.9
-0.0015	-0.0023	0.0172	-0.0015	70.7
-0.0075	-0.0015	0.0142	-0.0015	70.9
-0.0068	-0.0008	0.0127	-0.003	70.9
-0.0068	-0.0015	0.0105	-0.0023	71.1
-0.0075	-0.0008	0.0097	0	70.8
-0.0068	-0.0008	0.0067	-0.0008	71
-0.0068	-0.0008	0.0067	0.0007	70.8
-0.0046	-0.0008	0.0075	0.003	70.8
-0.0068	0.0015	0.006	0.0037	71
-0.0068	0.0015	0.006	0.0052	70.8
-0.0068	0.0015	0.0052	0.0022	70.9
-0.0023	0.0015	0.0082	0	70.8
0	0	0.009	0	70.9
-0.0015	0.0015	0.0037	0.0007	70.9
-0.0023	0.0015	0.0052	0.0007	70.8
-0.003	0.0015	0.0075	-0.0008	71.1
0.0045	0.0007	0.0082	0.0015	70.9
0.0082	-0.0015	0.0082	0.003	71
0.0172	-0.0008	0.0097	0.0022	70.8
0.0292	0.0015	0.009	0.003	70.9
0.0165	0.0022	0.0075	0.0037	71
0.0052	0.0052	0.0082	0.0045	70.9
0.006	0.0052	0.0045	0.0045	71
0.0082	0.0045	0.0045	0.003	70.8
0.009	0.0037	0.0037	0.0007	70.9
0.0045	0.0015	0.003	-0.0008	71.1
0.0007	0	0.0022	-0.0046	70.9
0.0045	-0.0015	-0.0015	-0.0068	70.8
0.0037	-0.0015	-0.0008	-0.0068	70.8
0	-0.0023	-0.0015	-0.0053	70.8
-0.0105	-0.0015	-0.0015	-0.0038	70.8
-0.0038	0.0007	0.0007	-0.006	70.9
0.0007	0.0007	0.0007	-0.0083	71
-0.0008	-0.0015	0.0015	-0.0083	70.9
0.009	-0.0023	0.0022	-0.0053	71.1
0.0112	-0.0015	0.0067	-0.0046	70.9
0.0105	0.0007	0.0075	-0.003	71
0.012	0.0015	0.0075	0.0007	70.8
0.0105	0.0015	0.0082	0.0015	70.9
0.0112	0.0022	0.009	0.003	70.9
0.0022	0.0007	0.012	0.0052	71
-0.0015	0.0015	0.012	0.0067	70.9
-0.0008	0.0037	0.012	0.0082	70.9
0.0007	0.0015	0.0127	0.0052	71
-0.0038	0.0007	0.0105	0.003	71.1
-0.0053	-0.0015	0.0082	0.0022	70.8
0.0015	-0.0015	0.0052	0.0037	71.1
-0.0015	0	0.0045	0.0045	71
-0.0068	-0.0008	0.0045	0.003	71.1
-0.0083	-0.0015	0.003	0.003	70.8
-0.0181	-0.0015	0.0007	0.0015	71.1
-0.0353	-0.0015	-0.0023	0.0007	70.8
-0.0428	-0.0015	-0.0008	0.0015	71.1
-0.024	-0.0008	0.0007	-0.0008	70.9
-0.006	0	-0.0023	-0.003	70.8
-0.0195	0.0015	-0.003	-0.0038	70.8
-0.033	0.0015	0	-0.0046	70.9
-0.0256	0.0022	0.0015	-0.003	71.1
-0.0165	0.0045	0.003	-0.0015	71
0.003	0.003	0.0037	0	70.9
0.0255	0.003	0.0067	0.0052	71
0.024	0.0045	0.006	0.0067	70.9
0.0075	0.0045	0.0045	0.0067	71
0.0097	0.0045	0.0007	0.0052	70.8
0.0217	0.0015	-0.0015	0.0052	70.8
0.0202	0.0007	-0.0008	0.0045	70.8
0.012	-0.0008	0.0007	0.003	71
0.0067	-0.0015	0.0022	0.0045	71.1
0.003	-0.0015	0.0052	0.0015	70.9
-0.003	-0.0023	0.0082	0.003	71
-0.0068	-0.0015	0.009	0.003	70.8
-0.012	-0.0023	0.0067	0.0007	71
-0.0098	-0.0038	0.0067	-0.0008	70.8
-0.0158	-0.0038	0.009	-0.0046	71
-0.0218	-0.0075	0.009	-0.0068	70.9
-0.0105	-0.0075	0.0097	-0.0046	70.9
0.0015	-0.0068	0.009	-0.003	70.8
0.0142	-0.0083	0.0082	-0.0023	70.8
0.0232	-0.0046	0.0082	-0.0023	71
0.0255	-0.0046	0.009	-0.0015	70.8
0.0247	-0.003	0.0105	0.0007	70.8
0.021	-0.003	0.0112	0.0015	71.1
0.015	-0.003	0.0142	0.0022	70.8
-0.0023	-0.0008	0.0157	0.0015	71.1
-0.0113	-0.0008	0.0157	0.0022	70.9
-0.0046	0.0015	0.015	0.003	70.9
0.006	0.0045	0.0157	0.0052	70.6
0.0142	0.0045	0.0157	0.0052	70.9
0.0172	0.0045	0.0157	0.0082	70.8
0.0157	0.0037	0.0142	0.0067	70.8
0.0045	0.0045	0.012	0.0015	70.7
-0.0075	0.0037	0.0112	0	70.8
-0.0128	0.0037	0.0097	0	70.8
-0.0165	0.0022	0.0075	0.0007	70.9
-0.0181	0.0007	0.0052	-0.0068	70.8
-0.0195	0	0.0015	-0.012	70.7
-0.0173	-0.003	-0.003	-0.012	70.6
-0.0128	-0.0046	-0.003	-0.0113	70.8
-0.0053	-0.003	-0.0023	-0.0091	70.6
0.0045	-0.0015	-0.0008	-0.006	70.8
0.0172	-0.0008	0.0022	-0.003	70.8
0.021	0.0015	0.0007	-0.0015	70.7
0.018	0.0022	-0.0015	-0.0008	70.6
0.0165	0.0015	0.0015	0.0015	70.6
0.0127	0.0015	0.0037	0.0045	70.8
0.0045	0.0015	0.0015	0.003	70.5
-0.0053	0.003	0.003	0.0007	70.7
-0.0046	0.003	0.0045	0.0022	70.6
-0.0015	0.0022	0.003	0.0015	70.7
-0.0038	0.0022	0.003	0.003	70.6
-0.0038	0.0022	0.006	0.0022	70.6
-0.0083	0.0015	0.0075	0.0015	70.6
-0.0135	0.0007	0.0075	0.0022	70.4
-0.0158	0.0015	0.006	0.0015	70.7
-0.0188	0.003	0.006	0.0015	70.6
-0.0195	0.003	0.0067	0.0007	70.6
-0.0165	0.003	0.0037	0	70.6
-0.0113	0.0007	0.0022	-0.0015	70.6
0.0007	0.0015	0.0022	-0.0008	70.6
0.006	0.0007	0.0007	0.0007	70.3
-0.0038	0.0015	-0.0023	0.0007	70.6
-0.0091	0.003	-0.0023	0.0045	70.4
-0.0143	0.0015	-0.0015	0.0037	70.4
-0.0195	0.0015	0	0.003	70.4
-0.0188	0.0022	0.0015	0.0052	70.5
-0.0195	0.003	0.003	0.0067	70.4
-0.0091	0.003	0.0052	0.0067	70.3
-0.0008	0.0022	0.0052	0.0052	70.4
-0.0008	0.0037	0.0052	0.003	70.4
-0.0008	0.0015	0.003	-0.0008	70.3
-0.0105	0.0007	0	-0.003	70.3
-0.0195	-0.003	0.0015	-0.0053	70.3
-0.0256	-0.006	0.0007	-0.0083	70.3
-0.024	-0.0046	-0.0008	-0.0105	70.1
-0.0203	-0.0046	0.0007	-0.0091	70.3
-0.0091	-0.0046	0.0015	-0.006	70.2
-0.0008	-0.0046	0.0052	-0.0053	70.2
0.003	-0.0038	0.0105	-0.0008	70.2
0.0067	-0.0015	0.0135	0.0015	70.1
0.0075	0.0007	0.0142	-0.0008	70
0.0082	0.0015	0.012	0.0007	70.1
0.0067	0.0015	0.0075	0.003	70
0.0007	0.003	0.0022	0.0045	70.2
-0.0128	0.003	-0.0023	0.0067	69.9
-0.0105	0.003	-0.0046	0.0082	70.1
0.0082	0.0022	-0.0023	0.0022	69.9
0.0127	0.0007	-0.0008	0.0007	70
0	0	-0.003	0	70
-0.0075	-0.0015	-0.0008	-0.0008	70
-0.0181	-0.0015	0.0037	-0.0008	70
-0.0256	-0.0008	0.0075	-0.0008	69.8
-0.024	0.0015	0.0082	0.0007	70
-0.0181	0.0052	0.009	0.0015	69.8
-0.0075	0.0037	0.0112	0.0015	69.9
-0.0046	0.003	0.012	0.0007	69.7
-0.003	0.0015	0.0105	0	69.8
0.0045	0.0022	0.006	0.0007	69.7
0.0232	0.003	0.0045	0.0015	69.7
0.042	0.0007	0.0007	0.0007	69.7
0.0337	-0.0015	-0.0008	0	69.5
0.0142	-0.0023	-0.0008	0.0007	69.6
0.0135	-0.0008	-0.003	0.003	69.4
0.0157	0.0015	-0.003	0.0037	69.4
-0.0023	0.0007	-0.0038	0.0037	69.4
-0.0218	-0.0015	-0.0008	0.003	69.3
-0.0218	-0.0023	-0.0008	0.0022	69.5
-0.012	-0.0023	0.0007	0.003	69.4
-0.0128	-0.0015	0.0015	0.0015	69.5
-0.0128	0	0.0015	0.0015	69.3
-0.0008	0.0007	0.0052	0.0022	69.2
0.0187	0	0.012	0.0015	69.2
0.0285	-0.0015	0.0105	0.0015	69.1
0.0232	-0.003	0.0105	0.0007	69.2
0.0195	-0.0023	0.0105	-0.0008	69.2
0.0165	-0.0008	0.009	-0.0008	69.1
0.0255	-0.0023	0.0112	-0.0023	69.2
0.024	0	0.0105	-0.0015	68.9
-0.0158	0.0022	0.0075	-0.0015	69.1
-0.039	0.0022	0.009	-0.0015	68.8
-0.012	0.0022	0.0105	-0.003	69
0.0195	0.003	0.0082	-0.003	68.7
0.0277	0.0052	0.0067	-0.0008	68.9
0.0157	0.0045	0.0082	-0.0015	68.8
-0.003	0.003	0.0105	-0.0015	68.7
0.0015	0.0007	0.015	-0.0008	68.8
0.0045	0	0.0165	0.0007	68.6
-0.0083	0.0015	0.015	0.0015	68.7
-0.0225	0.0022	0.0142	0.003	68.5
-0.0195	0.003	0.012	0.0037	68.4
-0.0165	0.0022	0.0097	0.0045	68.5
-0.0293	0.003	0.015	0.0052	68.3
-0.027	0.003	0.0142	0.0037	68.6
-0.0105	0.0022	0.009	0.0022	68.3
0	0.0015	0.0097	0.0007	68.3
-0.0091	0.0015	0.0105	-0.0015	68.3
-0.0158	0	0.0112	-0.0015	68.3
-0.012	-0.0023	0.0075	-0.0015	68.3
-0.0053	-0.0046	0.0037	-0.0038	68.1
-0.0015	-0.0068	0.0045	-0.0053	68.2
-0.0008	-0.0075	0.0022	-0.0075	67.9
-0.0015	-0.0083	0.0022	-0.0053	68
-0.0038	-0.0091	0.0015	-0.0046	67.9
-0.0046	-0.0068	-0.0008	-0.0008	67.9
-0.0008	-0.0053	0.0022	0.0015	67.9
0.0007	-0.003	0.0037	0.0007	67.8
-0.0091	-0.0015	0.0022	0.0007	67.8
-0.0165	0	0.003	0.0022	67.6
-0.0128	0.0015	0.0052	0.003	67.6
-0.0165	0.0022	0.0045	0.0037	67.8
-0.0181	0.0022	0.0067	0.0045	67.5
-0.0091	0.0022	0.0075	0.0037	67.6
0.0052	0.0015	0.0082	0.0007	67.3
0.0202	0.0022	0.0112	0.0015	67.6
0.0337	0.003	0.0105	0.0022	67.4
0.0322	0.003	0.0097	0.0022	67.5
0.015	0.0045	0.012	0.0015	67.3
0.0187	0.0052	0.0157	-0.0008	67.2
0.0412	0.0052	0.0142	-0.0008	67.1
0.0397	0.0052	0.015	-0.0008	67.1
0.015	0.0052	0.0142	-0.0008	67
0.003	0.0045	0.0135	0	66.9
0.0075	0.0037	0.0112	-0.0008	67.1
0.012	0.0045	0.0105	-0.0008	67
0.0097	0.0022	0.009	0.003	66.7
0.0082	0.0007	0.0067	0.0022	66.9
0.003	0.0007	0.0067	0.0007	66.6
0.0015	0.0007	0.003	-0.0015	66.7
-0.003	0.0007	0.0022	-0.0023	66.5
-0.0083	-0.0015	0.0007	0.0007	66.5
-0.0068	-0.0008	-0.0008	0	66.3
-0.0046	-0.0015	0.0037	-0.003	66.5
0.006	-0.003	0.0022	-0.0008	66.3
0.0052	-0.0015	0.0015	0.0007	66.1
-0.0046	-0.0015	-0.0008	-0.0015	66.4
-0.0083	-0.0015	-0.0015	-0.0023	66.1
-0.0165	-0.003	-0.0008	-0.003	66
-0.0188	-0.0023	-0.0015	-0.003	66.1
-0.0181	-0.0008	0.0045	-0.0023	66
-0.0158	0.0007	0.0067	0	66
-0.006	0.0007	0.0052	0	65.8
0.0052	-0.0008	0.0037	-0.0008	65.9
0.0165	0.0007	0.003	-0.0015	65.7
0.0142	0.0015	0.0067	-0.0038	65.7
0.0127	-0.0015	0.0075	-0.0038	65.7
0.003	-0.0046	0.0052	-0.003	65.3
-0.003	-0.0046	0.003	-0.0023	65.4
0.0015	-0.0038	0.0022	-0.003	65.2
0.003	-0.0015	0.0045	-0.0015	65.4
0.003	0	0.0045	0.0037	65.4
-0.0015	0.0015	0.0045	0.0067	65.1
-0.0053	0.0045	0.006	0.0097	65
-0.012	0.0045	0.0037	0.0127	65
-0.012	0.0037	0.003	0.012	65
-0.0105	0.0045	0.0022	0.0112	64.8
0.0022	0.003	0.0015	0.0075	64.8
0.009	0	0.0045	0.0007	64.8
0.0082	-0.0046	0.0052	-0.0015	64.7
0.0202	-0.0083	0.0007	-0.0068	64.7
0.0105	-0.0083	-0.0023	-0.0105	64.3
-0.0008	-0.0091	-0.0053	-0.0105	64.4
-0.0135	-0.0098	-0.0046	-0.012	64.1
-0.024	-0.0091	-0.003	-0.0105	64.2
-0.024	-0.0046	-0.0053	-0.0068	63.9
-0.0188	-0.0015	-0.0053	-0.0023	64
0.003	-0.0015	-0.0046	-0.0015	63.9
0.0195	0	-0.0038	0.0007	63.9
0.0262	0	-0.0008	0.003	63.8
0.03	0.0022	0.0007	0.0052	63.8
0.027	0.0052	0.0015	0.0037	63.7
0.0097	0.0037	0.0045	0.0037	63.7
0.0052	0.0052	0.0067	0.003	63.4
0.0015	0.0067	0.009	0.003	63.5
-0.006	0.0067	0.009	0.0045	63.4
0.0037	0.0045	0.012	0.0022	63.4
0.0202	0.0015	0.0142	0.0015	63.1
0.0097	0.003	0.0142	0.0015	63.1
-0.006	0.0052	0.0142	0.0007	63
0.0142	0.0052	0.0142	0.0022	62.8
0.0157	0.0045	0.0135	0.0022	62.8
-0.0053	0.0052	0.0135	0.0007	62.6
-0.0413	0.0045	0.0165	0	62.8
-0.0683	0.003	0.015	0.0022	62.4
-0.0645	0.0015	0.0165	0.003	62.5
-0.0668	0.0015	0.0165	0.0037	62.5
-0.063	0.0022	0.0202	0.003	62.4
-0.0511	0.0015	0.0255	-0.0008	62.2
-0.0383	0.003	0.021	-0.0008	62.2
-0.0165	0.0045	0.0165	0.0022	62.3
0.006	0.0037	0.0172	0.0015	62
0.0232	0.0022	0.0135	0.0015	61.9
0.0277	0.0007	0.012	0.0015	61.8
0.0292	0	0.0105	-0.0008	61.6
0.0255	-0.0015	0.006	-0.0015	61.7
0.0142	-0.0038	0.0037	-0.0015	61.4
0.0105	-0.003	0.0007	-0.0015	61.5
0.0195	-0.0008	0.0045	0.0007	61.2
0.0202	-0.0008	0.0112	0.0022	61.2
0.0015	-0.0008	0.0142	0.0022	61.2
-0.0068	-0.0015	0.0127	0.0007	61.1
-0.0015	-0.0015	0.0067	0.0007	60.9
0.0037	-0.0015	0.0045	0.0007	61
0.009	-0.0023	0.006	0.0007	60.9
0.0112	-0.0008	0.0052	0.0015	60.8
0.0075	0.0015	0.0052	0.0015	60.5
0.0075	0.0007	0.003	0.0015	60.7
0.0097	0.003	0.0037	0.003	60.4
0.009	0.003	0.0045	0.003	60.4
0	0.003	0.0052	0.0007	60.2
-0.0165	0.0015	0.003	0	60.1
-0.0165	-0.0023	0.0022	-0.0015	60.1
-0.0046	-0.0015	0.0045	-0.0023	59.9
-0.0053	-0.0008	0.003	-0.003	59.8
-0.0158	-0.0015	0.0022	-0.0046	59.7
-0.0015	-0.0008	0.0007	-0.0038	59.7
0.0202	-0.0015	0.003	-0.0023	59.6
0.003	-0.0015	0.0015	-0.0015	59.4
-0.0173	-0.003	-0.0008	-0.003	59.3
-0.03	-0.003	0.0015	-0.0008	59.3
-0.0293	-0.0015	0.003	-0.0008	59.2
-0.0225	-0.0008	0.003	-0.0015	58.9
-0.021	0.0007	0.0015	-0.0008	59.1
-0.012	0.003	0.0015	0.0007	58.8
-0.0053	0.0015	0	0.003	58.8
0	0.0007	0	0.0015	58.5
0.0022	-0.0008	-0.0008	0.0015	58.3
0.0105	-0.0015	-0.0015	0.0015	58.4
0.0127	-0.003	-0.0008	0.0022	58.2
0.0067	-0.0015	-0.0008	0.0037	58.4
0.009	0	-0.0008	0.0022	58
0.0052	0.0007	-0.0008	0.0015	58
0.0067	0.0045	-0.0008	-0.0008	57.9
0.0022	0.003	0.0015	-0.0008	57.8
-0.0068	0.0022	0.0015	-0.0015	57.8
-0.0113	0.0015	0.0015	-0.003	57.8
-0.0046	0.0022	0.0052	-0.003	57.6
0.0037	0.0022	0.0037	-0.003	57.5
0.0045	0.0007	0.0007	-0.003	57.6
0.0127	0.0007	0.0015	-0.003	57.3
0.012	0.0007	0.0045	-0.0008	57.4
0.0187	0.003	0.0052	0.0015	57.2
0.0262	0.0022	0.0052	0.0007	57.1
0.0105	0.0007	0.009	0.0007	57.3
0.0015	0.0007	0.0082	0.0015	57
-0.0046	-0.0015	0.0037	0	57.1
-0.0165	0	0.0007	0.0007	56.9
-0.0353	0.0015	0.003	0.0015	56.8
-0.0428	0.0015	0.0022	0.003	56.9
-0.0405	0.0015	0	0.003	56.7
-0.0413	0.0022	0.0037	0.003	56.6
-0.03	0.003	0.0045	0.0007	56.6
-0.0165	0.0015	0.0037	-0.0008	56.3
0.0082	0.0007	0.0045	-0.0015	56.5
0.0412	0.0015	0.0015	-0.0023	56.3
0.069	0.0015	0.0015	0	56.3
0.0772	-0.0008	0.003	-0.0008	56.1
0.0592	-0.0023	0.006	-0.0015	56
0.0465	-0.0015	0.006	-0.0015	55.8
0.0337	-0.0023	0.0045	-0.0015	55.8
0.0247	-0.0015	0.003	0	55.6
-0.0053	-0.0008	0.0015	0	55.4
-0.03	0.0007	0.0037	0.0015	55.5
-0.0218	0.0022	0.0067	0.0015	55.3
-0.0218	0.0015	0.0097	0.0015	55.3
-0.0203	0	0.0112	0.0015	55.1
-0.0353	0.0007	0.0105	0.0015	55
-0.0375	0	0.0097	0.0007	54.9
-0.0233	-0.0008	0.009	-0.0015	54.7
-0.0233	0.0015	0.0105	0.0015	54.7
-0.0188	0.0015	0.0105	0.003	54.5
-0.0091	0.0015	0.0052	0.003	54.6
-0.006	0.0015	0.003	0.0052	54.2
-0.0105	0.0022	0.0022	0.006	54.2
-0.0173	0.0022	-0.0008	0.006	54
-0.0068	0.0022	0.0015	0.0037	54
0.003	0.0007	0.0007	0.003	54
-0.0053	0.0007	-0.003	0.0015	53.8
-0.0143	-0.0008	-0.003	0.0007	53.7
-0.0181	0	-0.0008	-0.0015	53.7
-0.021	0.0015	0.0015	-0.0023	53.7
-0.015	-0.0023	0.003	-0.0023	53.6
-0.0158	-0.0046	0.0067	-0.003	53.4
-0.0256	-0.003	0.009	-0.0015	53.3
-0.0315	-0.0038	0.0067	-0.0008	53.4
-0.0346	-0.0038	0.0045	0.0007	53.1
-0.0256	-0.0015	0.0015	0.0015	53.2
-0.0173	0	-0.0015	0.0015	52.8
-0.0181	-0.0023	-0.0008	0.0015	53.1
-0.0158	-0.0023	0.003	-0.003	52.9
0.0007	-0.0015	-0.003	-0.0015	52.9
0.021	-0.0008	-0.0023	-0.0008	52.7
0.0217	0	-0.0015	-0.0015	52.6
0.009	-0.0008	-0.0053	0.0015	52.5
0.0075	-0.0008	-0.003	0.0015	52.2
0.0217	-0.0008	-0.0015	0.0007	52.6
0.0127	0.0015	0.0007	0.0015	52.2
0.0075	0.003	0	0.003	52.2
0.009	0.0022	-0.0015	0.0015	52
0.0045	0.0007	-0.0046	0.0015	51.9
0.0315	-0.0008	-0.0008	0.003	52
0.0307	0	0.009	0.003	51.8
0.0045	0.0007	0.0127	0.0015	51.9
-0.0091	0.0007	0.0105	0.0015	51.7
-0.024	-0.0008	0.0037	0.0015	51.6
-0.0256	0.0007	0.0007	0.0015	51.6
-0.0203	0.0022	0.012	0.0022	51.4
0.012	0.0015	0.0195	0.0015	51.4
0.0345	0.0015	0.0232	0	51.2
0.0255	0.0007	0.0255	-0.0008	51.3
0.024	0.0007	0.0232	-0.0008	51.1
0.0232	0.0015	0.0195	0	51
0.0165	0.0022	0.0157	0.0015	50.8
0.0157	0.006	0.0165	0.0052	50.8
0.0097	0.0082	0.0165	0.0037	50.6
0.0022	0.0082	0.0157	0.0015	50.6
0.0105	0.0105	0.0157	0.0015	50.4
0.0097	0.0127	0.0112	0	50.4
-0.0075	0.0165	0.0067	-0.003	50.2
-0.0128	0.018	0.0082	-0.006	50.4
-0.033	0.0202	0.0142	-0.006	50
-0.0495	0.0157	0.0165	-0.0053	50
-0.0405	-0.0068	0.0172	-0.0083	50
-0.0428	-0.0405	0.0315	-0.0098	49.9
-0.039	-0.0465	0.0457	-0.0083	49.8
-0.0165	-0.0338	0.054	-0.0068	49.7
0.0112	-0.0225	0.0465	-0.003	49.6
0.0247	-0.0015	0.0232	0.0007	49.5
0.0292	-0.003	0.0037	0.0015	49.5
0.0292	0	-0.0008	0.003	49.3
0.0412	0.006	-0.0023	0.003	49.3
0.0555	0	-0.0075	0.0037	49.1
0.0405	0.0052	-0.0068	0.0007	48.9
0.009	0	-0.0091	0	49.1
-0.0105	0.0007	-0.006	0.0007	48.7
-0.0165	0.0015	-0.0015	0.0015	48.9
-0.015	-0.0008	-0.0046	0.003	48.6
-0.0083	0.0007	-0.0075	0.0007	48.6
-0.0135	-0.0023	-0.0143	0.0015	48.6
-0.0263	0.0015	-0.0181	0.0022	48.5
-0.0308	0.0022	-0.0181	0.0015	48.4
-0.0323	0.0022	-0.0188	0.003	48.3
-0.027	0.003	-0.0173	0.0045	48.2
-0.021	0.0045	-0.012	0.0045	48.1
-0.024	0.0045	-0.0083	0.0052	48.1
-0.027	0.003	-0.0128	0.0067	48.1
-0.0203	0.0067	-0.0135	0.0097	48
-0.0083	0.0112	-0.0091	0.012	47.8
-0.0008	0.0112	-0.0083	0.009	47.8
0.0015	0.0082	-0.003	0.0067	47.9
0.018	0.0082	0.0037	0.0022	47.6
0.0315	0.0067	0.0067	-0.0015	47.5
0.0195	0.003	0.0127	-0.0038	47.6
0.012	-0.0015	0.0142	-0.006	47.4
0.0202	-0.0098	0.0067	-0.0113	47.4
0.0315	-0.0158	0.0015	-0.0128	47.1
0.0255	-0.0218	-0.0015	-0.012	47.2
0.015	-0.0225	0	-0.0105	47.1
-0.0091	-0.0165	0.0015	-0.0068	47.1
-0.0578	-0.003	0.0007	-0.0015	46.9
-0.0765	0.0045	0.0015	0.0015	46.8
-0.0698	0.003	-0.0008	0	46.7
-0.0615	0.0045	-0.0008	-0.0015	46.7
-0.048	0.003	0.0052	0.0007	46.6
-0.0285	0.003	0.0052	0.0022	46.7
-0.0068	0.0037	0.0037	0.003	46.3
0.0037	0.0022	0	0.0022	46.4
0.0052	0.003	-0.0008	0.0022	46
0.006	0.0015	-0.0008	0.0015	46.2
0.012	0.003	-0.0008	0.0037	45.9
-0.0038	0.0037	0.0015	0.003	46.2
-0.0233	0.0015	0.003	0.0007	45.9
-0.0413	0.0007	0.0082	0.0015	45.9
-0.0645	0.0015	0.0127	0.003	45.9
-0.0623	0.006	0.0165	0.0015	45.7
-0.063	0.0082	0.0195	0.0007	45.8
-0.0668	0.003	0.0187	0.0007	45.4
-0.0473	0.0007	0.0165	-0.0008	45.5
-0.0263	0.0015	0.0142	0	45.4
-0.0173	0.006	0.0135	-0.0015	45.3
-0.003	0.0097	0.0172	-0.0015	45.3
0.0142	0.0067	0.0165	-0.0015	45
0.0112	0.0022	0.0157	-0.0038	45.1
0.0112	-0.0008	0.0172	-0.0023	45
0.0052	-0.0015	0.012	-0.0023	45
0.0007	-0.0023	0.0097	0.0015	44.8
0.0045	-0.003	0.0142	0.003	44.6
0.0135	-0.0038	0.0127	0	44.7
0.0337	-0.0046	0.0142	-0.0008	44.5
0.0375	-0.0046	0.0112	-0.0008	44.6
0.0382	-0.0053	0.0022	0.0007	44.2
0.045	-0.0038	0.0022	0	44.5
0.0637	-0.0023	0.003	0.0007	44.2
0.0675	-0.0008	-0.0038	0.0022	44.2
0.0555	0.0022	-0.0068	0.0007	44.1
0.0555	0.0045	-0.0083	0.0022	43.9
0.051	0.0037	-0.012	0.0007	43.7
0.0525	0.0022	-0.0128	0.0007	43.9
0.0487	0.003	-0.012	0.0015	43.8
0.0255	0.003	-0.012	0	43.7
0.003	0.0015	-0.0128	0	43.6
-0.0083	0.0022	-0.0091	-0.0008	43.6
-0.024	0.003	-0.003	0.0007	43.4
-0.0203	0.0045	0.0022	0.0007	43.6
-0.0181	0.0052	0.0037	0.0022	43.4
-0.0315	0.0052	0.0015	0.0015	43.4
-0.0293	0.0045	0.0022	0	43.3
-0.0195	0.0015	-0.0023	0.0007	43.1
0.0022	-0.0008	-0.006	-0.0008	43.1
0.0052	-0.0008	-0.0068	-0.0015	43
0.0075	-0.0015	-0.0053	-0.0008	42.8
0.0067	-0.0008	-0.003	-0.0008	42.8
-0.0098	0	-0.003	-0.0008	42.6
-0.0128	-0.0015	-0.0015	0	42.7
-0.0315	0.0007	-0.0015	0.0015	42.4
-0.0563	0.0007	0.003	0.0007	42.5
-0.0585	-0.0023	0.0127	0.0007	42.4
-0.0361	-0.0023	0.015	-0.0008	42.3
-0.0165	-0.0038	0.0142	-0.0008	42.3
-0.0158	-0.003	0.0142	0.0007	42.1
-0.0053	-0.0015	0.012	-0.0008	42.3
-0.0023	-0.0023	0.012	-0.0015	41.9
-0.0143	-0.0023	0.012	-0.0008	42
-0.0278	-0.0023	0.0165	0.0007	41.9
-0.039	-0.0008	0.0225	0.0015	41.9
-0.0436	0	0.0232	0.003	41.7
-0.0398	-0.0015	0.024	0.0015	41.8
-0.0383	-0.003	0.024	0.0015	41.6
-0.0495	-0.003	0.0225	0.0015	41.5
-0.0436	-0.0023	0.0202	-0.0015	41.4
-0.0323	-0.0046	0.0165	-0.0008	41.4
-0.03	-0.0046	0.015	-0.0023	41.2
-0.0225	-0.003	0.018	-0.0008	41.4
-0.0188	-0.0015	0.021	0.0007	41
-0.0091	0.0007	0.0217	0.0022	41.2
-0.0008	0.0052	0.027	0.0015	40.9
0.0112	0.0105	0.0277	0.0007	40.9
0.0465	0.0165	0.0217	0	40.9
0.0637	0.0127	0.0157	0.0007	40.8
0.078	-0.003	0.0165	0.0022	40.7
0.1027	-0.0143	0.0232	0.0022	40.6
0.1035	-0.0128	0.0255	-0.0008	40.6
0.093	-0.0083	0.0255	-0.0008	40.5
0.0802	-0.003	0.0217	0	40.4
0.0607	-0.003	0.0217	0.0015	40.3
0.0675	-0.006	0.0217	0.0022	40.2
0.0952	-0.0053	0.0187	0.0007	40.2
0.0945	-0.0023	0.0225	-0.0008	40
0.0607	0.0015	0.0165	-0.0008	40.1
0.0142	0.003	0.009	0.0007	40
-0.0105	0.003	0.0075	-0.0008	39.9
-0.0308	0.003	0.0045	-0.0008	39.9
-0.057	0.003	0.0015	0.0022	39.6
-0.0608	0.0037	0.003	0.0015	39.7
-0.0735	0.0052	0.0082	0	39.6
-0.114	0.0052	0.0097	-0.0015	39.6
-0.147	0.003	0.0015	0.0007	39.3
-0.1365	0.0015	-0.0135	0.0015	39.3
-0.1178	0.003	-0.0173	0	39.3
-0.1028	0.0022	-0.0165	0	39.2
-0.0533	0.0015	-0.0158	0.0015	39.1
-0.0383	0.0015	-0.012	0.0007	38.9
-0.0158	0.0015	-0.0083	-0.0008	39
0.033	0	-0.0008	0.0007	38.9
0.0577	-0.0008	0.003	0	38.9
0.0795	-0.0008	0.0007	-0.0008	38.7
0.0855	-0.0008	-0.0008	-0.0015	38.6
0.078	0.0007	0.0022	-0.0008	38.6
0.0547	0.0007	0.0067	-0.0008	38.4
0.0525	0.003	0.0052	0	38.5
0.0457	0.0067	0.0052	0.0045	38.2
0.033	0.0037	0.0015	0.0022	38.3
0.0187	0.0015	-0.0008	0	38.2
-0.0091	0.0015	-0.0023	0.0007	38.2
0.0015	0.0007	-0.0091	0.0007	38.1
0.0247	0	-0.0173	0.0015	37.9
0.0457	0.0007	-0.0195	0.003	37.9
0.0502	0.0015	-0.024	0.0037	37.8
0.0315	0.0022	-0.0278	0.0037	37.6
-0.0053	0.0022	-0.0256	0.0015	37.7
-0.0308	-0.0008	-0.0181	0	37.5
-0.0383	-0.0008	-0.0158	0	37.5
-0.0691	-0.0008	-0.0128	-0.0008	37.3
-0.0773	0	-0.0083	-0.0008	37.3
-0.057	-0.0008	-0.0083	-0.0015	37.3
0	-0.0023	-0.0053	-0.0038	37.1
0.0607	-0.0015	-0.003	-0.0023	37
0.0967	-0.0015	-0.0068	-0.003	36.9
0.1327	-0.003	-0.0075	-0.0015	37
0.1005	-0.0008	-0.006	0.0015	36.8
0.075	0.003	-0.0008	0.003	36.9
0.075	0.0052	0.0007	0.0067	36.8
0.033	0.0105	0.0052	0.0097	36.6
-0.0046	0.0105	0.0142	0.0037	36.6
-0.0158	0.006	0.0187	0.0007	36.4
-0.0038	0.0052	0.0225	-0.0008	36.5
0.009	0.003	0.0195	-0.0015	36.4
0.024	0.0015	0.0165	-0.0046	36.2
0.0195	-0.003	0.0187	-0.0046	36.2
-0.021	-0.0098	0.021	-0.0038	36
-0.054	-0.0135	0.024	-0.003	36
-0.054	-0.0165	0.0232	-0.0015	35.6
-0.0443	-0.0143	0.0142	-0.003	35.9
-0.0473	-0.0053	0.0067	-0.0038	35.7
-0.0578	0.0037	0.003	-0.0015	35.7
-0.054	0.0015	0.0015	-0.0008	35.5
-0.0346	-0.0015	-0.0008	-0.003	35.4
0.0022	-0.0015	-0.003	-0.003	35.3
0.0277	-0.0023	0.0007	-0.003	35.4
0.0127	-0.0015	0.0052	-0.0046	35.3
0.0127	-0.0038	0.0052	-0.003	35.2
0.0225	-0.0015	0.0015	-0.0015	35.1
0.0255	0	-0.0023	-0.0008	35.1
0.0195	0.003	0	0.0045	34.9
0.012	0.0052	0.0015	0.0052	34.9
0.0165	0.003	0.0037	0.003	34.9
0.0172	0.0022	0.0067	0.003	34.9
0.0135	0.0037	0.0112	0.0052	34.7
0.0142	0.0075	0.0165	0.0075	34.7
0.0457	0.012	0.0165	0.0082	34.6
0.0667	0.0112	0.012	0.006	34.5
0.0675	0.012	0.0082	0.0007	34.3
0.0832	0.012	0.0082	-0.0038	34.3
0.0907	0.0105	0.0105	-0.0046	34.3
0.0855	0.0112	0.0097	-0.0046	34.2
0.0757	0.0067	0.009	-0.0046	34.1
0.0825	0	0.0082	-0.0038	34.2
0.0907	-0.0173	0.0052	-0.0038	34
0.078	-0.0458	0.0045	-0.0015	34
0.0487	-0.0488	0.0067	0.0007	33.9
0.045	-0.0158	0.0105	0.0022	33.9
0.0345	-0.003	0.012	0.003	33.8
0.0082	0.0007	0.0105	0.0022	33.7
0.0142	0.0067	0.012	0.0007	33.7
0.0082	0.0007	0.012	0.0007	33.5
-0.0038	0.0052	0.009	0.0015	33.6
0.0112	0.0045	0.0075	0.0015	33.3
0.0345	0.0045	0.0105	0.0015	33.3
0.0015	0.0082	0.0135	0.0015	33.3
-0.0361	0.0067	0.018	0.0007	33.1
-0.0511	0.0052	0.015	0.0015	33.2
-0.0818	-0.0008	0.012	0.0022	33
-0.0878	0.0015	0.0142	0.0022	33.2
-0.0818	0.0022	0.009	0.0022	32.9
-0.057	0.0022	0.003	0.0007	32.8
-0.0315	0.0037	0.0067	-0.0015	32.9
-0.0256	0.0037	0.009	-0.0023	32.7
-0.0128	0.003	0.009	-0.0008	32.8
-0.0015	0.0052	0.0142	0.0015	32.4
0.0067	0.0052	0.0195	0.003	32.7
-0.003	0.003	0.0255	0.0015	32.4
-0.0083	0.0045	0.03	0	32.5
-0.0015	0.0007	0.036	-0.0008	32.4
0.0037	0.0007	0.0375	-0.0015	32.4
0.012	-0.0008	0.0277	-0.0015	32.3
0.0172	-0.0023	0.0172	-0.0008	32.1
0.027	-0.0008	0.009	-0.0008	32.1
0.0187	-0.003	0.003	0	32.1
0.0075	-0.0015	0.0022	0.0007	31.8
0.027	-0.003	-0.003	0.003	31.9
0.0472	-0.0015	-0.0075	0.003	31.7
0.0562	0.0007	-0.012	0.0045	31.9
0.057	0.0037	-0.0158	0.0045	31.6
0.0675	0.009	-0.0143	0.003	31.8
0.0727	0.0105	-0.0165	0.0015	31.8
0.039	0.006	-0.0203	-0.0015	31.6
0.024	0.0015	-0.0143	0	31.6
0.039	0.0007	-0.0091	0.0007	31.4
0.0442	-0.0008	-0.0083	0.0015	31.6
0.0442	0.0015	-0.0083	0.0015	31.3
0.0412	0.0015	-0.0083	0	31.4
0.0532	-0.0023	-0.0083	0.0015	31.3
0.09	-0.003	-0.0038	0	31.2
0.0975	-0.0038	0.0082	0.0022	31.4
0.0382	-0.0083	0.0172	0.0015	31
0.0022	-0.0091	0.018	0	31.4
0.0052	-0.006	0.0135	0	31
-0.015	0.0015	0.009	-0.0023	31.4
-0.039	0.0045	0.0067	0.0007	31.1
-0.033	0.0007	0.006	-0.0008	31
-0.0181	-0.0008	0.0052	-0.0023	31.1
-0.0218	-0.0015	-0.0015	-0.0015	31
-0.0068	0.0015	-0.0068	-0.0038	31
0.0427	-0.0008	-0.0075	-0.003	30.9
0.0667	-0.0023	-0.0075	-0.0023	30.9
0.0307	0.0007	-0.0091	-0.0023	30.8
-0.0293	0.0022	-0.0091	-0.0015	30.7
-0.0308	0.0022	-0.0053	-0.003	30.7
0.0217	-0.0008	-0.0046	-0.003	30.7
0.0172	-0.0038	-0.0068	-0.0046	30.7
-0.0285	-0.0053	-0.0046	-0.0046	30.6
-0.039	-0.0038	-0.0053	-0.0015	30.6
-0.0143	0	-0.0083	0.0007	30.5
0.003	0.0015	-0.012	0.0015	30.5
-0.0113	0.0007	-0.0105	0.0022	30.4
-0.0585	0.0015	-0.0053	0.003	30.3
-0.0765	0.003	0.0007	0.0037	30.5
-0.0525	0.0037	0.009	0.003	30.3
-0.045	0.003	0.0105	0.0037	30.5
-0.0563	0.0045	0.0112	0.0052	30.2
-0.0503	0.006	0.0127	0.003	30.1
-0.0525	0.006	0.0127	0.003	30
-0.0728	0.0082	0.0157	0	30
-0.0428	0.0082	0.012	-0.003	29.7
-0.0495	0.0045	0.0105	-0.0046	29.7
-0.0923	0.0015	0.0165	-0.0015	29.3
-0.0885	0.0007	0.0157	-0.0008	29.3
-0.0758	-0.0008	0.0157	-0.003	29.1
-0.0495	-0.0015	0.0202	-0.0053	29.1
-0.0098	-0.003	0.0217	-0.0053	28.8
0.0052	-0.0046	0.0225	-0.0015	29
0.0075	-0.003	0.0225	0.0022	28.8
0.018	-0.0008	0.024	0.0052	28.8
0.0367	-0.0008	0.024	0.0075	28.8
0.072	0.0015	0.018	0.006	28.6
0.066	0.0045	0.0142	0.0052	28.8
0.0262	0.0045	0.024	0.0037	28.4
0.024	0.0022	0.0397	0.003	28.4
0.06	-0.0008	0.0352	0.0007	28.4
0.0667	-0.0038	0.0255	0	28.4
0.0442	-0.0046	0.0202	0.0022	28.3
0.0525	-0.003	0.0135	0.003	28.3
0.0675	-0.003	0.0195	0	28.2
0.0742	-0.0053	0.0195	-0.003	28.1
0.0435	-0.0053	0.0007	-0.003	28.2
0.012	-0.0053	-0.0203	-0.0023	28.2
-0.012	-0.0046	-0.039	-0.0008	28.1
-0.0383	-0.003	-0.0473	0.0015	28
-0.0256	-0.0023	-0.042	0.0015	27.8
-0.033	-0.0008	-0.0368	0.003	27.9
-0.039	0.0045	-0.0308	0.0052	27.8
-0.0458	0.009	-0.021	0.0037	27.9
-0.0413	0.0082	-0.012	0.0015	27.7
-0.0203	0.0067	0.0037	0.0007	27.7
-0.0181	0.0052	0.0112	-0.0015	27.6
-0.024	0.0045	0.0082	-0.0023	27.5
-0.0465	0.0022	0.012	-0.003	27.5
-0.0488	-0.0008	0.0165	-0.0023	27.4
-0.0368	-0.0015	0.0165	-0.0015	27.4
-0.0256	-0.0023	0.018	-0.003	27.4
-0.0383	-0.0015	0.015	-0.0038	27.3
-0.0563	-0.0015	0.0157	-0.0046	27.4
-0.0405	-0.0015	0.018	-0.0046	27
-0.0346	-0.0053	0.0157	-0.0038	27.2
-0.0368	-0.0075	0.0165	-0.006	27
-0.0518	-0.006	0.0172	-0.0053	27
-0.075	-0.0015	0.0165	-0.0023	27
-0.0713	0.0052	0.012	0.0015	26.9
-0.0743	0.0067	0.0142	0.0037	26.9
-0.0765	0.0045	0.0262	0.0037	26.8
-0.0436	0.0015	0.0232	0.003	26.8
0.03	-0.0015	0.0112	0.0007	26.6
0.0937	-0.0015	-0.0068	0	26.5
0.0892	-0.0023	-0.0181	0.0007	26.5
0.0487	-0.0015	-0.0188	0.0007	26.5
0.0232	0.0007	-0.0195	0.0015	26.5
0.0007	0.003	-0.0158	0	26.3
-0.0383	0.0007	-0.0158	0.0007	26.3
-0.0563	0	-0.012	0	26.4
-0.0668	0	-0.012	0	26.2
-0.09	0.0037	-0.0173	0.0022	26.2
-0.0893	0.0097	-0.0158	0.0045	26.1
-0.0825	0.0097	-0.0173	0.0045	26.1
-0.0743	0.0082	-0.0143	0.003	26
-0.0675	0.0052	-0.0135	-0.0008	26.1
-0.0968	0.0007	-0.0128	-0.003	25.9
-0.1238	-0.0038	-0.0068	-0.0015	26
-0.1088	-0.006	-0.0053	-0.003	25.8
-0.0608	-0.0091	-0.0015	-0.0068	25.8
-0.0346	-0.012	0.0007	-0.0038	25.9
-0.0338	-0.0105	0.0037	-0.003	25.7
-0.0285	-0.0068	0.0067	-0.0008	25.8
0.0067	0	0.012	0.003	25.8
0.0135	0.0052	0.0142	0.003	25.6
0.0052	0.0067	0.0112	0.0045	25.6
0.0262	0.0052	0.0082	0.003	25.5
0.009	0.0015	0.0045	0.0015	25.6
0	0.0015	0.012	0.0007	25.2
0.0007	0.0007	0.0187	-0.0008	25.4
-0.0263	0.0022	0.0232	0.0015	25.3
-0.0353	0.0015	0.036	0.0015	25.3
-0.0203	-0.0008	0.0337	-0.0008	25.2
-0.0083	-0.0008	0.0307	0.0007	25.2
0.0067	-0.0015	0.03	0.0015	25
0.015	-0.0008	0.027	0.0007	25
0.0232	-0.0008	0.0292	0.0007	24.9
0.048	-0.0015	0.0247	0.0007	25
0.042	-0.0023	0.0202	0	24.7
0.0285	-0.0053	0.0187	0.0022	25
0.0202	-0.0023	0.0202	0.0045	24.7
0.0157	0.0007	0.024	0.0052	24.7
0.0352	0.003	0.018	0.0067	24.6
0.0307	0.006	0.0142	0.0052	24.5
0.009	0.0037	0.018	0.003	24.7
0.0045	0.0022	0.0172	0.0037	24.5
-0.006	0.0007	0.015	0.003	24.5
0.009	0	0.0112	0.0015	24.3
0.0742	0.0037	0.0082	0.003	24.6
0.1147	0.0075	0.0105	0.0045	24.3
0.0937	0.0082	0.015	0.0022	24.2
0.048	0.0045	0.0135	-0.0008	24.2
0.0082	0.0022	0.012	-0.0015	24.2
-0.0256	0.0015	0.0157	-0.0015	24.3
-0.0218	-0.0008	0.0142	-0.0046	24.1
0.0277	0.0007	0.012	-0.0038	24.2
0.0915	0.0015	0.0112	-0.0008	24
0.1305	0.0007	0.0052	-0.0015	24.1
0.1012	-0.0008	0.0022	-0.003	24
0.0607	-0.0046	0.0045	-0.0053	23.8
0.0862	-0.0083	0.0082	-0.0075	24.1
0.117	-0.0113	0.0067	-0.0053	23.8
0.099	-0.0075	0.0052	0.0007	23.9
0.0472	-0.0023	0.0052	0.0067	23.5
0.0097	0.003	0.0007	0.009	23.8
-0.0015	0.009	-0.003	0.0105	23.7
0.0007	0.0082	-0.0015	0.0082	23.6
-0.0181	0.0067	-0.003	0.0045	23.6
-0.0323	0.0045	-0.0091	0.0022	23.5
-0.033	0.0022	-0.0105	0.0015	23.7
-0.0503	0.0022	-0.012	0	23.5
-0.0518	0.0015	-0.0158	-0.0008	23.5
-0.0713	-0.0008	-0.015	-0.0023	23.4
-0.0998	0.0007	-0.0128	-0.0015	23.3
-0.1088	0.0007	-0.0083	0	23.4
-0.0908	-0.0008	-0.003	-0.0008	23.1
-0.0383	0	-0.0075	-0.0008	23.4
0.0007	0.0015	-0.0165	-0.0046	23.2
0.0247	0.0007	-0.0143	-0.0046	23.1
0.0465	-0.0015	-0.0105	-0.003	23.3
0.0555	0.0007	-0.0105	-0.0046	22.9
0.0457	0.0015	-0.0068	-0.0023	22.9
0.0255	0.0007	-0.0046	0	23
0.0142	0.0015	0.0022	-0.0008	23
0.0157	0.0022	0.0082	-0.0038	23
0.018	0	0.009	-0.0046	22.9
0.033	-0.0015	0.012	-0.0053	22.9
0.0652	-0.0023	0.0165	-0.0075	22.7
0.0495	-0.0053	0.021	-0.0053	22.8
0.0165	-0.0053	0.0247	-0.0023	22.7
0.0022	-0.0038	0.0187	0.0022	22.9
-0.0225	0.0007	0.009	0.0052	22.6
-0.0346	0.0045	0.0127	0.0067	22.7
-0.027	0.0067	0.0097	0.0082	22.6
-0.0188	0.0075	0.0097	0.0067	22.5
-0.0128	0.0052	0.0082	0.0045	22.7
-0.0248	0.0045	0.0045	0.0007	22.3
-0.0533	0.0007	0.0052	0.0015	22.3
-0.0615	-0.0015	0.0015	0.0007	22.4
-0.0638	0.0007	0.0007	-0.0008	22.3
-0.0713	-0.003	-0.0038	-0.0008	22.2
-0.0518	-0.0038	-0.0083	-0.0015	22.2
0.0037	-0.0023	-0.0083	-0.0015	22.2
0.0195	-0.0038	-0.0128	-0.0015	22.1
-0.0075	-0.0038	-0.0113	-0.0008	22.1
-0.003	-0.0023	-0.0105	-0.0015	22
-0.0105	-0.003	-0.012	-0.0015	22
-0.0353	-0.0015	-0.0105	-0.0015	21.9
-0.0623	0.0007	-0.0105	-0.0008	21.9
-0.0713	0.0015	-0.0091	0	21.9
-0.0578	-0.0015	-0.0075	-0.0023	21.8
-0.0488	-0.0008	-0.0046	-0.003	21.9
-0.0443	0.0015	-0.0053	0	21.7
-0.057	0.0015	-0.0075	0.0015	21.8
-0.0608	0.0015	-0.0083	0.0015	21.6
-0.0503	-0.0008	-0.0046	0.0007	21.7
-0.0285	-0.0023	0.0045	-0.0015	21.5
-0.0563	-0.003	0.006	-0.0015	21.6
-0.1028	-0.0023	0.0067	-0.0008	21.7
-0.0683	0.0052	0.0105	0.0015	21.5
-0.024	0.006	0.0105	0.0045	21.3
-0.0128	0.0037	0.009	0.0045	21.5
-0.021	0.0037	0.006	0.0037	21.3
-0.0068	0.0022	0.0015	0.003	21.5
0.006	0.0022	0.0052	0.0015	21.2
0.0007	-0.0008	0.0097	-0.0015	21.3
0.012	-0.0038	0.0112	-0.0038	21.2
0.0015	-0.0053	0.012	-0.0023	21
0.0142	-0.0075	0.0127	-0.0023	21.1
0.0202	-0.0075	0.009	-0.003	21.1
0.0127	-0.0068	0.0052	0.0007	21.2
0.0405	-0.003	0.0052	0.0037	21
0.054	0.0007	0.0067	0.0045	20.8
0.0697	0.0015	0.0142	0.0052	21
0.0472	0.003	0.015	0.0052	20.7
0.0172	0.0045	0.0157	0.0052	20.8
0.0517	0.0015	0.0165	0.0015	20.6
0.0495	0.0007	0.0165	-0.0008	20.7
0.0502	0.0007	0.0195	-0.0008	20.5
0.1087	-0.0038	0.0142	-0.0023	20.7
0.1185	-0.0046	0.009	0.0007	20.5
0.0457	-0.0038	0.0067	-0.0008	20.6
0.0127	-0.0075	0.0015	-0.006	20.5
-0.0038	-0.0091	0.0007	-0.0068	20.3
-0.0338	-0.006	-0.003	-0.0023	20.4
0	-0.0053	-0.0091	0.0015	20.4
0.009	0.0007	-0.0105	0.0082	20.2
-0.0263	0.0075	-0.0015	0.0097	20.2
-0.0698	0.009	0.009	0.0082	20.3
-0.1043	0.0097	0.0142	0.006	20.2
-0.0878	0.0052	0.0165	0.0045	20.2
-0.024	0.0007	0.0165	0.0015	20.2
0.0427	-0.0015	0.0082	-0.003	20
0.0607	-0.0038	-0.0008	-0.0023	19.8
0.0375	-0.0053	-0.0083	-0.0046	20.2
0.0247	-0.003	-0.0091	-0.0038	19.8
0.075	0.003	0.0015	0	20
0.0652	0.0067	0.012	0.0007	19.8
-0.0046	0.0052	0.0232	-0.0008	19.8
-0.048	0.0045	0.0292	-0.0008	19.8
-0.0593	0.0037	0.027	-0.0023	19.8
-0.027	-0.0008	0.0337	-0.0053	19.8
0.0007	-0.0023	0.048	-0.006	19.8
0.0532	-0.0046	0.063	-0.0075	19.8
0.0892	-0.0068	0.0502	-0.0053	19.7
0.084	-0.0053	0.03	-0.0046	19.6
0.0705	-0.0053	0.027	-0.0015	19.7
0.057	-0.003	0.0172	0.003	19.4
0.027	0.003	0.0075	0.0052	19.6
-0.0105	0.006	-0.0075	0.0037	19.4
-0.0308	0.0052	-0.0158	0.0015	19.4
-0.054	0.0052	-0.0135	0.0045	19.3
-0.0495	0.006	-0.0098	0.0045	19.5
-0.0375	0.0052	-0.0053	0.0015	19.5
-0.048	0.0052	-0.0068	0.0015	19.2
-0.042	0.0052	-0.0053	0.003	19.3
-0.0293	0.006	-0.0023	0.0015	19.2
-0.0398	0.0045	0.0067	-0.0008	19.2
-0.0368	0.0022	0.0105	0.0007	19.1
-0.0098	0.0015	0.0082	-0.0008	19.2
0.0165	0.0007	0.0075	-0.0008	19.2
0.0345	-0.0008	0.0067	-0.0008	19
0.0502	-0.0015	0.0045	-0.003	19.1
0.0555	-0.0008	0.0022	-0.0023	18.9
0.0367	-0.0015	0.0015	-0.0038	18.9
0.0322	-0.0023	0.0045	-0.0053	19
0.0442	-0.0015	0.0022	-0.0053	19
0.048	-0.0046	-0.0023	-0.0053	18.9
0.0187	-0.003	-0.0038	-0.0038	18.7
-0.0195	-0.003	-0.0091	-0.0008	18.8
-0.0218	-0.0008	-0.012	0.003	18.7
-0.0181	-0.0015	-0.0105	0.0045	18.8
-0.03	-0.0053	-0.0083	0.003	18.5
-0.0308	-0.006	-0.0083	0	18.6
-0.0195	-0.0046	-0.0083	0.0015	18.7
-0.0278	0	-0.0068	0.0045	18.5
-0.0346	0.0037	-0.0083	0.0052	18.4
-0.0405	0.0082	-0.0098	0.0067	18.4
-0.0511	0.0067	-0.0068	0.0045	18.4
-0.0518	-0.0008	0.0007	0.0015	18.6
-0.03	-0.003	0.003	0.0007	18.5
-0.0083	-0.006	0.0037	0.0007	18.5
-0.0083	-0.0083	0.0082	0.0007	18.3
-0.0165	-0.0038	0.0135	-0.0008	18.4
-0.0503	0	0.009	-0.0008	18.3
-0.0548	-0.0023	-0.0023	-0.003	18.4
-0.03	-0.0046	-0.0046	-0.0046	18.1
-0.0225	-0.0015	0.0022	-0.0038	18.2
0.0045	0.0037	-0.0008	0.0022	18.2
0.0067	0.0082	-0.0068	0.0045	18.1
-0.0278	0.009	-0.0105	0.0045	18
-0.0443	0.0082	-0.0075	0.0045	18.1
-0.0285	0.0067	-0.0038	0.0015	17.9
0.0067	0.0052	-0.0038	0.0007	18
0.003	0.0037	-0.0015	-0.003	17.9
-0.0256	-0.0023	-0.0008	-0.0046	18
-0.0495	-0.0053	0	-0.0046	17.9
-0.057	-0.0053	0.0067	-0.006	18
-0.03	-0.006	0.0067	-0.0053	17.9
-0.0203	-0.0068	0.0075	-0.0068	17.9
0.0097	-0.0083	0.009	-0.0068	17.8
0.0202	-0.0053	0.003	-0.003	17.8
-0.012	0	0.003	-0.0015	17.8
-0.0315	0.0007	0.009	-0.0015	17.5
-0.0465	0.0007	0.0165	0.0007	17.8
-0.0098	0.003	0.0142	0.0052	17.6
-0.003	0.0075	0.0082	0.0097	17.6
0.0075	0.0112	0.0157	0.0097	17.6
0.0202	0.009	0.018	0.0067	17.5
0.0052	0.0052	0.021	0.003	17.5
0.0067	0.0015	0.0262	0.003	17.4
-0.0008	-0.0023	0.0315	0	17.6
0.0015	-0.0023	0.0262	-0.0015	17.3
-0.012	-0.0008	0.0172	-0.0008	17.3
-0.0195	-0.0023	0.0217	-0.0008	17.3
-0.027	0.0007	0.024	0	17.2
-0.015	0.0022	0.0292	-0.0023	17.4
0.0157	0.0007	0.0345	-0.0023	17.3
0.0067	0.0022	0.0292	-0.003	17.1
-0.0113	0.0015	0.0292	-0.0038	17.1
0.0075	0.0007	0.033	-0.003	17.2
0.0457	-0.0015	0.0375	-0.0015	17
0.0307	-0.0015	0.0405	-0.0015	17.1
0.0067	-0.0008	0.0405	0	17
-0.0068	0	0.0382	0.0022	17.1
0.0195	-0.0015	0.0375	0.0015	17
0.0577	-0.0046	0.0367	0.0007	17
0.0547	-0.0023	0.033	0.0007	16.8
0.0727	-0.0015	0.0247	0.0022	16.9
0.0705	-0.0008	0.015	0.0015	16.8
0.0427	0.0007	0.0067	-0.0015	16.9
0.0577	0.0007	0.0015	-0.0008	16.7
0.063	-0.003	-0.0038	-0.0015	16.7
0.0427	-0.0053	-0.0083	-0.0023	16.6
0.033	-0.0023	-0.0068	-0.003	16.6
0.027	-0.0008	-0.0046	-0.0023	16.8
0.042	0.0007	-0.0075	-0.0038	16.4
0.0495	-0.0015	-0.0083	-0.0038	16.6
0.0547	-0.0046	-0.0023	-0.0015	16.6
0.0607	-0.0038	0.0045	-0.0015	16.7
0.057	-0.0015	0.0105	0.003	16.5
0.096	0.0022	0.009	0.003	16.3
0.0892	0.0037	0.009	0.006	16.6
0.0045	0.0075	0.0112	0.0075	16.5
-0.0368	0.0045	0.0067	0.0007	16.4
-0.03	-0.0046	0.0172	-0.0038	16.4
0.0322	-0.0068	0.0382	-0.0038	16.3
0.1365	-0.0053	0.0232	-0.0008	16.4
0.1387	-0.0023	0.0045	0.0007	16.2
0.111	0.0015	-0.0105	0.0007	16.4
0.093	0.003	-0.027	-0.0008	16.1
0.0592	-0.0015	-0.027	-0.0038	16.2
0.054	-0.0038	-0.0248	-0.0015	16.1
0.0202	0	-0.0203	0.003	16.2
0.0045	0.009	-0.0188	0.0082	16.2
-0.0008	0.0157	-0.0143	0.012	16
0.0022	0.0127	-0.0008	0.0097	16.2
0.006	0.0097	0.0067	0.0052	16.2
-0.0143	0.006	0.0135	0.0045	16
0.0082	0.0022	0.0165	0.003	16
0.0105	-0.0008	0.0217	-0.0008	15.9
0.0045	-0.0015	0.0247	-0.0015	15.9
0.0007	-0.0046	0.0172	-0.003	15.8
-0.0083	-0.0038	0.0045	0	15.9
-0.015	-0.0008	-0.003	0.0007	15.8
-0.0098	0.003	-0.0053	0.0022	15.7
0.0225	0.0052	-0.0068	0.0022	15.7
0.003	0.0037	-0.0181	0.0007	15.7
-0.027	0.0007	-0.027	-0.0015	15.8
-0.0195	-0.003	-0.0233	-0.0053	15.7
-0.0323	-0.0046	-0.0218	-0.0038	15.7
-0.0383	-0.003	-0.0143	0.0007	15.7
-0.033	-0.0015	-0.0135	0.0045	15.7
-0.033	0.003	-0.0158	0.006	15.8
-0.0023	0.0067	-0.0091	0.0075	15.3
0.0165	0.0075	-0.0053	0.0067	15.6
-0.0105	0.0075	0.003	0.006	15.6
-0.0443	0.0082	0.0052	0.0037	15.4
-0.0315	0.0045	0.009	0	15.6
0.0097	-0.0008	0.0165	0.0015	15.4
0.0322	-0.0015	0.0202	0.0015	15.6
0.03	-0.003	0.0202	-0.0008	15.3
0.0142	-0.0038	0.0037	-0.003	15.6
-0.0046	-0.0046	-0.0135	-0.0046	15.3
-0.0315	-0.0075	-0.012	-0.0046	15.4
-0.039	-0.003	-0.0083	-0.0015	15.3
-0.039	-0.0046	-0.0181	-0.003	15.2
-0.0563	-0.0075	-0.0173	-0.0046	15.4
-0.0593	-0.0046	-0.0165	-0.0046	15.3
-0.0668	-0.0015	-0.045	-0.0053	15.3
-0.078	0	-0.0511	-0.0008	15.3
-0.0706	0.0015	-0.0353	0.003	15.3
-0.0728	0.0052	-0.0398	0.006	15
-0.0773	0.0052	-0.0443	0.009	15
-0.0735	0.006	-0.0353	0.006	15.2
-0.0615	0.0015	-0.0278	0.0015	15
-0.0323	-0.0046	-0.0383	-0.0008	15.3
-0.0188	-0.0053	-0.0458	-0.0015	14.8
-0.0068	-0.006	-0.0428	-0.0008	15
0.0045	-0.0038	-0.0458	0.0045	14.9
-0.0233	0	-0.045	0.0067	14.7
-0.045	0.0022	-0.0338	0.0052	14.8
-0.06	0.0045	-0.0293	0.0067	14.8
-0.0706	0.0045	-0.0203	0.0045	14.7
-0.0495	0.003	-0.0143	0.0015	14.7
-0.0383	0.0045	-0.0128	0.0015	14.5
-0.0495	0.0045	0.0067	0	14.8
-0.0518	0.003	0.0217	-0.0015	14.5
-0.0428	0.003	0.0172	-0.0008	14.7
-0.0158	0.0015	0.012	-0.0038	14.5
-0.0091	-0.0015	0.0127	-0.0053	14.4
-0.0083	-0.006	0.0187	-0.0098	14.4
0.0187	-0.0113	0.0142	-0.0098	14.4
0.003	-0.0098	0.0127	-0.0075	14.6
-0.0128	-0.0053	0.0217	-0.0053	14.2
-0.0038	-0.0023	0.0255	0	14.5
-0.027	0.0007	0.039	0.0037	14.2
-0.0293	0.003	0.0517	0.0052	14.4
-0.024	0.0045	0.036	0.006	14.1
-0.0233	0.0045	0.0322	0.0045	14.2
-0.0203	0.003	0.0367	0.0037	14.2
-0.024	-0.0008	0.03	0.0015	14.1
-0.0165	-0.0023	0.039	-0.0015	14.1
-0.0218	0	0.0495	-0.0023	14.1
-0.0413	0.0007	0.0465	-0.0015	14
-0.0278	-0.0015	0.0442	-0.0015	14
-0.0098	-0.003	0.042	0.0007	13.9
-0.027	-0.0015	0.0352	0.0007	13.8
-0.0098	-0.0015	0.033	0	13.8
-0.0195	-0.0046	0.0405	-0.003	13.9
-0.0675	-0.0038	0.0427	-0.0038	13.8
-0.0593	-0.003	0.0442	-0.0015	13.9
-0.0668	-0.0046	0.0382	-0.0023	13.9
-0.0555	0.0007	0.0225	0.0015	13.6
-0.006	0.006	-0.003	-0.0023	13.6
0.0322	0.0022	-0.0308	-0.0068	13.5
0.0585	-0.0008	-0.0165	-0.0046	13.5
0.0637	0.0015	0.0022	-0.0008	13.7
0.0495	0.0045	0.0172	0.0045	13.3
0.0262	0.0037	0.0525	0.0007	13.5
0.0097	0.0007	0.0502	-0.003	13.3
-0.0083	0.0007	0.0457	0	13.4
-0.0135	0.006	0.0667	0.0067	13.3
-0.0323	0.0142	0.054	0.0105	13.3
-0.0338	0.0142	0.042	0.0082	13.3
-0.0128	0.0105	0.036	0.0045	13.1
0.0097	0.0082	0.0232	0.0015	13.3
0.0352	0.0015	0.024	-0.0008	13
0.057	-0.0015	0.024	-0.0023	13.3
0.0667	-0.003	0.021	-0.0023	13
0.0442	-0.0046	0.0195	-0.0023	12.9
0.0592	-0.0053	0.024	-0.003	13
0.0975	-0.0083	0.0307	-0.0068	13
0.087	-0.0083	0.0352	-0.0015	13
0.075	-0.0046	0.0345	0.0037	12.9
0.0607	-0.0008	0.0277	0.0045	12.9
0.0592	0.0037	0.0225	0.0052	12.7
0.0915	0.0052	0.0142	0.006	12.8
0.1035	0.0052	0.006	0.0037	12.9
0.0742	0.003	0	0.0015	12.5
0.0045	-0.0008	-0.0091	0.0022	12.6
-0.0165	0.0007	-0.0293	0.003	12.5
-0.0128	0.0007	-0.0495	0.0007	12.5
-0.0361	-0.0008	-0.0346	-0.0015	12.4
-0.0015	-0.003	-0.0105	-0.0046	12.2
0.0075	-0.0038	-0.0008	-0.0046	12.4
0.0165	-0.0008	0.0172	-0.006	12.4
0.0322	-0.0053	0.0202	-0.0068	12.4
0.0315	-0.0068	0.0067	-0.0038	12.1
0.0345	-0.003	-0.0038	-0.0015	12.1
-0.0083	0.0022	-0.0135	0.0045	12.3
-0.0518	0.0082	-0.0195	0.0075	12
-0.0915	0.0082	-0.0083	0.0045	12
-0.1043	0.0045	0.0105	0.0015	12.1
-0.0968	0	0.042	0.003	12.1
-0.093	0.0022	0.0742	0.003	12
-0.0885	0.0045	0.048	0	11.8
-0.1028	0.0045	0.0217	-0.0015	11.9
-0.1365	0.0052	0.018	-0.0008	11.7
-0.1388	0.0007	-0.0008	-0.003	12
-0.108	-0.0023	0.0052	-0.0046	11.7
-0.0893	-0.0023	0.0075	-0.0068	11.8
-0.0915	-0.006	-0.0053	-0.0083	11.7
-0.081	-0.0083	-0.0173	-0.0053	11.7
-0.0563	-0.006	-0.0353	-0.0023	11.6
-0.0525	-0.003	-0.0293	-0.0046	11.4
-0.0368	-0.0075	-0.0105	-0.006	11.6
-0.039	-0.0075	0.0052	-0.0038	11.6
-0.0473	0.0015	0.0112	0.0022	11.6
-0.0315	0.006	0.0045	0.006	11.6
-0.0263	0.0082	0.0052	0.0082	11.2
-0.0256	0.0105	0.0105	0.009	11.6
-0.0128	0.012	0.0105	0.0082	11.2
-0.0015	0.0082	0.0157	0.0052	11.3
0.0022	0.003	0.021	0.003	11.3
0.0075	0.0015	0.0195	0.0022	11.2
-0.0008	0.0015	0.0195	-0.0015	11.3
0.0105	-0.0015	0.0172	-0.0015	11.1
0.039	-0.003	0.0127	0.0007	11
0.0442	0.0007	0.0037	0.0022	11.2
0.033	0	-0.0075	0.0037	10.9
0.0307	-0.0023	-0.0038	0.0022	11
0.0277	-0.0015	0.0045	0.003	10.8
-0.003	-0.003	-0.0015	0.0015	11
0.003	-0.0015	-0.0113	0.0007	10.7
0.03	0.0007	-0.0233	-0.0008	10.6
0.0502	-0.0015	-0.0338	-0.0023	10.7
0.0967	-0.0023	-0.039	-0.0015	10.7
0.1102	-0.0023	-0.039	-0.0023	10.7
0.057	-0.0015	-0.0353	0.0015	10.5
0.0255	0.0007	-0.042	0	10.6
0.0727	-0.0023	-0.0405	-0.0046	10.5
0.1327	-0.0113	-0.0383	-0.012	10.5
0.1575	-0.0158	-0.042	-0.0105	10.3
0.1425	-0.0105	-0.0495	-0.0046	10.4
0.1162	-0.0068	-0.0533	-0.003	10.3
0.1245	-0.0075	-0.0443	-0.0008	10.3
0.126	-0.003	-0.0398	0.0015	10.3
0.1102	0.0007	-0.0315	0.0007	10.2
0.0892	0.0015	-0.0128	0.0015	10.2
0.03	0.0052	-0.0008	0.0075	10.3
-0.03	0.012	0.0022	0.0112	10.1
-0.0436	0.0142	0	0.012	10.1
-0.0525	0.0165	-0.0091	0.0105	10.1
-0.0713	0.0142	-0.012	0.009	10
-0.0721	0.012	-0.0008	0.0075	10
-0.0706	0.0082	0.0075	0.0015	9.9
-0.048	-0.0015	0.0022	-0.0038	9.9
-0.0203	-0.0068	-0.0038	-0.0083	9.8
-0.024	-0.0091	-0.0098	-0.0075	9.8
-0.0308	-0.0091	-0.0053	-0.0075	9.7
-0.0046	-0.0105	0.0142	-0.0083	9.8
0.0187	-0.012	0.015	-0.0038	9.7
-0.0046	-0.0068	0.0195	0.0007	9.7
-0.033	-0.0046	0.0315	0.003	9.6
-0.0653	0.003	0.0262	0.0097	9.5
-0.09	0.0075	0.0202	0.0157	9.5
-0.0893	0.0067	0.0165	0.018	9.6
-0.0893	0.0067	0.018	0.0127	9.3
-0.0743	0.0045	0.0195	0.0127	9.4
-0.0495	0.009	0.0262	0.009	9.3
-0.0353	0.0067	0.0292	0.0007	9.4
-0.0428	0.003	0.033	-0.0015	9.1
-0.0308	0.0045	0.039	-0.0046	9.3
-0.012	0.003	0.0315	-0.0046	9.1
-0.0225	0.0052	0.0292	-0.0053	9.2
-0.0278	0.0045	0.0427	-0.0068	9.1
-0.0218	-0.0015	0.0487	-0.0113	9
0.0157	-0.0105	0.0315	-0.0165	9.1
0.0465	-0.0105	0.0172	-0.0105	9.1
0.0307	0.0007	-0.0046	-0.0008	8.9
0.012	0.0015	-0.0308	0.0045	8.9
-0.0023	0.0007	-0.033	0.006	8.9
-0.0203	0.0067	-0.0188	0.0045	8.9
-0.015	0.0075	-0.012	0.0007	8.6
-0.0091	0.0022	-0.0135	-0.0038	8.8
-0.003	-0.0068	-0.0053	-0.0091	8.7
0.0232	-0.0098	-0.0015	-0.0091	8.6
0.0615	-0.0068	0.0015	-0.0091	8.7
0.09	-0.0083	-0.0053	-0.0068	8.4
0.0772	-0.0091	-0.012	-0.0046	8.7
0.0705	-0.0091	0.0097	-0.0023	8.4
0.054	-0.003	0.0157	0.0045	8.5
0.0165	0.009	-0.0128	0.0105	8.4
-0.0023	0.0142	-0.0518	0.0097	8.3
-0.0038	0.0082	-0.0473	0.0052	8.5
0.012	0.003	0.0007	0.0015	8.3
0.0007	0.0045	0.0217	0.003	8.4
-0.0083	0.0082	0.0442	0.0015	8.4
-0.0068	0.0075	0.0615	-0.0008	8.3
-0.0165	0.006	0.0622	-0.0008	8.2
-0.0188	0.0015	0.0457	-0.003	8.1
-0.0308	-0.0008	0.003	-0.003	8.3
-0.033	-0.0008	-0.0046	-0.0038	8
-0.024	-0.003	0.0022	-0.0046	8.1
-0.0315	-0.0008	0.0127	0	7.8
-0.0285	-0.0023	0.0367	-0.0023	8
-0.0158	-0.006	0.0315	-0.0053	7.8
0.0045	-0.006	0.009	-0.0068	7.8
0.0382	-0.0105	-0.0256	-0.0098	7.7
0.0615	-0.0083	-0.0623	-0.003	7.8
0.0502	0.0015	-0.0698	0.0015	7.6
0.018	0.0052	-0.0413	0.003	7.6
-0.021	0.0052	-0.0128	0.0067	7.5
-0.0315	0.0045	0.003	0.0082	7.6
-0.012	0.0067	0.0165	0.0112	7.6
-0.0443	0.0082	0.0097	0.012	7.6
-0.0863	0.0067	0.003	0.012	7.5
-0.0713	0.006	0.009	0.009	7.6
-0.033	-0.0015	0.0097	0.003	7.4
0.0255	-0.0053	0.0097	0	7.4
0.1042	-0.0046	0.0075	-0.003	7.6
0.1597	-0.0046	0.0015	-0.0038	7.2
0.189	-0.0075	0.0157	-0.0075	7.4
0.1665	-0.0105	0.0532	-0.0083	7.2
0.1237	-0.0075	0.0757	-0.0038	7.2
0.0937	-0.0053	0.0555	-0.0038	7
0.0442	-0.0015	0.036	-0.0023	7
0.0127	0	0.0217	-0.0015	7.2
-0.006	0.0007	-0.0008	-0.0015	6.9
-0.0143	0.0045	-0.0038	0.0015	7
-0.0368	0.009	-0.0046	0.006	7
-0.048	0.0142	0.0015	0.0067	6.9
-0.0555	0.0127	0.0015	0.0052	6.9
-0.0691	0.0082	-0.0015	0	6.8
-0.0638	0.0015	0.0127	-0.0015	7
-0.0585	-0.0008	0.0502	-0.0008	6.7
-0.0555	-0.003	0.105	-0.003	6.8
-0.0615	-0.003	0.0997	-0.0023	6.7
-0.0578	0.0015	0.0577	-0.0008	6.7
-0.0548	0.0022	0.009	-0.0008	6.7
-0.0383	0.0052	-0.0518	-0.0015	6.5
-0.0218	0.003	-0.0608	-0.0008	6.5
-0.0143	0.0007	-0.0518	-0.0008	6.5
0.0045	-0.0008	-0.03	-0.0023	6.3
0.0202	-0.0083	0.0007	-0.0068	6.4
0.0195	-0.012	-0.012	-0.0053	6.3
-0.012	-0.006	-0.0346	-0.0008	6.4
-0.0233	-0.0038	-0.0503	-0.0008	6.3
-0.0293	-0.003	-0.0728	0.006	6.3
-0.0436	0.0052	-0.0833	0.0067	6.2
-0.0503	0.0075	-0.0533	0.0052	6.2
-0.0533	0.0037	-0.0278	0.003	6.3
-0.0368	0.0015	-0.0181	0.0015	6
-0.0308	0.0007	0.0052	0.0015	6.3
-0.0248	0.0007	0.0172	-0.0015	6
-0.012	-0.0015	0.0315	-0.003	6.1
0.0015	-0.003	0.0495	-0.003	6
0.0045	-0.0015	0.0427	-0.0015	5.9
-0.03	0.0022	0.0225	-0.0008	5.9
-0.0563	0.006	0.0217	-0.0023	5.8
-0.0188	0.0052	0.0397	-0.0038	6
0.0277	0.003	0.0345	-0.0046	5.8
0.075	0.0007	0.042	-0.0053	5.7
0.1102	-0.0046	0.0592	-0.006	5.8
0.0825	-0.0075	0.0457	-0.0008	5.6
0.0495	-0.0053	0.0367	0.0037	5.8
0.0135	-0.0053	0.0217	0.0082	5.6
-0.0195	-0.0053	-0.0008	0.0045	5.5
-0.0256	-0.0068	-0.0105	-0.0015	5.5
-0.0315	0	-0.0091	0.0045	5.5
-0.042	0.0105	-0.0105	0.012	5.5
-0.0563	0.0135	-0.0158	0.0135	5.4
-0.0428	0.012	0.0112	0.006	5.5
-0.0173	0.0067	0.0277	0.0022	5.4
-0.0075	0.0045	0.0202	-0.0008	5.3
0.0067	-0.003	0.0217	-0.0053	5.4
0.015	-0.0105	0.009	-0.0075	5.2
0.0315	-0.0113	0.0052	-0.0083	5.3
0.0255	-0.0083	0.0052	-0.0023	5.1
0.003	-0.003	0.0022	-0.0008	5.3
0.0037	0.0007	0.0052	0.0037	5.1
-0.0143	0.0075	0.006	0.006	5.2
-0.0188	0.0082	0.0202	0.003	5.1
-0.0053	0.0022	0.042	0.0007	4.9
-0.0165	0.0015	0.0525	-0.0008	5.3
-0.0225	0.003	0.0727	-0.0015	4.9
-0.0278	0.0045	0.0937	-0.003	5.1
-0.0278	0.0015	0.0892	-0.0046	4.9
-0.0173	0	0.0667	-0.0046	4.9
-0.0128	0.0015	0.0285	-0.0008	4.8
0.0007	0.0015	-0.0105	-0.0023	4.7
0.0255	-0.003	-0.039	-0.0068	4.8
0.0345	-0.0098	-0.0436	-0.0068	4.6
0.0352	-0.0091	-0.0503	-0.0046	4.6
0.0217	-0.0068	-0.0788	-0.0015	4.7
0.0037	-0.0068	-0.0721	-0.0038	4.5
0.0202	-0.0046	-0.033	-0.0008	4.6
0.0675	-0.0015	0.0097	-0.0038	4.4
0.1545	-0.0015	0.0435	-0.0008	4.6
0.1987	0	0.045	0.0067	4.4
0.171	0.009	0.027	0.012	4.5
0.0787	0.0142	0.03	0.0165	4.4
-0.0195	0.015	0.075	0.0105	4.4
-0.0615	0.0127	0.1042	0.009	4.2
-0.0675	0.0082	0.075	0.0037	4.4
-0.0638	0.0022	0.0345	0	4.2
-0.0555	-0.0046	-0.0383	-0.0015	4.2
-0.015	-0.0083	-0.0863	-0.0053	4.1
0.012	-0.0075	-0.0915	-0.0046	4.1
0.039	-0.006	-0.099	-0.0068	4.1
0.0427	-0.0098	-0.081	-0.0053	4.2
0.0322	-0.0046	-0.0818	0.0015	4
0.006	0.0015	-0.0698	0.0052	4.1
-0.0375	-0.0008	-0.0511	0.0037	3.9
-0.06	0.0007	-0.039	0.0037	4
-0.0735	0.0045	-0.0135	0.0075	3.8
-0.0743	0.0075	-0.006	0.0067	3.8
-0.063	0.0037	-0.0015	0.0007	4
-0.0405	0.0045	-0.027	0.0015	3.6
-0.0263	0.009	-0.0353	0.0007	3.8
-0.0091	0.006	0.003	-0.0053	3.8
-0.0188	-0.0015	0.0307	-0.0091	3.8
-0.0458	-0.0075	0.0502	-0.0135	3.6
-0.0308	-0.012	0.0487	-0.0098	3.6
-0.0181	-0.0113	0.03	-0.003	3.7
0.0015	-0.0046	0.0285	0.0022	3.6
0.0307	0.0015	0.0322	0.003	3.6
0.0435	0.0015	0.0337	-0.0008	3.7
0.0405	-0.0046	0.0097	0	3.2
0.0082	-0.003	-0.021	-0.0008	3.6
-0.0038	-0.003	-0.0323	-0.0015	3.3
-0.0083	-0.0068	-0.0181	-0.0015	3.5
-0.0091	-0.0053	0.0157	0.0015	3.3
-0.0008	0.003	0.0532	0.0082	3.3
-0.024	0.0135	0.117	0.0112	3.4
-0.0428	0.0127	0.1372	0.0097	3.3
-0.0615	0.009	0.081	0.009	3.2
-0.06	0.009	0.0337	0.0067	3.3
-0.0413	0.0037	0.024	0.0045	3.2
-0.0593	-0.0008	0.021	-0.0008	3.2
-0.0361	-0.0053	0.0262	-0.0098	3
0.0067	-0.0098	0.0352	-0.0091	3
0.0112	-0.0068	0.0285	0.0007	3
0.0307	-0.0015	0.0195	0.0052	3.2
0.0217	0.0015	-0.0053	0.0052	2.9
0.0015	0.012	-0.0181	0.0082	2.9
0.0247	0.015	0.0015	0.0067	3
0.0075	0.0105	-0.0068	0.0067	2.7
-0.0203	0.0127	-0.0346	0.0075	2.9
-0.0293	0.0045	-0.0428	-0.0015	2.7
-0.0315	-0.0068	-0.0458	-0.0053	2.8
-0.0203	-0.0068	-0.0503	0.0007	2.6
-0.0203	0.0015	-0.039	0.003	2.7
-0.006	0.003	-0.021	-0.0008	2.7
0.0277	-0.0023	-0.0195	-0.0053	2.6
0.0532	-0.0091	-0.0158	-0.0068	2.8
0.0442	-0.015	-0.0046	-0.0038	2.7
0.015	-0.0091	0.0052	0.0007	2.6
-0.0248	-0.0015	0.0127	0.0015	2.7
-0.0585	-0.0015	0.0202	0	2.5
-0.054	0.0007	0.0277	-0.0015	2.6
-0.0698	0.0045	0.0337	0.003	2.5
-0.0878	0.0052	0.0307	0.0045	2.6
-0.0638	-0.0015	0.0262	-0.0015	2.3
-0.0128	-0.0038	0.0315	-0.003	2.4
0.0367	-0.0015	0.0307	-0.0023	2.4
0.0585	0	0.033	-0.0008	2.4
0.0817	0	0.0315	0.0007	2.4
0.0735	0.0015	0.018	0.0037	2.4
0.051	0.009	0.012	0.0067	2.3
0.0337	0.009	-0.0046	0.0052	2.3
0.0202	0.0037	-0.0128	0.0007	2.2
0.012	0.0015	-0.0165	-0.0023	2.2
-0.006	0.0007	-0.03	-0.0008	2.1
0.006	0.0015	-0.024	-0.0015	2.2
0.003	-0.0008	-0.0091	-0.0023	2
-0.0495	0.0022	0.0172	0	2.2
-0.099	0.0105	0.0097	0.0015	2.2
-0.1065	0.006	-0.0188	-0.0023	2
-0.0578	-0.0068	-0.039	-0.0068	2
-0.0105	-0.0068	-0.0728	-0.0083	1.9
0.0315	-0.0053	-0.0728	-0.0113	2
0.078	-0.0075	-0.0346	-0.0068	1.8
0.1102	-0.0068	-0.0165	-0.0053	1.8
0.1402	-0.0083	-0.012	0.0007	1.9
0.117	0.0052	0.009	0.0097	1.9
0.0382	0.0142	0.0397	0.0097	1.8
0.0225	0.012	0.0525	0.0082	1.7
0.048	0.0112	0.0435	0.0067	1.8
0.0247	0.006	0.0285	0.0007	1.8
0.0345	-0.0008	0.0195	-0.0046	1.8
0.0667	-0.0053	0.0585	-0.0023	1.8
0.0847	-0.0038	0.0892	-0.0008	1.5
0.123	0.0007	0.0532	-0.0015	1.7
0.1155	0.0015	0.0082	0.0007	1.4
0.0697	0.0045	-0.054	0.006	1.8
0.048	0.0052	-0.0878	0.0052	1.5
0.018	0.003	-0.0818	0.003	1.7
-0.003	0.0067	-0.0848	0.0052	1.6
-0.0203	0.0075	-0.0518	0.0052	1.8
-0.0495	0.0067	-0.0053	0.0052	1.6
-0.054	0.0045	0.0255	0.0015	1.4
-0.0383	0.0015	0.048	-0.0015	1.4
-0.0308	-0.0015	0.054	-0.0023	1.5
-0.0353	-0.0015	0.051	-0.0046	1.5
-0.033	-0.003	0.0315	-0.0091	1.6
-0.0046	-0.0105	0.0052	-0.0083	1.3
0.0217	-0.012	-0.0068	-0.006	1.5
-0.0075	-0.0128	-0.024	-0.0053	1.3
-0.0503	-0.0046	-0.0443	0.0067	1.3
-0.0691	0.0052	-0.0353	0.0082	1.3
-0.0593	0.0007	0.012	0.003	1.2
-0.0555	-0.0046	0.057	-0.0053	1.3
-0.0683	-0.0128	0.0832	-0.0128	1
-0.099	-0.0068	0.1027	-0.0046	1.3
-0.1275	0.0082	0.0765	0.0015	1.2
-0.12	0.006	0.0315	0	1.1
-0.1013	0.0022	-0.0083	0.0015	1.3
-0.027	0.0015	-0.0533	0.0015	1.1
0.0682	0.0052	-0.0653	0.0052	1.1
0.0772	0.0067	-0.0533	0.0067	1
-0.0046	-0.0091	-0.0518	0.0067	1
-0.0856	-0.0053	-0.0533	0.009	0.9
-0.024	0.0142	-0.0315	0.0067	0.9
0.1207	0.0112	-0.0188	0.0067	1
0.156	0.012	-0.021	0.0037	0.8
0.0652	0.009	-0.0233	-0.0023	0.9
-0.012	0	-0.0248	-0.0053	0.9
0.0052	-0.0008	-0.0188	-0.006	0.9
0.042	-0.003	-0.024	-0.0046	0.9
0.0675	-0.0053	-0.0308	-0.0053	0.9
0.0735	-0.0083	0.0277	-0.0046	0.9
0.0622	-0.0068	0.114	-0.0053	1
0.039	-0.0068	0.1282	-0.0046	0.8
-0.0165	-0.0038	0.1275	0.0037	0.8
-0.0758	0.0022	0.0862	0.003	0.7
-0.1118	0.0015	0.0277	-0.0038	0.8
-0.1006	-0.0015	0.0142	-0.012	0.9
-0.0721	-0.0128	-0.0015	-0.012	0.7
-0.0398	-0.012	-0.0113	-0.0053	0.7
-0.0158	0.0007	-0.0458	0.0015	0.8
-0.0008	0.0052	-0.0518	0.0007	0.7
0.0322	0.0015	-0.0443	0	0.7
0.0465	0.0015	-0.0413	0.003	0.8
-0.0015	0.0082	0.0067	0.0015	0.6
-0.0893	0.0015	0.0592	-0.0015	0.9
-0.0803	-0.0046	0.0945	-0.0046	0.5
-0.0158	-0.0068	0.1095	-0.003	0.5
0.012	-0.0038	0.0997	0.0022	0.6
0.0195	0.0067	0.0765	0.0067	0.6
0.0262	0.0157	0.0502	0.0105	0.6
0.054	0.0135	0.0217	0.0052	0.6
0.0757	0.0052	0.0052	0.0007	0.5
0.0675	0.0037	0.0007	-0.003	0.4
0.015	0.0015	0.009	-0.003	0.6
-0.0458	0.0007	0.0255	-0.003	0.6
-0.0615	-0.0008	0.03	-0.0046	0.4
-0.0488	0.0007	0.0765	-0.0015	0.4
-0.0023	0.0045	0.1717	-0.0023	0.4
0.0637	0.0045	0.2107	0.0007	0.4
0.1192	0.0037	0.18	0.0015	0.2
0.1365	0.0015	0.0802	0	0.4
0.1515	0.0015	-0.0465	0.0007	0.4
0.1485	-0.0113	-0.1538	-0.0023	0.4
0.054	-0.0218	-0.2183	-0.0038	0.4
-0.0293	-0.0158	-0.189	-0.0068	0.4
-0.0675	-0.0135	-0.132	-0.0068	0.4
-0.1133	-0.0113	-0.1065	0.0015	0.3
-0.1741	0.0067	-0.0893	0.0105	0.2
-0.1493	0.018	-0.0691	0.0075	0.1
-0.0638	0.0127	-0.0638	0.0015	0.1
0.0667	-0.0015	-0.0218	-0.0075	0.2
0.1372	-0.015	0.0217	-0.0068	0
0.1462	-0.0091	0.0097	0	0.3
0.189	-0.0015	0.003	0.0067	0.1
0.1215	0.006	0.0015	0.0157	0.1
0.0375	0.0135	-0.0158	0.0142	0.3
-0.0315	0.0097	-0.0293	0.009	0
-0.0848	0.0022	-0.027	0.0022	0.3
-0.1088	-0.0046	-0.0135	-0.0015	0.1
-0.1013	-0.0008	0.009	-0.0068	0.1
-0.0623	-0.0046	0.0157	-0.0113	0.1
-0.0608	-0.0098	0.0142	-0.0091	0.3
-0.054	-0.0023	-0.0128	-0.003	0.2
-0.0458	0.0015	-0.0315	0.0007	0.1
-0.0233	0	0.0097	0.0015	0.2
-0.0143	-0.0008	0.0225	0.0045	0
-0.0278	0.0045	0.0105	0.006	0.2
-0.033	0.0022	-0.0113	0.003	0.1
-0.0585	-0.0053	-0.0346	-0.0053	0
-0.057	-0.0068	0.0105	-0.0083	0.1
-0.0203	-0.012	0.0457	-0.0083	-0.1
0.0082	-0.0091	0.0555	-0.0038	0.1
0.006	0.0007	0.0712	0.0007	0
-0.033	0.0067	0.0652	0.0037	0.1
-0.0713	0.0082	0.057	0.0015	0
-0.057	0.0007	0.06	-0.0008	0
-0.0023	0.0022	0.066	0.0045	-0.1
0.0697	0.0007	0.0067	0	-0.1
0.18	-0.003	-0.0638	0.003	0.1
0.2137	0.0067	-0.0053	0.0097	-0.1
0.0997	0.0097	0.0532	0.0052	-0.1
-0.0165	0.0052	0.0442	0.003	-0.1
-0.0428	0.0015	0.069	-0.0038	-0.2
-0.0405	0	0.0735	-0.0015	0
-0.0495	-0.0008	0.0855	-0.0008	-0.2
-0.0278	-0.006	0.1027	-0.0053	-0.1
-0.0278	-0.0083	0.066	0.0015	-0.1
-0.0165	0.0015	0.039	0.0075	-0.2
0.018	0.0142	0.0345	0.0075	0
0.0165	0.012	0.0157	0.0007	-0.2
-0.0135	0	-0.0256	-0.003	-0.3
-0.0405	-0.0015	-0.042	-0.0046	0
-0.0608	-0.0015	-0.0735	-0.0068	-0.2
-0.0488	-0.0046	-0.1095	-0.0046	-0.2
-0.0091	0.003	-0.1298	0.003	-0.5
-0.0098	0.0127	-0.1418	0.0082	-0.1
-0.0068	0.0142	-0.1065	0.0052	-0.4
-0.0053	0.0082	-0.0728	-0.003	-0.4
-0.0015	-0.0075	0.0022	-0.012	-0.3
-0.0158	-0.0181	0.0697	-0.0128	-0.3
0.0022	-0.0233	0.084	-0.012	-0.3
0.0382	-0.0218	0.0757	-0.0128	-0.4
0.0307	-0.0128	0.0367	-0.0113	-0.2
0.0945	-0.0091	0.0277	-0.0046	-0.5
0.123	0	0.0127	0.0052	-0.2
0.039	0.009	-0.0165	0.0165	-0.4
-0.0218	0.0232	-0.0511	0.024	-0.2
-0.0105	0.0277	-0.0735	0.0157	-0.3
0.0217	0.0105	-0.0308	0.0007	-0.4
0.0855	-0.0105	0.0262	-0.0128	-0.3
0.1065	-0.0278	0.0255	-0.021	-0.3
0.0262	-0.0203	-0.0256	-0.0113	-0.4
-0.0143	0.0052	-0.0233	0.003	-0.4
-0.0218	0.0127	0.0285	0.0097	-0.5
-0.0698	0.0097	0.0202	0.0112	-0.3
-0.0871	0.006	0.012	0.0112	-0.5
-0.0361	0.012	-0.0181	0.0165	-0.4
0.0607	0.0195	-0.0533	0.0157	-0.5
0.0982	0.012	-0.033	0.0097	-0.5
0.036	0.0052	-0.0308	0.0022	-0.4
-0.0068	0.0015	-0.0436	-0.0083	-0.5
-0.0165	-0.0053	-0.0608	-0.0091	-0.2
0.0375	0.0045	-0.0315	-0.0038	-0.5
0.0637	0.0067	0.0202	-0.0046	-0.4
0.0232	-0.0015	0.033	-0.0091	-0.4
-0.0046	-0.0113	0.063	-0.0135	-0.5
-0.0008	-0.0165	0.0975	-0.0098	-0.5
0.027	-0.0053	0.1087	-0.0008	-0.5
-0.0046	-0.0068	0.09	0.0007	-0.5
-0.0555	-0.0083	0.0547	0.0045	-0.5
-0.0871	0.0075	0.0277	0.0082	-0.5
-0.0893	0.009	-0.0105	0.0067	-0.5
-0.066	0.0052	-0.0578	0.0015	-0.6
-0.0256	0.0022	-0.0593	0.0015	-0.5
0.0105	-0.0023	-0.0338	0.0007	-0.7
0.0022	-0.0046	-0.0256	0.0015	-0.4
0.0015	0.0022	-0.0256	0.0052	-0.5
0.0015	0.0112	-0.0346	0.0052	-0.5
-0.0555	0.012	-0.0473	0.0007	-0.8
-0.0998	0.0075	-0.054	-0.0015	-0.6
-0.0833	0.0067	-0.0398	-0.0015	-0.6
-0.0083	0.0022	-0.0173	-0.0053	-0.6
0.0652	-0.0015	-0.0143	0.0007	-0.6
0.0202	0	-0.0308	0.0067	-0.8
-0.0091	-0.0015	-0.0361	0.0052	-0.6
0.0277	-0.0068	-0.003	-0.0023	-0.6
0.0315	-0.0128	0.0277	-0.0083	-0.8
-0.0008	-0.0165	0.0532	-0.0113	-0.5
-0.0308	-0.0143	0.0742	-0.006	-0.6
-0.0563	-0.0015	0.0615	0.006	-0.4
-0.0795	0.0142	0.0367	0.0127	-0.6
-0.093	0.0105	0.006	0.012	-0.5
-0.1253	0.0052	0.0165	0.0052	-0.5
-0.1118	0.0052	0.0315	0	-0.7
-0.0691	-0.0053	0.048	-0.0008	-0.6
-0.0293	-0.0015	0.105	0.0045	-0.8
0.0037	0.0007	0.0615	0.0045	-0.7
-0.0128	0.0022	-0.03	0.0045	-0.8
-0.0338	0.0127	-0.0525	0.003	-0.8
-0.0488	0.0127	-0.0225	0	-0.5
-0.0675	0.0045	0.0502	-0.0068	-0.8
-0.054	-0.012	0.0742	-0.0128	-0.5
-0.0398	-0.015	0.0915	-0.0143	-0.8
-0.0383	-0.0158	0.0832	-0.0113	-0.6
-0.0278	-0.0173	-0.012	-0.0083	-0.7
-0.0015	-0.0143	-0.0443	-0.006	-0.7
0.0577	-0.0091	-0.0181	0.0007	-0.6
0.09	0.0052	-0.0405	0.0052	-1
0.1027	0.0135	-0.0293	0.0045	-0.5
0.1005	0.015	-0.021	0.0045	-0.8
0.0502	0.0097	-0.0315	0.0112	-0.6
-0.03	0.0082	-0.0083	0.0142	-0.8
-0.0856	0.0067	-0.0256	0.006	-0.8
-0.108	0.0007	0.027	-0.0008	-0.7
-0.1508	0.0007	0.0547	-0.006	-0.8
-0.1665	-0.0053	-0.0173	-0.012	-0.7
-0.1628	-0.0083	-0.0143	-0.0158	-0.8
-0.1133	-0.0165	0.018	-0.0203	-0.8
0.0337	-0.0203	0.0555	-0.0158	-0.6
0.1665	-0.0075	0.087	-0.0008	-0.7
0.2557	-0.0015	0.0577	0.0105	-0.6
0.27	0.0045	0.009	0.0187	-0.8
0.2767	0.0202	-0.0323	0.0217	-0.8
0.2557	0.03	-0.0346	0.018	-0.8
0.1012	0.015	0.0097	0.0067	-0.7
-0.0165	0.003	0.0307	-0.0008	-0.7
-0.0653	0.0007	-0.0165	-0.006	-0.8
-0.0953	-0.0046	-0.0668	-0.0128	-0.8
-0.111	-0.0068	-0.0218	-0.0158	-0.7
-0.099	-0.0091	0.0615	-0.0165	-0.7
-0.0691	-0.0143	0.1185	-0.0143	-0.7
-0.0615	-0.0143	0.1027	-0.003	-0.9
-0.027	0.0045	-0.0038	0.0097	-0.6
-0.0383	0.018	-0.012	0.0157	-0.8
-0.0653	0.0165	0.0675	0.012	-0.7
-0.063	0.0075	0.0817	0.0015	-0.7
-0.0233	-0.0008	0.0945	-0.0008	-0.8
0.0967	0.0007	0.0915	0.0007	-0.7
0.273	-0.0015	0.0712	0.0022	-0.8
0.3675	0.0022	0.0727	0.0082	-0.7
0.273	0.0037	0.0255	0.0105	-1
0.1372	0.0045	-0.0361	0.0142	-0.6
0.0202	0.0127	-0.1021	0.0127	-1
-0.015	0.0127	-0.1373	0.003	-0.7
-0.0256	-0.0008	-0.093	-0.0053	-0.8
-0.09	-0.0091	-0.0893	-0.006	-0.8
-0.0803	-0.0053	-0.096	-0.0046	-0.8
-0.0721	-0.0015	-0.0795	-0.0008	-0.8
-0.0878	-0.003	-0.0848	0.0007	-0.8
-0.09	-0.0143	-0.0743	-0.0046	-0.8
-0.0863	-0.0165	-0.06	-0.003	-0.8
-0.0788	-0.0046	-0.0436	-0.003	-0.8
-0.0825	-0.0015	-0.099	-0.0091	-0.9
-0.078	-0.006	-0.1133	-0.0158	-0.8
-0.054	-0.0075	0.0022	-0.0143	-0.7
-0.0398	-0.0068	0.081	-0.003	-0.6
-0.0436	-0.0015	0.1335	0.0052	-0.8
0.0007	0.0052	0.1537	0.009	-0.8
0.0405	0.0045	0.102	0.0082	-0.8
0.063	0.0007	0.0502	0.003	-0.8
0.0892	-0.0053	0.018	-0.0015	-0.7
0.0532	0.0007	0.0105	0.0037	-0.8
0.0172	0.0112	-0.0053	0	-0.8
0.054	0.0007	-0.027	-0.0083	-0.8
0.0675	-0.0015	-0.045	0.0007	-1
0.0195	0.0112	-0.063	0.0082	-0.7
-0.0053	0.0097	-0.0443	0.0045	-0.9
-0.0323	0.0022	0.0105	0.0045	-0.6
-0.0428	0.0045	0.0802	0.0067	-0.8
-0.0518	0.0112	0.1237	0.003	-0.8
-0.0375	0.0067	0.114	-0.0015	-0.8
-0.012	0.003	0.0592	-0.0008	-0.9
-0.0105	0.0045	0.0045	0.003	-0.8
-0.0015	0.0037	-0.0405	0.0075	-0.8
-0.063	0.0015	-0.0638	0.0052	-0.6
-0.1103	-0.0008	-0.081	0.0007	-0.8
-0.1995	-0.0091	-0.1006	-0.006	-0.8
-0.2468	-0.0195	-0.0915	-0.0128	-0.9
-0.1448	-0.015	-0.0713	-0.0143	-0.8
0.0052	-0.006	-0.0361	-0.0128	-0.8
0.1447	-0.0098	0.0187	-0.015	-0.9
0.1207	-0.0098	0.0547	-0.0091	-0.8
0.105	-0.0046	0.0975	-0.0015	-0.8
0.108	0.0067	0.2032	0.0097	-0.8
0.0442	0.0217	0.258	0.0142	-0.7
-0.0083	0.0157	0.1882	0.0105	-0.8
-0.0683	0.012	0.0637	0.0045	-0.7
-0.066	0.0052	-0.0428	-0.0068	-0.9
-0.003	-0.0023	-0.1163	-0.0068	-0.7
0.0742	0.003	-0.21	-0.0023	-0.9
0.069	0.0067	-0.2963	0.0045	-0.8
0.0082	0.0135	-0.2595	0.0067	-0.9
-0.0128	0.0165	-0.126	0.0067	-0.9
0.0555	0.0135	-0.039	0.0052	-0.8
0.1582	0.009	0.0735	0.0007	-0.8
0.18	-0.0008	0.1597	-0.0023	-0.9
0.1312	-0.0113	0.1605	-0.006	-0.7
0.0547	-0.0165	0.147	-0.0053	-0.9
0.0127	-0.0173	0.1012	-0.0023	-0.7
-0.0908	-0.0105	0.0967	0.003	-1
-0.1853	0.0015	0.0885	0.003	-0.7
-0.1635	0.0007	0.0705	0.0045	-0.9
-0.1155	0.003	0.0712	0.0052	-0.8
-0.09	0.0022	0.0697	0.0007	-0.7
-0.1118	-0.0046	0.072	-0.0023	-0.9
-0.0833	-0.0053	0.0517	-0.003	-0.7
0.018	-0.0091	0.0435	-0.0015	-0.9
0.12	-0.0135	0.0195	-0.003	-0.8
0.1672	-0.0113	-0.0135	0.0022	-0.8
0.1275	-0.0015	-0.0405	0.0037	-0.8
0.0982	-0.0008	-0.045	0.003	-0.8
0.027	0.009	-0.0233	0.0127	-0.9
-0.0443	0.0217	-0.0353	0.0112	-0.7
-0.0428	0.0202	-0.0428	0.0097	-0.8
-0.0773	0.0202	0.006	0.0067	-0.7
-0.0735	0.0082	0.051	-0.0023	-0.9
-0.0803	-0.0083	0.0877	-0.0068	-0.7
-0.075	-0.024	0.1042	-0.012	-0.8
-0.0428	-0.0293	0.0195	-0.0091	-0.9
-0.0285	-0.0083	-0.1995	-0.0046	-0.8
-0.0008	0.0067	-0.4178	0.0015	-0.9
-0.0315	0.009	-0.2903	0.0052	-0.7
-0.0893	0.0097	-0.0338	0.0007	-0.9
-0.0706	0.0015	0.108	-0.0046	-0.9
0.0277	-0.012	0.2835	-0.0105	-0.8
0.0705	-0.0091	0.3255	-0.0068	-0.8
0.045	0.0015	0.2782	-0.0015	-0.9
-0.0315	0.003	0.1665	-0.0068	-1
-0.105	-0.006	0.06	-0.012	-1
-0.0893	-0.0135	0.0232	-0.0098	-0.8
0.0052	-0.012	-0.0091	-0.0075	-1
0.1747	-0.0038	0.0045	0.0045	-0.8
0.258	0.0112	-0.0346	0.024	-0.9
0.0855	0.0307	-0.0653	0.0345	-0.8
-0.1313	0.0322	-0.0893	0.0225	-0.9
-0.1756	0.0157	-0.1028	0.0067	-1
-0.0728	0.0067	-0.0233	-0.0015	-0.8
0.09	-0.0105	0.057	-0.012	-1
0.1612	-0.0188	0.0727	-0.0083	-0.7
0.1327	-0.0053	0.0517	-0.0015	-0.8
0.018	0.003	-0.0008	0.0045	-0.9
-0.1013	0.0022	-0.0848	0.0045	-0.9
-0.1388	0.0007	-0.1148	0.003	-0.9
-0.1365	0.0082	-0.1238	0.0052	-0.8
-0.0563	0.012	-0.129	0.0022	-1
0.0585	0.0105	-0.09	-0.0046	-0.8
0.1155	0.0045	-0.0158	-0.0128	-0.9
0.084	-0.0091	0.051	-0.0128	-1
0.1275	-0.0105	0.045	-0.0046	-0.9
0.1912	-0.0083	0.0232	0.0007	-0.9
0.1627	-0.0053	-0.03	0.0067	-0.8
0.0495	0	-0.0638	0.0097	-0.9
-0.1125	0.0052	-0.0893	0.0082	-0.9
-0.1448	0.0142	-0.189	0.0127	-1
-0.1058	0.018	-0.15	0.0142	-1
-0.027	0.018	0.0157	0.0052	-0.9
0.0645	0.0067	0.0765	-0.0046	-0.9
0.0412	-0.0091	0.1117	-0.015	-0.8
0.0292	-0.0165	0.12	-0.0195	-0.9
0.102	-0.021	0.048	-0.0173	-1
0.1702	-0.0165	0.0375	-0.0098	-0.9
0.147	-0.0075	0.0262	0.0007	-1
0.0555	-0.0023	0.003	0.0045	-0.9
0.0127	0.003	0.0202	0.0045	-0.9
-0.006	0.0105	0.0277	0.003	-0.9
-0.0615	0.0135	0.0442	0	-1
-0.1155	-0.0008	0.0442	-0.0068	-0.9
-0.1478	-0.0068	0.0142	-0.006	-0.9
-0.1455	0.003	-0.0143	-0.0053	-1
-0.1635	0.0052	-0.0803	-0.0053	-0.8
-0.2055	0.0075	-0.1485	-0.0046	-1
-0.1358	0.0045	-0.0436	-0.012	-0.9
0.0277	-0.0128	0.0817	-0.0046	-0.9
0.2272	-0.0053	0.0465	0.0105	-1
0.3652	0.0052	0.0382	0.003	-0.8
0.264	-0.0083	0.0667	-0.0083	-1.1
0.1087	-0.0158	0.0697	-0.006	-0.9
0.0292	-0.0143	0.0667	-0.0046	-1
-0.0691	-0.0195	0.0442	-0.0046	-0.8
-0.114	-0.0135	0.0322	0	-1
-0.1635	0.003	0.0195	0.0067	-0.9
-0.189	0.0127	-0.0098	0.0082	-1.1
-0.1328	0.0082	-0.0428	0.0082	-1
-0.06	0.0022	-0.057	0.0082	-1
0.0382	0.0007	-0.0428	0.0075	-1
0.084	0.0075	-0.0555	0.0157	-0.9
-0.0075	0.0202	-0.0743	0.012	-1.1
-0.1028	0.012	-0.0188	0.0015	-1.3
-0.0856	0.0052	0.0427	-0.0023	-1
-0.0706	0.003	0.0675	-0.006	-1
-0.063	-0.0091	0.1012	-0.0091	-1
-0.0428	-0.0113	0.0967	-0.0091	-1
0.0352	-0.0091	0.0517	-0.0015	-1
0.1597	-0.0053	0.0165	0.0015	-1
0.1927	-0.0083	-0.0143	0.0022	-1.1
0.078	-0.0053	-0.0713	0.0052	-0.9
-0.0503	0.0045	-0.0563	0.0082	-1.1
-0.0953	0.0045	0	0.0067	-1
-0.1358	0.006	0.0277	-0.0023	-1.1
-0.1178	0.003	0.0562	-0.0083	-1
-0.0885	0.0022	0.0795	-0.0068	-1.2
0.0075	0.0052	0.096	-0.0068	-1.2
0.063	0.0007	0.0465	-0.0075	-1.2
-0.0143	0.0022	0.0015	-0.0068	-1.1
-0.0555	-0.003	-0.03	-0.0075	-1.2
-0.0308	-0.0098	-0.0458	-0.0015	-1.2
0.0382	-0.0068	-0.0518	0.0022	-1.2
0.0667	-0.0098	-0.0765	0.0015	-1
0.12	-0.0083	-0.0518	0.0015	-1.2
0.1702	0.0067	-0.015	0.003	-1
0.1132	0.0217	-0.0008	0.0045	-1.3
0.0405	0.0172	0.0127	0.0007	-1
0.024	0.006	0.0045	-0.003	-1.3
0.009	0.0067	-0.033	-0.0008	-1.1
-0.045	0.0157	0.003	0.0082	-1.3
-0.0533	0.0292	0.075	0.0127	-1.2
-0.0323	0.021	0.0975	0.0075	-1.3
-0.003	0.006	0.0952	0.0075	-1.1
0.0105	0.0045	0.0937	0.0105	-1.1
-0.0706	0.0045	0.1065	0.0135	-1.2
-0.1426	0.0052	0.0907	0.012	-1.2
-0.1613	0.0015	0.0495	0.003	-1.1
-0.0908	-0.0015	0.0112	0.0007	-1.1
0.0817	0.0045	0.0382	0.0007	-1.2
0.129	0.009	0.084	-0.003	-1.2
0.021	0.0052	0.051	-0.0091	-1.3
-0.1223	-0.0038	-0.0218	-0.012	-1.1
-0.2258	-0.0128	-0.1485	-0.0091	-1.4
-0.1515	-0.0218	-0.2708	-0.0091	-1.1
0.132	-0.0368	-0.1913	-0.0181	-1.3
0.4335	-0.045	-0.0518	-0.0165	-1.2
0.4882	-0.03	-0.0105	-0.0008	-1.4
0.267	-0.0128	0.0457	0.0105	-1.1
0.075	0.0007	0.027	0.015	-1.3
-0.033	0.0075	0.0007	0.0112	-1.2
-0.1868	0.012	0.009	0.0082	-1.3
-0.2483	0.012	-0.0218	-0.0015	-1.2
-0.2385	0.0037	0.0007	-0.0083	-1.4
-0.18	-0.0015	0.0405	-0.0053	-1.2
0.0427	-0.0053	0.054	-0.006	-1.2
0.2655	0.0015	-0.0563	-0.0046	-1.4
0.2572	0.0052	-0.1665	-0.0015	-1.4
0.018	-0.0046	-0.09	-0.0015	-1
-0.1403	-0.0083	0.0502	-0.0046	-1.4
-0.063	-0.006	0.1627	-0.0075	-1.2
0.0637	-0.0165	0.1935	-0.006	-1.4
0.1215	-0.0225	0.1402	0.0015	-1.2
0.0345	-0.0105	0.069	0.003	-1.2
-0.0728	-0.0068	0.0562	-0.0015	-1.2
-0.0743	0.0007	0.078	0.003	-1.1
-0.0608	0.0007	0.06	-0.0015	-1.4
-0.0413	-0.0083	0.0015	0.0007	-1.4
-0.0338	0.0112	-0.0968	0.0142	-1.4
-0.03	0.0277	-0.1298	0.0157	-1.3
-0.0158	0.0195	-0.0645	0.012	-1.4
-0.0368	0.027	-0.0105	0.0112	-1.4
-0.0375	0.036	-0.0203	0.0037	-1.4
-0.0293	0.0232	-0.1125	0	-1.4
-0.0893	0.0202	-0.2265	0.0015	-1.3
-0.1215	0.006	-0.2535	-0.0046	-1.3
-0.0893	-0.015	-0.1778	-0.0083	-1.4
-0.0203	-0.0218	0.0382	-0.0105	-1.1
0.0457	-0.0256	0.1882	-0.0091	-1.4
0.042	-0.0225	0.1882	-0.006	-1.3
-0.015	-0.0195	0.1815	0.003	-1.4
-0.0893	-0.0046	0.1185	0.0067	-1.3
-0.0825	0.006	0.1222	-0.0008	-1.4
-0.0068	-0.003	0.1162	-0.0053	-1.3
0.087	-0.0091	0.0757	-0.0053	-1.4
0.1575	-0.0128	0.0435	0.0015	-1.4
0.1702	-0.0068	-0.024	0.0045	-1.4
0.0997	0.0007	-0.054	0.0052	-1.4
0.0015	0.0075	-0.1688	0.009	-1.4
-0.003	0.0232	-0.2498	0.0075	-1.3
-0.0068	0.0217	-0.21	0.0015	-1.3
-0.0293	0.0097	-0.1065	-0.003	-1.1
-0.015	-0.0015	0.048	-0.0091	-1.5
0.012	-0.0135	0.1447	-0.0143	-1.1
-0.0068	-0.0143	0.1365	-0.0165	-1.4
-0.063	-0.0098	0.063	-0.012	-1.4
-0.1028	0	0.0285	-0.0053	-1.3
-0.084	0.0045	0.0195	-0.0023	-1.4
-0.0405	0.0067	0.0082	0.0015	-1.1
-0.0225	0.012	-0.0053	0.0082	-1.4
-0.0638	0.0105	-0.0293	0.009	-1.5
-0.1703	0.0097	-0.003	0.0037	-1.3
-0.243	-0.0015	0.0532	-0.0008	-1.3
-0.2108	-0.0083	0.087	0.003	-1.2
-0.1193	-0.0015	0.1057	0.0045	-1.3
-0.012	0.0082	0.1177	0	-1.3
0.099	0.0097	0.0697	-0.0098	-1.4
0.2212	-0.0135	0.012	-0.0158	-1.3
0.2505	-0.0128	0.0172	0	-1.2
0.0975	0.0082	-0.012	0.0142	-1.5
0.0142	0.0165	-0.0675	0.0187	-1.3
0.036	0.021	-0.0893	0.0157	-1.5
0.033	0.0157	-0.0998	0.0067	-1.3
0.0585	0.0097	-0.0968	-0.003	-1.6
0.1275	0.0052	-0.0495	-0.0098	-1.3
0.1867	-0.0053	0.0705	-0.0128	-1.4
0.1777	-0.015	0.1185	-0.0165	-1.5
0.1695	-0.0218	0.0577	-0.0075	-1.4
0.1312	-0.0135	0.0502	0.0015	-1.4
0.0157	-0.0046	0.0547	0.0015	-1.3
-0.0346	0	0.0742	-0.0008	-1.5
-0.0638	0.003	0.036	0.0022	-1.4
-0.1148	0.0052	-0.0773	0.0082	-1.4
-0.129	0.0142	-0.027	0.0097	-1.4
-0.1373	0.0217	-0.0105	0.0105	-1.5
-0.1095	0.0135	-0.0555	0.0067	-1.5
-0.0308	-0.0015	-0.0195	0.0097	-1.4
-0.0195	0.0037	-0.0488	0.009	-1.6
-0.0165	0.0067	-0.0405	-0.003	-1.4
0.042	-0.0068	0.0127	-0.0105	-1.4
-0.0158	-0.0053	0.0652	-0.0068	-1.4
-0.129	-0.0053	0.0915	0	-1.5
-0.225	0.0007	0.024	0.0007	-1.5
-0.1898	0.0015	-0.0143	-0.0075	-1.5
-0.039	-0.0256	-0.033	-0.0068	-1.6
0.0787	-0.03	-0.0743	0.0045	-1.5
0.2055	-0.0143	-0.15	0.0105	-1.5
0.2295	0.0007	-0.159	0.009	-1.5
0.1327	-0.0046	-0.0203	-0.0023	-1.4
0.0547	-0.0181	0.0397	-0.0068	-1.5
0.0232	-0.0075	0.0667	0.003	-1.3
0.0052	0.0045	0.1042	0.0052	-1.5
0.0112	0.006	0.0795	-0.0008	-1.4
0.0067	0.009	0.0705	0.0022	-1.6
-0.0195	0.0142	0.057	0	-1.4
-0.0091	0.0082	0.0592	-0.0091	-1.4
0.0382	-0.0015	0.0472	-0.0091	-1.6
0.0585	-0.0015	0.0195	-0.0053	-1.4
0.0112	-0.0008	0.0412	-0.0068	-1.3
-0.0375	-0.003	0.0915	-0.0083	-1.5
-0.042	0.0007	0.0975	-0.003	-1.6
-0.0495	0.0082	0.0705	0.003	-1.6
-0.1673	0.021	0.0202	0.0067	-1.5
-0.2573	0.0292	-0.0383	0.009	-1.6
-0.1815	0.0157	-0.0878	0.0022	-1.5
-0.0068	0	-0.12	-0.0046	-1.6
0.1815	-0.0173	-0.0825	-0.0008	-1.5
0.2287	-0.0278	-0.0353	0.0007	-1.5
0.1822	-0.0278	0.0015	-0.0023	-1.5
0.1372	-0.0256	-0.0458	-0.003	-1.5
0.06	-0.0046	-0.189	0.0067	-1.7
-0.0368	0.0135	-0.1673	0.0157	-1.4
-0.0615	0.009	-0.0315	0.0052	-1.7
-0.0503	0.0067	0.0277	0.003	-1.5
-0.0698	0.012	0.0352	0.0022	-1.4
-0.1463	0.0127	-0.0765	-0.0046	-1.6
-0.2723	0.006	-0.099	-0.0075	-1.6
-0.3203	0.0037	0.1177	-0.0128	-1.6
-0.2243	0.0075	0.2445	-0.012	-1.4
-0.012	0.0105	0.2917	-0.0113	-1.6
0.159	0.0105	0.2992	-0.0091	-1.5
0.1597	0.0045	0.207	-0.0038	-1.5
0.0682	0.0015	0.084	0.0082	-1.6
0.069	-0.0008	-0.0518	0.0105	-1.4
0.1462	-0.0143	0.0007	0.0015	-1.7
0.2392	-0.0218	0.1395	-0.0038	-1.5
0.243	-0.0105	0.129	0.0007	-1.6
0.129	0.0052	0.0427	0.0097	-1.6
0.0172	0.0105	-0.0428	0.0105	-1.7
-0.0765	0.0052	-0.0968	0.0037	-1.6
-0.0555	-0.0008	-0.1418	0.0015	-1.7
-0.0195	0.0007	-0.1778	0.009	-1.6
0.006	0.0045	-0.1658	0.0157	-1.6
0.0217	0.0135	-0.123	0.018	-1.5
-0.0075	0.0142	-0.042	0.0142	-1.6
-0.015	0.0127	0.0367	0.0082	-1.6
-0.063	0.0127	0.066	0.003	-1.7
-0.1178	0.0045	0.0772	0	-1.6
-0.1013	-0.0015	-0.0068	-0.003	-1.6
0.0292	-0.0068	-0.063	-0.0105	-1.5
0.099	-0.0038	-0.0203	-0.0158	-1.8
-0.0233	-0.0083	-0.0165	-0.0203	-1.6
-0.1718	-0.0195	-0.1178	-0.0188	-1.5
-0.1823	-0.0218	-0.2145	-0.0165	-1.7
-0.0338	-0.0375	-0.1373	-0.024	-1.6
0.1582	-0.0443	-0.0548	-0.0195	-1.7
0.2047	-0.0181	-0.0375	0.009	-1.6
0.057	0.018	-0.0203	0.0232	-1.6
-0.0465	0.0217	-0.0533	0.018	-1.5
-0.0165	0.0202	-0.078	0.018	-1.4
0.0195	0.0225	-0.057	0.012	-1.8
-0.012	0.009	-0.0233	0.0022	-1.4
-0.1006	0.0007	0.0307	-0.0046	-1.6
-0.1778	-0.0053	0.0652	-0.0091	-1.4
-0.1988	0.0015	0.0577	-0.0091	-1.7
-0.162	0.0052	0.0502	-0.0105	-1.6
-0.06	0.0007	0.051	-0.0158	-1.6
0.0787	-0.0091	0.0675	-0.0195	-1.6
0.1672	-0.0158	0.1492	-0.0083	-1.6
0.1627	0.0022	0.213	0.009	-1.6
0.09	0.018	0.1777	0.0157	-1.5
0.0345	0.0285	0.117	0.0232	-1.8
0.0562	0.0255	0.0292	0.0195	-1.6
0.084	0.003	0.0082	0.0097	-1.5
0.0615	0.0007	0.0487	0.006	-1.6
0.0465	0.0015	0.0577	0.0007	-1.5
0.0277	-0.0008	0.0442	-0.0023	-1.6
-0.012	-0.0023	-0.0361	-0.0053	-1.6
-0.0338	-0.0091	-0.1028	-0.006	-1.6
-0.0885	-0.0135	-0.1575	-0.0105	-1.6
-0.1215	-0.021	-0.1943	-0.0195	-1.6
-0.084	-0.021	-0.1365	-0.024	-1.6
-0.0143	-0.0225	-0.0165	-0.0173	-1.5
0.0495	-0.0158	0.0787	0.0007	-1.7
0.0255	0.012	0.0997	0.0217	-1.5
-0.0563	0.039	0.066	0.0277	-1.5
-0.1778	0.0442	-0.0428	0.018	-1.6
-0.252	0.0322	-0.1448	0.0127	-1.8
-0.2213	0.0195	-0.0788	0	-1.8
-0.1118	-0.0038	0.033	-0.0135	-1.6
0.0817	-0.0248	0.075	-0.0105	-1.5
0.2497	-0.024	0.1005	-0.0053	-1.6
0.2955	-0.0158	0.0487	0.0022	-1.5
0.1335	-0.0083	0.0172	-0.0008	-1.6
-0.0113	-0.0165	0.0577	-0.0113	-1.5
-0.0361	-0.0278	0.1155	-0.0128	-1.8
-0.1118	-0.0158	0.1627	-0.0091	-1.4
-0.1163	0.0052	0.102	-0.006	-1.7
-0.0398	0.009	0.024	0	-1.4
0.0555	0.0142	0.0622	0.0082	-1.6
0.1147	0.0105	0.1365	0.0045	-1.6
0.0847	-0.0068	0.1552	-0.003	-1.6
0.027	-0.0083	0.0682	0.0045	-1.7
-0.1043	0.0097	-0.075	0.0195	-1.6
-0.2851	0.024	-0.0945	0.0082	-1.6
-0.2693	0.0082	-0.0728	-0.0105	-1.6
-0.0165	-0.0143	-0.0293	-0.0091	-1.7
0.243	-0.0091	0.1012	-0.0008	-1.6
0.3705	-0.0053	0.1297	0.0097	-1.6
0.2745	-0.0083	0.015	0.0165	-1.6
0.111	-0.0008	-0.0968	0.0202	-1.7
0.0352	0.015	-0.1275	0.021	-1.7
-0.0511	0.021	-0.1178	0.015	-1.6
-0.084	0.0112	-0.0743	0.0022	-1.6
-0.0691	0.0045	-0.042	-0.0083	-1.8
-0.0091	0.0052	-0.0803	-0.0046	-1.6
0.1417	0.0127	-0.0533	-0.003	-1.6
0.1312	0.0112	0.0562	-0.0068	-1.6
0.0187	0.0082	0.1117	-0.0083	-1.7
-0.06	0.0142	0.1215	-0.012	-1.5
-0.1328	0.0067	0.0802	-0.0098	-1.4
-0.084	-0.0038	0.0015	-0.0091	-1.5
-0.0143	-0.0128	-0.0578	-0.0098	-1.6
0.0037	-0.0143	-0.1125	-0.0113	-1.8
0.0127	-0.0181	-0.1275	-0.0105	-1.6
0.0195	-0.0181	-0.054	0	-1.7
0.0352	-0.0068	-0.0465	0.0067	-1.7
0.0217	0.0015	-0.1275	0.0127	-1.6
-0.0053	0.0015	-0.0615	0.015	-1.7
0.0052	0.003	0.0885	0.0195	-1.5
0.027	0.0172	0.1755	0.024	-1.8
0.0285	0.0202	0.222	0.0135	-1.6
-0.0083	0.0052	0.1417	0.0015	-1.6
-0.0818	-0.0113	-0.0383	-0.0068	-1.6
-0.1898	-0.0181	-0.0818	-0.0068	-1.7
-0.2843	-0.0128	-0.0181	-0.0091	-1.4
-0.219	-0.0173	0.0382	-0.0135	-1.7
-0.0091	-0.0113	0.0922	-0.0105	-1.7
0.1837	-0.0015	0.1027	-0.0068	-1.6
0.1447	-0.0008	0.1402	0.0015	-1.6
-0.015	-0.003	0.0922	-0.0015	-1.6
0.0105	-0.0128	-0.024	-0.0023	-1.6
0.0952	-0.0046	-0.0473	0.0052	-1.6
0.0855	0.009	-0.117	0.009	-1.7
0.0367	0.0165	-0.1455	0.0082	-1.6
-0.0068	0.0142	-0.12	-0.0008	-1.6
-0.0465	0.0022	-0.1028	-0.006	-1.8
-0.0856	-0.0023	-0.0623	-0.0098	-1.6
-0.1433	-0.0053	-0.0548	-0.0046	-1.6
-0.2055	0.0015	-0.057	-0.0008	-1.7
-0.1253	0.0007	-0.0863	-0.003	-1.6
0.0405	0.0037	-0.081	-0.003	-1.8
0.1365	0.0097	-0.0278	-0.0015	-1.6
0.129	0.0082	0.0315	-0.0015	-1.6
0.102	0.0007	0.0667	-0.0091	-1.6
0.1342	-0.0135	0.0285	-0.0135	-1.7
0.1342	-0.0165	-0.0083	-0.0113	-1.9
0.042	-0.0188	0.0112	-0.0046	-1.7
-0.039	-0.0181	-0.0068	0.0015	-1.9
-0.0428	-0.0128	0.0022	0.0067	-1.6
-0.0353	0.0075	0.1312	0.0142	-1.7
-0.012	0.015	0.1747	0.0157	-1.8
0.0217	0.0097	0.1755	0.0165	-1.6
0.018	0.0157	0.1125	0.0157	-1.8
-0.0436	0.0135	-0.0743	0.009	-1.7
-0.135	0.012	-0.2198	-0.003	-1.9
-0.1163	0.0135	-0.3008	-0.0008	-1.7
-0.0015	0.0217	-0.1845	0.0045	-1.9
0.1072	0.0255	-0.0436	-0.0008	-1.7
0.0862	0.0075	0.1477	-0.0068	-1.7
0.0007	-0.0083	0.4042	-0.0158	-1.7
-0.0263	-0.0181	0.354	-0.015	-1.6
-0.042	-0.0225	0.2617	-0.0098	-1.8
-0.0675	-0.0278	0.135	-0.0091	-1.7
-0.0713	-0.0285	-0.093	-0.0083	-1.8
0.0292	-0.0165	-0.3705	-0.0053	-1.7
0.1027	-0.0098	-0.5333	0.0075	-1.8
0.078	0.003	-0.2895	0.0127	-1.9
0.0825	0.0067	-0.147	0.003	-1.8
0.0892	-0.0038	-0.0668	-0.0075	-1.8
0.1372	-0.0128	0.1297	-0.0128	-1.7
0.1965	-0.0158	0.186	-0.0068	-1.8
0.0967	0.0022	0.2032	0.0082	-1.8
-0.027	0.027	0.1507	0.0202	-1.9
-0.0653	0.045	0.006	0.0202	-1.8
-0.063	0.0367	-0.0105	0.009	-1.7
-0.0158	0.0165	0.0622	0.0015	-1.7
-0.012	0.006	0.0442	0.0082	-1.8
-0.1426	-0.003	0.0817	0.0142	-1.6
-0.3788	-0.003	0.1027	0.0082	-1.9
-0.42	0.003	0.0825	0.0015	-1.7
-0.1245	-0.003	0.1035	-0.0046	-1.8
0.2475	-0.0128	0.0742	-0.0015	-1.6
0.3675	-0.0075	0.0652	0.003	-1.9
0.2137	-0.0083	0.0577	-0.003	-1.7
0.0967	-0.0181	0.0352	-0.0105	-1.7
-0.027	-0.0188	0.006	-0.012	-1.8
-0.114	-0.0068	0.0285	-0.0068	-1.7
-0.0953	0.0052	0.0952	-0.0068	-1.8
-0.0915	0.0045	0.1132	-0.0143	-1.8
-0.0878	0.0007	0.1035	-0.0143	-1.8
-0.1418	0.003	0.063	-0.0105	-1.8
-0.1193	-0.003	0.0172	-0.0098	-1.8
-0.0713	0.0015	-0.0308	0.0052	-1.8
0.027	0.0232	-0.0856	0.0202	-1.9
0.2572	0.0277	-0.12	0.012	-1.8
0.3975	0.0015	-0.156	-0.0008	-1.8
0.3772	-0.0165	-0.195	0.0007	-1.9
0.1365	-0.0105	-0.1523	0.0075	-1.8
-0.123	-0.0181	-0.0338	0.0015	-1.9
-0.1756	-0.0098	0.0967	0.0052	-1.8
-0.1013	0.009	0.1635	0.0075	-1.8
0.0225	0.0067	0.0817	0.0052	-1.9
0.0495	0.018	-0.033	0.0052	-1.8
-0.0278	0.0232	-0.0743	0	-1.8
-0.0706	0.0225	-0.1028	-0.0008	-1.8
-0.0825	0.0142	-0.1523	-0.0091	-1.9
-0.0915	-0.0046	-0.228	-0.0143	-1.9
-0.078	-0.0098	-0.231	-0.0135	-1.8
-0.084	-0.0158	-0.0818	-0.0113	-1.8
-0.0713	-0.021	0.0787	-0.0091	-1.7
-0.0015	-0.0233	0.1807	-0.012	-1.8
0.081	-0.0248	0.1597	-0.012	-1.7
0.1777	-0.0181	0.0352	-0.0015	-1.8
0.1747	-0.006	-0.0233	0.0225	-1.8
0.0442	0.003	-0.0068	0.0262	-1.8
-0.042	0.0082	0.0067	0.0157	-1.8
-0.0878	0.0172	0.0292	0.0127	-1.7
-0.1373	0.018	0.0922	0.006	-2
-0.1463	0.0165	0.0742	0.0007	-1.8
-0.1448	0.0135	0.0247	-0.0083	-1.9
-0.1545	0.0075	-0.039	-0.0075	-1.8
-0.1275	0.018	-0.0728	0.0022	-1.8
0.0067	0.018	0.0502	-0.0023	-1.8
0.1402	-0.0046	0.1312	-0.0091	-1.8
0.129	-0.0256	0.009	-0.0158	-1.8
0.0855	-0.0308	-0.159	-0.0091	-1.8
0.0562	-0.03	-0.2213	0.003	-1.9
-0.0135	-0.0165	-0.1065	0.0067	-1.9
-0.075	0.0007	0.0967	0.003	-1.8
-0.1298	0	0.1537	-0.0008	-1.9
-0.1411	0.0067	0.147	0.0045	-1.8
-0.054	0.024	0.1447	0.009	-2
0.09	0.0352	0.0975	0.0075	-1.7
0.1372	0.021	0.003	0.0007	-2
0.063	-0.0015	-0.045	-0.0053	-1.9
-0.0533	-0.0105	-0.0008	-0.0158	-1.8
-0.1875	-0.0165	0.009	-0.0195	-1.9
-0.1441	-0.0181	-0.0383	-0.015	-1.9
0.081	-0.0105	-0.222	0	-1.9
0.2257	0.0105	-0.2183	0.0195	-1.9
0.1005	0.0202	0.0105	0.0217	-1.9
0.0217	0.0142	0.117	0.0112	-1.9
0.1117	0.0127	0.2347	0.009	-1.9
0.1327	0.0105	0.2287	0.009	-2
0.1905	0.003	0.1695	0.0067	-1.8
0.192	-0.0023	0.1515	0.009	-1.8
0.1245	-0.0023	0.0667	0.003	-1.8
-0.027	-0.0165	0.0082	-0.003	-2
-0.1748	-0.0285	-0.0863	-0.0038	-2
-0.1133	-0.015	-0.1815	0.003	-1.8
0.0232	0.0082	-0.1635	0.0067	-1.9
0.03	0.0105	-0.0458	0.0007	-1.8
-0.1163	0.003	0.0442	-0.0046	-2
-0.1635	0.0007	0.105	-0.0105	-1.9
-0.1568	-0.0053	0.0825	-0.0143	-1.9
-0.1426	-0.0083	0.0315	-0.0091	-1.9
-0.0338	-0.0015	-0.0008	-0.0008	-1.9
0.0742	0.0007	-0.0563	0.003	-2.1
0.1515	-0.0046	-0.096	0.0015	-1.8
0.1897	-0.0053	-0.1215	0	-1.9
0.114	0.0007	-0.054	-0.0008	-1.9
-0.0346	0	0.0202	-0.003	-2
-0.1275	0.0022	0.0892	-0.0038	-1.9
-0.1696	0.0127	0.105	-0.0015	-1.9
-0.1178	0.0202	0.0532	-0.0046	-2
-0.0233	0.0105	0.0097	-0.0053	-1.8
0.0517	-0.0083	-0.0638	-0.0098	-2.1
0.09	-0.0128	-0.0825	-0.0083	-1.8
0.0922	-0.0165	-0.021	-0.0053	-1.9
0.1042	-0.0181	0.0427	-0.0068	-1.8
0.108	-0.0128	0.0285	0	-1.9
0.0172	0.003	-0.1118	0.0105	-2.1
-0.1928	0.018	-0.2573	0.0195	-1.9
-0.291	0.0195	-0.2821	0.0157	-1.9
-0.2145	0.015	-0.195	0.0052	-1.8
-0.0278	0.0045	0.087	-0.0023	-1.8
0.0157	-0.0008	0.315	-0.0046	-2
-0.1703	0.006	0.3517	-0.0068	-2
-0.267	0.006	0.3	-0.0105	-2
-0.1793	-0.0008	0.204	-0.0083	-1.9
0.0555	0.0022	0.1665	-0.0053	-1.9
0.2902	0.0022	0.012	-0.003	-1.8
0.3217	-0.0075	-0.1485	-0.0068	-1.9
0.1297	-0.012	-0.2183	-0.0098	-2
-0.0105	-0.0053	-0.195	-0.0008	-1.9
-0.0728	0.0067	-0.0795	0.009	-2
-0.1568	0.0165	0.0157	0.0127	-1.9
-0.1396	0.0217	0.114	0.0135	-1.9
-0.0473	0.0165	0.1065	0.0075	-1.9
0.1972	-0.0083	0.0945	-0.003	-1.9
0.5175	-0.03	0.0637	-0.003	-2
0.5512	-0.0375	-0.0533	0.0015	-1.8
0.2835	-0.0256	-0.0713	0.0105	-2
0.1087	0.0007	-0.1088	0.0157	-1.9
0.0232	0.012	-0.1396	0.0067	-1.9
-0.0668	0.0007	-0.0675	-0.0015	-1.9
-0.0878	0.009	-0.0308	0.003	-2
-0.1441	0.03	0.0052	0.009	-1.9
-0.1696	0.03	0.0427	0.0112	-1.9
-0.234	0.0187	0.0412	0.0097	-2
-0.237	0.009	0.045	0.0052	-1.9
-0.129	-0.0008	0.0405	0	-1.9
-0.0465	-0.0053	0.033	-0.0008	-2
-0.0638	-0.0046	0.0262	-0.0083	-1.8
-0.162	-0.0105	0.0352	-0.021	-2
-0.1575	-0.0098	0.033	-0.0195	-1.8
-0.078	-0.0083	-0.0023	-0.0203	-1.9
0.018	-0.0165	-0.027	-0.012	-1.8
0.012	-0.0135	-0.0248	-0.0046	-2.1
-0.0593	-0.012	-0.0195	-0.0053	-1.8
-0.0615	-0.006	-0.0046	-0.0015	-1.9
0.048	0.0052	0.0442	0.0052	-1.9
0.1552	0.0187	0.0397	0.012	-1.9
0.1357	0.018	-0.0256	0.0082	-2
0.0937	0.0052	-0.042	0.0015	-1.9
0.0502	-0.003	0.0502	-0.0068	-2
0.0007	-0.021	0.0915	-0.0068	-1.9
-0.0691	-0.021	0.042	-0.0046	-2
-0.0893	-0.0143	0.0607	-0.0105	-1.9
-0.0346	-0.0218	0.0712	-0.012	-1.9
0.0217	-0.012	0.042	0.0037	-2
0.057	0.0105	-0.0233	0.0127	-1.9
0.027	0.0232	-0.1245	0.0127	-1.8
0.0442	0.0405	-0.2041	0.0195	-2
0.0615	0.051	-0.24	0.0127	-1.9
-0.0015	0.0307	-0.1448	0.0015	-2.1
-0.0128	0.0015	0.0832	-0.006	-1.8
