File Name: Marcha.log
Channel 4: 'Recto Femoral', 15725 values, engineering units: mV, no filters.
Channel 5: 'Biceps Femoral', 15725 values, engineering units: mV, no filters.
Channel 6: 'Vasto Medial', 15725 values, engineering units: mV, no filters.
Channel 7: 'EMG Semitendinoso', 15725 values, engineering units: mV, no filters.
Channel 8: 'Flexo-Extension', 15725 values, engineering units: deg, no filters.

-0.015	-0.0023	0.0045	0.0292	11.4
-0.0113	0.0015	0.0067	-0.0346	9.9
-0.0165	0.0015	-0.0008	-0.0825	9.8
-0.0181	0.0007	-0.0053	-0.114	9.3
-0.0143	-0.0068	-0.0083	-0.1373	8.9
-0.0135	-0.012	-0.0083	-0.0533	8.5
-0.012	-0.0075	-0.0105	0.006	8.2
-0.0083	0.0015	-0.0165	-0.0083	7.9
-0.006	0.012	-0.0218	-0.0263	7.6
-0.0053	0.015	-0.0285	-0.0615	7.4
-0.003	0.0135	-0.0353	-0.0638	6.7
-0.0008	0.0127	-0.042	-0.054	6.7
-0.0008	0.0045	-0.0473	0.0067	6.3
0.0015	-0.0046	-0.0518	0.1162	6.2
0.0052	-0.003	-0.0578	0.1312	5.8
0.009	0.0015	-0.0615	0.063	5.4
0.0127	0.0007	-0.0593	0.042	5
0.015	-0.0083	-0.054	0.0892	4.7
0.0142	-0.0143	-0.0488	0.0892	4.4
0.0165	-0.0195	-0.0443	0.0615	4.1
0.018	-0.0263	-0.042	0.0322	4
0.0195	-0.024	-0.0353	-0.0615	3.4
0.018	-0.0083	-0.024	-0.1163	3.3
0.015	0.0112	-0.015	-0.0511	2.8
0.015	0.0157	-0.0091	0.0052	2.6
0.0127	0.012	-0.0053	-0.0135	2.3
0.012	0.0082	-0.0046	-0.024	2
0.0105	0.0022	-0.0083	-0.0323	1.5
0.0097	0.0007	-0.0143	-0.0308	1.4
0.012	-0.0008	-0.0158	-0.0256	1.3
0.012	-0.0008	-0.0143	-0.0195	0.9
0.012	0.0037	-0.0158	-0.0075	0.7
0.0142	0.0037	-0.0195	-0.0098	0.3
0.0187	0.0022	-0.0218	-0.0046	0.1
0.0195	0.0037	-0.0218	-0.0008	-0.2
0.0195	0.0045	-0.024	0.0075	-0.5
0.0195	0.0052	-0.024	0.0217	-0.6
0.0202	0.0052	-0.024	0.0352	-1
0.0225	0.0052	-0.0181	0.0262	-1.3
0.0225	0.0052	-0.0113	0.0112	-1.4
0.0225	0.0037	-0.003	-0.0083	-1.6
0.021	0.0045	0.0127	-0.0338	-1.8
0.0165	0.006	0.0292	-0.0181	-1.9
0.0127	0.0052	0.0405	0.0067	-2.2
0.0082	0.003	0.0517	0.0127	-2.4
0.003	0.0015	0.0622	0.009	-2.5
0.0007	-0.0008	0.0787	0	-2.6
-0.0038	-0.0008	0.108	-0.0105	-2.8
-0.0068	-0.0008	0.147	-0.0143	-3.1
-0.0135	-0.003	0.207	-0.012	-3.1
-0.0218	-0.0053	0.2857	-0.0053	-3.2
-0.027	-0.0046	0.3832	-0.0046	-3.3
-0.033	-0.0015	0.486	0.0007	-3.7
-0.0323	0	0.594	0.006	-3.5
-0.0383	-0.0023	0.6892	0.0045	-3.8
-0.054	-0.0083	0.7162	0.0007	-3.8
-0.0706	-0.015	0.6832	-0.0038	-4
-0.0803	-0.0143	0.576	-0.0083	-4
-0.0765	-0.0053	0.411	-0.0128	-4
-0.066	-0.0015	0.2115	-0.0143	-4.1
-0.0525	-0.0008	-0.0218	-0.0083	-4.2
-0.0323	0.0045	-0.2573	-0.0015	-4.2
-0.0075	0.0082	-0.4883	0.003	-4.2
0.0112	0.0082	-0.7065	0.003	-4.2
0.0292	0.0045	-0.9135	-0.003	-4.1
0.0547	0.0015	-1.1048	-0.006	-4.1
0.078	0.0007	-1.2743	-0.0053	-4.2
0.0982	-0.0008	-1.4183	-0.0015	-4.2
0.1087	-0.0008	-1.4745	0	-4.1
0.1117	-0.003	-1.3718	-0.0008	-4.2
0.1207	-0.0046	-1.2533	0	-3.9
0.1215	-0.0038	-1.1468	0.0007	-4.1
0.12	-0.0038	-1.0485	0.0015	-3.9
0.1215	-0.0046	-0.912	0.0015	-3.7
0.1132	-0.0046	-0.7185	-0.0008	-3.6
0.105	-0.0053	-0.5123	-0.0008	-3.7
0.1072	-0.003	-0.3278	-0.0008	-3.5
0.1057	-0.0015	-0.1455	0	-3.5
0.0922	-0.0046	0.0105	0.0015	-3.4
0.093	-0.0046	0.1635	0.0022	-3.4
0.099	-0.0046	0.2977	0.003	-3.1
0.0982	-0.0015	0.4095	0.0037	-3.2
0.1027	-0.0008	0.5047	0.0052	-3.1
0.1012	0.0007	0.5797	0.006	-3.2
0.1012	0.0037	0.6435	0.003	-3.1
0.0982	0.0037	0.687	0.0007	-3.1
0.0892	0.0007	0.7147	-0.0015	-3.1
0.0727	0	0.72	-0.0023	-2.8
0.0592	0.0007	0.711	-0.0038	-2.9
0.0405	0.0007	0.6825	-0.0046	-3
0.015	0.0007	0.6367	0.0007	-2.7
0.0007	0	0.579	0.0007	-2.8
-0.0173	-0.0083	0.5145	-0.0008	-2.8
-0.0735	-0.012	0.4417	0.003	-2.7
-0.2445	0.0015	0.3637	0.0052	-2.7
-0.513	0.003	0.2947	0.0022	-2.6
-0.7576	-0.0015	0.237	-0.003	-2.7
-0.9608	-0.0008	0.1905	-0.0053	-2.4
-1.0305	-0.0083	0.156	-0.012	-2.6
-0.7928	-0.0105	0.1282	-0.015	-2.4
-0.4305	-0.0128	0.105	-0.0181	-2.5
-0.1553	-0.0083	0.0862	-0.0165	-2.2
0.12	-0.003	0.0765	0.0082	-2.6
0.3712	-0.0046	0.0705	0.027	-2.1
0.4942	-0.006	0.0615	0.0097	-2.4
0.4875	-0.0105	0.06	-0.0083	-2.2
0.4597	-0.006	0.0645	-0.033	-2.4
0.405	0.0007	0.0727	-0.0495	-2.1
0.2647	0.006	0.084	-0.0323	-2
0.135	0.0067	0.0937	0.0015	-2.1
0	0.0045	0.105	0.027	-2.2
-0.1238	0.0037	0.1192	0.0495	-2
-0.2348	-0.003	0.1335	0.0502	-1.8
-0.3293	-0.0046	0.153	0.0195	-2
-0.3728	-0.003	0.1732	0.0165	-1.8
-0.3878	0.0007	0.186	0.033	-1.9
-0.3728	0.0105	0.1897	0.0352	-1.8
-0.3518	0.0165	0.1807	0.0097	-1.7
-0.3173	0.0172	0.1657	-0.0428	-1.5
-0.2933	0.0157	0.15	-0.0706	-1.7
-0.2745	0.021	0.1305	-0.084	-1.4
-0.2535	0.027	0.105	-0.105	-1.5
-0.2415	0.0262	0.075	-0.0825	-1.3
-0.228	0.018	0.039	-0.015	-1.3
-0.225	0.0045	-0.0015	0.0142	-1.1
-0.2138	-0.0195	-0.033	-0.012	-1.2
-0.2011	-0.0293	-0.057	-0.0278	-1
-0.1853	-0.0083	-0.0668	0.0652	-1.2
-0.1673	0.0067	-0.0698	0.1297	-1
-0.1515	0.0127	-0.078	0.0697	-1.1
-0.12	0.009	-0.0975	0.0502	-0.9
-0.0885	-0.0083	-0.1163	0.0322	-1
-0.0615	-0.0128	-0.1253	0.0202	-0.9
-0.0405	-0.0143	-0.1343	0.0367	-0.8
-0.0181	-0.0128	-0.1411	0.0375	-0.5
0.012	-0.0091	-0.1448	0.0277	-0.6
0.063	-0.0105	-0.1403	0.0052	-0.5
0.141	-0.0091	-0.1365	-0.0195	-0.5
0.2422	-0.0053	-0.135	-0.0608	-0.4
0.3667	0.0015	-0.1365	-0.0833	-0.4
0.468	-0.0008	-0.1403	-0.057	-0.3
0.519	0.0045	-0.1448	-0.0128	-0.2
0.528	0.0127	-0.153	-0.012	-0.1
0.5137	0.015	-0.1605	0	0.1
0.4672	0.0217	-0.1741	0.0292	-0.1
0.4057	0.0217	-0.1875	0.0067	0.1
0.3592	0.0052	-0.1868	-0.0128	0
0.3015	0.0067	-0.1756	-0.0488	0.4
0.243	0.0262	-0.1703	-0.0488	0.2
0.189	0.0232	-0.1763	0.033	0.6
0.1425	0.006	-0.1898	0.0727	0.5
0.1027	-0.0083	-0.1965	0.0637	0.7
0.0517	-0.0293	-0.1958	0.0225	0.4
-0.0015	-0.0338	-0.192	-0.06	0.7
-0.0533	-0.033	-0.1845	-0.081	0.8
-0.1028	-0.0495	-0.1688	-0.054	0.9
-0.1388	-0.0608	-0.1575	-0.057	0.8
-0.159	-0.0608	-0.159	-0.0555	0.8
-0.1726	-0.042	-0.153	-0.0518	0.9
-0.186	-0.0143	-0.1365	-0.0465	0.9
-0.1905	0.0075	-0.1238	-0.045	1
-0.1808	0.0255	-0.1103	-0.066	1
-0.1605	0.0322	-0.0893	-0.0735	0.9
-0.135	0.0345	-0.063	-0.0503	1.1
-0.1088	0.0292	-0.0256	-0.0128	1
-0.0803	0.0232	-0.0008	0.0075	1.3
-0.042	0.0285	0.0007	0.0322	1
0.0015	0.0157	-0.0105	0.0922	1.2
0.042	-0.0068	-0.021	0.153	1.1
0.081	0.0052	-0.0188	0.1215	1.1
0.1147	0.0322	-0.0083	-0.024	1.1
0.1365	0.033	0.0142	-0.084	1
0.1522	0.0112	0.0352	0.0225	1
0.1657	-0.0188	0.0465	0.069	0.9
0.1755	-0.0368	0.06	0.0975	0.8
0.1815	-0.0518	0.0727	0.165	0.6
0.1852	-0.0511	0.0847	0.1035	0.7
0.183	-0.0113	0.1005	-0.0825	0.3
0.1762	0.024	0.1185	-0.165	0.5
0.1672	0.0592	0.135	-0.0128	0.1
0.1605	0.0615	0.1485	0.0262	0.3
0.156	0.0217	0.1522	0.0127	-0.1
0.1507	-0.0015	0.153	-0.0143	-0.2
0.1425	-0.024	0.1597	-0.0706	-0.5
0.1282	-0.042	0.171	-0.0578	-0.5
0.114	-0.0308	0.1815	-0.1868	-0.8
0.0997	0.0045	0.1837	-0.2033	-0.7
0.0832	0.0352	0.18	-0.0383	-0.8
0.063	0.045	0.1747	0.081	-1.1
0.039	0.0217	0.162	0.156	-1.1
0.0292	-0.0046	0.1485	0.228	-1.1
0.033	0.0052	0.135	0.1972	-1.3
0.0405	0.006	0.114	0.048	-1.5
0.0382	-0.0128	0.099	-0.0863	-1.6
0.0225	-0.0135	0.0817	-0.129	-1.6
0.0037	-0.003	0.0592	-0.1523	-1.6
-0.0143	-0.0203	0.0442	-0.1388	-1.9
-0.027	-0.0443	0.0427	-0.1088	-2
-0.0346	-0.039	0.0525	-0.0818	-2
-0.0465	-0.042	0.0577	0.0367	-2.1
-0.0615	-0.033	0.0532	0.0517	-2.3
-0.0788	-0.0113	0.0405	-0.0203	-2.1
-0.0975	-0.0075	0.0262	0.0427	-2.3
-0.0983	-0.015	0.0165	0.1635	-2.1
-0.0856	-0.0165	0.0142	0.192	-2.2
-0.0675	0.0322	0.0217	0.1297	-2.1
-0.0495	0.0862	0.0315	-0.0195	-2.2
-0.0278	0.0885	0.0337	-0.0803	-1.9
0.0067	0.0592	0.0255	0.0045	-2
0.0307	0.015	0.0127	-0.078	-1.9
0.0495	-0.0293	0.006	-0.1028	-1.9
0.0772	-0.0743	0.0045	0.009	-1.7
0.099	-0.0668	0.0097	0.0682	-1.8
0.0975	0.0022	0.0195	0.1837	-1.5
0.078	0.0157	0.0262	0.0337	-1.5
0.0637	-0.027	0.0315	-0.1853	-1.4
0.0427	-0.0608	0.06	-0.2881	-1.4
0.0067	-0.0713	0.1065	-0.2895	-1.2
-0.0263	-0.0555	0.1447	-0.099	-1
-0.0623	-0.0338	0.171	-0.0713	-0.7
-0.1021	-0.006	0.1897	-0.0443	-0.6
-0.1365	0.027	0.1972	-0.0046	-0.5
-0.1696	0.0525	0.195	-0.033	-0.2
-0.1958	0.0697	0.183	-0.048	-0.3
-0.2085	0.0645	0.1582	0.0292	0.1
-0.2183	0.0352	0.1335	0.102	0.1
-0.2258	0.0172	0.1087	0.0705	0.4
-0.2273	0.0142	0.087	0.0705	0.4
-0.2273	0.0067	0.0705	0.0232	0.7
-0.2265	0.006	0.0532	0.033	0.6
-0.2198	0.0052	0.0367	0.0622	0.9
-0.2138	0.006	0.0232	0.0757	0.8
-0.2093	0.0045	0.009	0.0915	1.1
-0.2055	-0.0008	-0.003	0.102	0.7
-0.1988	0.0015	-0.0165	0.1327	1
-0.189	0.003	-0.0368	0.1162	0.9
-0.183	0.0007	-0.0578	0.0727	0.9
-0.1763	-0.0068	-0.078	-0.0053	1.1
-0.165	-0.012	-0.0938	-0.0938	0.9
-0.1568	-0.012	-0.1028	-0.1298	1
-0.1523	-0.0135	-0.1103	-0.0713	1
-0.1455	-0.0015	-0.1238	-0.0593	1.2
-0.1373	0.0217	-0.1298	-0.0795	0.8
-0.1305	0.0232	-0.135	-0.0315	1.1
-0.1215	0.0097	-0.1411	-0.0383	0.9
-0.1103	0.0097	-0.1403	-0.0525	1.1
-0.1006	0.0127	-0.1388	-0.0788	0.8
-0.0878	0.0127	-0.1343	-0.1065	1.1
-0.0758	0.0045	-0.1283	-0.0645	0.9
-0.0608	-0.0143	-0.114	-0.0181	1
-0.042	-0.0203	-0.0833	0.1252	0.9
-0.0285	-0.0308	-0.0443	0.3015	0.9
-0.0135	-0.0428	0.0142	0.3337	1
0.0007	-0.0368	0.0937	0.2062	1
0.0105	-0.0181	0.18	-0.0053	0.8
0.021	-0.0083	0.231	-0.1463	0.9
0.0315	-0.0135	0.2392	-0.1575	0.6
0.0457	-0.0173	0.2242	-0.1305	0.9
0.063	-0.0083	0.1702	-0.0743	0.6
0.0742	0.0105	0.0825	-0.0105	0.8
0.0825	0.027	-0.0263	-0.0083	0.4
0.0907	0.0292	-0.1455	0.0435	0.7
0.1057	0.0255	-0.2558	0.093	0.4
0.1155	0.0307	-0.36	0.0855	0.5
0.12	0.0195	-0.456	0.042	0.3
0.1245	-0.012	-0.537	-0.0938	0.4
0.1312	-0.027	-0.6023	-0.0983	0.1
0.1372	-0.0218	-0.654	0.054	0.1
0.1425	-0.012	-0.6855	0.108	0.2
0.1387	0.0007	-0.6915	0.0787	0.1
0.129	0.0052	-0.6668	0.0405	0
0.1297	0.0105	-0.6143	0.0097	-0.4
0.138	0.0315	-0.5385	0.0097	-0.1
0.1447	0.0367	-0.4403	0.0165	-0.4
0.1395	0.0367	-0.3233	0.0345	-0.2
0.1245	0.0315	-0.2026	0.0495	-0.5
0.1087	-0.0158	-0.0893	-0.0053	-0.3
0.09	-0.045	0.0165	-0.0975	-0.6
0.072	-0.021	0.1162	-0.0706	-0.3
0.051	-0.0091	0.204	0.018	-0.7
0.036	-0.0195	0.2722	0.0532	-0.5
0.0202	-0.0315	0.321	0.0352	-0.7
0.0015	-0.0368	0.3532	-0.0465	-0.5
-0.0128	-0.0256	0.369	-0.1711	-0.8
-0.0233	-0.0113	0.3765	-0.294	-0.8
-0.039	0.009	0.3712	-0.258	-0.8
-0.0638	0.0277	0.351	-0.0915	-0.6
-0.0885	0.0352	0.321	0.0202	-0.7
-0.105	0.0307	0.273	0.0637	-0.7
-0.1155	0.0195	0.2205	0.0622	-0.9
-0.1275	0.0142	0.174	0.0547	-1
-0.1441	0.009	0.1237	0.0427	-1.1
-0.1575	0.0052	0.0765	0.0315	-1
-0.1703	0	0.0255	0.0277	-1.2
-0.1808	-0.0046	-0.0308	0.0232	-1.1
-0.1838	-0.0046	-0.0878	0.0277	-1.2
-0.1815	-0.0083	-0.1365	0.0277	-1.2
-0.1733	-0.0128	-0.165	0.0352	-1.3
-0.1673	-0.0128	-0.1696	0.0405	-1.4
-0.162	-0.0173	-0.1545	0.0397	-1.4
-0.1553	-0.0256	-0.1298	0.0345	-1.3
-0.1463	-0.0315	-0.1013	-0.0038	-1.3
-0.1313	-0.0233	-0.0691	-0.0653	-1.4
-0.1163	-0.0083	-0.0346	-0.093	-1.3
-0.1058	0.0082	0.0045	-0.0218	-1.4
-0.0975	0.0097	0.045	0.0742	-1
-0.0833	-0.0091	0.0765	0.1102	-1.3
-0.0638	-0.012	0.1087	0.1297	-0.9
-0.0488	-0.003	0.1365	0.0622	-1.1
-0.0338	0.018	0.1552	-0.012	-0.9
-0.0203	0.039	0.1702	-0.0075	-1.2
-0.0098	0.0337	0.1792	-0.0758	-1
0.0015	0.0232	0.1875	-0.1208	-1
0.0112	0.0157	0.1957	-0.1058	-0.9
0.0202	0.0052	0.2017	-0.06	-1
0.0247	0	0.2032	-0.0083	-0.8
0.0232	0.0015	0.2025	-0.0323	-0.8
0.0232	0	0.1995	-0.0383	-0.8
0.0262	-0.0053	0.1957	-0.054	-0.8
0.0307	-0.0053	0.195	-0.0473	-0.7
0.0352	-0.0038	0.1905	0.0097	-0.6
0.0412	0.0067	0.186	0.0795	-0.6
0.0502	0.0067	0.1785	0.1305	-0.6
0.0592	-0.0195	0.1665	0.1042	-0.5
0.066	-0.048	0.1552	0.0105	-0.5
0.0817	-0.048	0.1567	-0.0856	-0.7
0.0975	-0.0075	0.177	-0.0653	-0.5
0.1012	0.0352	0.1972	-0.033	-0.4
0.105	0.036	0.2062	0.0082	-0.4
0.114	0.0045	0.201	0.096	-0.5
0.12	-0.0128	0.1957	0.0277	-0.5
0.12	-0.0143	0.1987	-0.0315	-0.4
0.1162	-0.0098	0.2025	-0.0503	-0.5
0.1102	-0.0008	0.2002	-0.108	-0.4
0.1117	0.0082	0.1845	-0.0691	-0.4
0.1147	0.027	0.1672	-0.0338	-0.3
0.1102	0.0315	0.1492	-0.0091	-0.2
0.1042	0.024	0.126	0.0697	-0.3
0.1005	0.0075	0.0997	0.132	0
0.096	-0.0263	0.0727	0.1312	-0.2
0.0907	-0.0315	0.0465	0.06	0
0.0817	-0.0165	0.0247	-0.0706	-0.3
0.0712	-0.0158	0.0015	-0.1021	0
0.0667	-0.0233	-0.0248	-0.03	-0.4
0.0637	-0.027	-0.048	-0.027	-0.2
0.0562	-0.0181	-0.0698	-0.0323	-0.4
0.0487	-0.0203	-0.0968	-0.0315	-0.1
0.0502	-0.0158	-0.1245	-0.042	-0.2
0.0517	-0.0015	-0.1478	-0.0143	-0.1
0.0555	-0.0083	-0.1673	-0.0188	-0.1
0.0577	-0.0083	-0.1823	-0.0233	0.1
0.0607	-0.0038	-0.1935	-0.0046	0
0.0652	-0.003	-0.1995	-0.0015	-0.3
0.0652	-0.0008	-0.2018	0.0067	-0.1
0.0682	0.0007	-0.2011	0.0292	-0.3
0.0697	0.0052	-0.1958	0.039	0.1
0.0697	0.0067	-0.1883	0.0195	-0.3
0.0705	0.006	-0.18	0.0045	0.1
0.0712	0.0045	-0.1703	0.0007	-0.2
0.072	0.0045	-0.1575	-0.0098	0
0.0705	0.0037	-0.1426	-0.012	-0.4
0.0675	0.003	-0.126	-0.0053	0
0.0622	0.0105	-0.108	0.0195	-0.4
0.0592	0.0097	-0.0893	0.0322	-0.3
0.0555	-0.0008	-0.0713	0.0247	-0.1
0.0502	0.0015	-0.0555	0.024	-0.3
0.0427	0.0165	-0.0368	0.0225	-0.2
0.0382	0.0285	-0.0195	-0.0203	-0.4
0.0307	0.03	-0.003	-0.0563	-0.1
0.0217	0.0255	0.0082	0.0007	-0.2
0.012	0.0195	0.0142	-0.012	-0.1
-0.0008	0.0157	0.0187	-0.0458	-0.4
-0.0113	0.0142	0.0232	-0.024	-0.2
-0.0195	0.0082	0.027	-0.0233	-0.4
-0.0256	-0.0068	0.0292	0.0075	-0.2
-0.0346	-0.0203	0.03	-0.0046	-0.4
-0.0443	-0.0143	0.0307	-0.0105	-0.3
-0.0518	-0.0075	0.0307	0.0045	-0.6
-0.06	-0.0083	0.0277	0.0045	-0.3
-0.0683	-0.0068	0.0262	0.0067	-0.4
-0.0735	-0.0008	0.0217	0.0015	-0.5
-0.0803	0.0082	0.015	0.012	-0.5
-0.0908	0.0082	0.0105	0.015	-0.5
-0.1013	0.009	0.009	0.0187	-0.5
-0.1043	0.0067	0.012	0.0285	-0.4
-0.1133	0.003	0.012	0.0577	-0.6
-0.1163	0.0037	0.0112	0.048	-0.4
-0.0953	-0.0068	0.0105	-0.0008	-0.6
-0.0788	-0.0293	0.0082	-0.0008	-0.5
-0.066	-0.0368	0.009	0.0165	-0.5
-0.0608	-0.0353	0.0135	-0.0533	-0.5
-0.054	-0.0346	0.0157	-0.1328	-0.5
-0.048	-0.0256	0.0202	-0.0443	-0.4
-0.0465	-0.0323	0.021	0.0262	-0.7
-0.0458	-0.021	0.0172	-0.027	-0.5
-0.0495	0.0097	0.0135	-0.0285	-0.6
-0.0473	0.0187	0.0082	-0.0495	-0.5
-0.042	0.0352	0.0015	-0.0383	-0.7
-0.0368	0.0345	-0.0046	0.0277	-0.8
-0.0315	0.018	-0.0098	0.042	-0.6
-0.03	0.0052	-0.024	0.0307	-0.9
-0.0293	-0.0023	-0.0518	-0.0233	-0.7
-0.03	0.0007	-0.0885	-0.0735	-0.9
-0.0293	-0.0046	-0.1275	-0.0856	-0.8
-0.0308	-0.0165	-0.162	-0.0256	-0.9
-0.0323	-0.0308	-0.195	0.0457	-0.7
-0.0353	-0.0278	-0.2213	0.0705	-0.9
-0.0383	-0.0165	-0.2393	0.0562	-0.6
-0.0405	-0.0098	-0.2468	0.0165	-1
-0.0436	-0.0008	-0.2445	0.0142	-0.6
-0.0436	0.0067	-0.2258	-0.0105	-0.8
-0.0465	0.027	-0.1973	-0.0375	-0.8
-0.0488	0.0412	-0.1613	-0.0473	-0.9
-0.048	0.0352	-0.12	-0.0293	-0.8
-0.0503	0.024	-0.0758	0.003	-0.7
-0.0465	0.0127	-0.027	0.0127	-0.7
-0.0458	0.0045	0.0277	0.0255	-0.9
-0.0428	0.0015	0.0825	0.0195	-0.7
-0.0383	-0.0008	0.1365	0.0172	-0.7
-0.039	-0.003	0.186	0.006	-0.7
-0.0375	-0.0015	0.231	-0.0015	-0.8
-0.0293	-0.0046	0.2707	0.0105	-0.7
-0.0225	-0.0068	0.303	0.0232	-0.8
-0.0195	-0.0068	0.3285	0.0277	-0.8
-0.0128	-0.0105	0.3487	0.0195	-0.6
-0.006	-0.0128	0.3585	0.0082	-0.6
0.0007	-0.0046	0.3615	-0.0098	-0.8
0.0052	0.0067	0.3555	-0.0346	-0.6
0.0082	0.009	0.3367	-0.0465	-0.6
0.012	0.0187	0.3082	-0.0263	-0.6
0.0165	0.0292	0.2767	-0.0105	-0.8
0.0217	0.024	0.2385	-0.0046	-0.6
0.0277	0.006	0.1935	-0.0053	-0.7
0.0307	-0.0128	0.15	-0.0195	-0.8
0.033	-0.0105	0.1012	-0.0053	-0.5
0.0375	-0.0091	0.057	0.0052	-0.6
0.0405	-0.0233	0.0105	0.0052	-0.6
0.042	-0.0293	-0.033	-0.0038	-0.8
0.042	-0.0233	-0.0683	-0.0091	-0.7
0.048	-0.006	-0.1021	0.003	-0.8
0.0532	-0.006	-0.1343	0.0015	-0.7
0.0555	-0.0091	-0.1613	-0.0008	-0.6
0.0532	0.0015	-0.186	-0.0038	-0.6
0.0502	0.0105	-0.2063	-0.0068	-0.7
0.0495	0.0217	-0.2228	-0.0128	-0.5
0.0465	0.0307	-0.237	0.003	-0.5
0.0427	0.033	-0.2475	0.042	-0.5
0.0405	0.0202	-0.2595	0.0232	-0.5
0.036	-0.0023	-0.2693	-0.0075	-0.5
0.0292	-0.0158	-0.2806	-0.0098	-0.5
0.024	-0.0383	-0.2925	-0.066	-0.5
0.021	-0.0443	-0.2918	-0.0675	-0.7
0.018	-0.0143	-0.2881	0.0307	-0.6
0.0045	0.0067	-0.2768	0.0742	-0.5
-0.0105	0.0082	-0.2693	0.0937	-0.5
-0.0135	0.0045	-0.2708	0.108	-0.5
-0.0128	0.0202	-0.2693	0.0532	-0.5
-0.0165	0.0202	-0.2655	-0.0218	-0.4
-0.0188	0.003	-0.2535	-0.0803	-0.5
-0.0195	0.012	-0.2348	-0.0413	-0.5
-0.0233	-0.0143	-0.2198	-0.0203	-0.5
-0.0158	-0.0488	-0.207	-0.0773	-0.5
-0.0075	-0.0323	-0.1943	-0.0488	-0.5
-0.0068	-0.0143	-0.177	-0.0465	-0.4
-0.0046	-0.0158	-0.1598	-0.0436	-0.4
0.0022	-0.015	-0.1426	-0.0495	-0.2
0.0052	-0.0038	-0.12	-0.1411	-0.4
0.0022	0.0045	-0.0938	-0.135	-0.2
0.0045	-0.0053	-0.0721	-0.0293	-0.4
0.0105	-0.015	-0.06	0.0315	-0.1
0.0142	-0.0158	-0.0503	0.0457	-0.3
0.0172	-0.0068	-0.042	0.0975	0
0.0195	0.0105	-0.0278	0.114	-0.2
0.0195	0.0217	-0.0128	0.0915	-0.1
0.018	0.0277	-0.0015	0.0495	-0.1
0.0142	0.0285	0.0142	-0.0135	0
0.012	0.0217	0.0255	-0.0053	0
0.0067	0.0202	0.0367	0.0067	-0.1
0	0.0112	0.048	-0.0083	0
-0.006	0.003	0.0592	-0.0165	-0.2
-0.015	0.0007	0.0705	-0.057	0.1
-0.0225	-0.0046	0.0802	-0.057	-0.2
-0.0368	-0.0053	0.0907	-0.0143	0
-0.0503	-0.003	0.1035	-0.003	-0.1
-0.057	0.003	0.1155	0.021	0.2
-0.0653	0.0075	0.126	0.039	0
-0.0713	0.009	0.138	0.0232	0.2
-0.099	0.0082	0.15	0.015	0
-0.1208	0.0127	0.1605	0.0127	0.1
-0.12	0.0172	0.1702	0.0217	-0.2
-0.1223	0.009	0.1762	0.024	0.1
-0.126	0	0.1815	0.0337	0.1
-0.1388	-0.0068	0.1845	0.0285	0
-0.1388	-0.0203	0.1822	-0.0083	0
-0.1388	-0.0308	0.1747	-0.0068	0
-0.1463	-0.0323	0.1635	0.0225	0
-0.1448	-0.0361	0.15	0.0427	0.1
-0.1478	-0.0368	0.1312	0.0397	0
-0.159	-0.0195	0.111	0.0127	0.1
-0.1545	-0.003	0.0937	-0.0645	0.1
-0.147	0.003	0.0832	-0.1373	0
-0.1455	0.0082	0.0675	-0.0645	0.1
-0.1381	0.012	0.0495	0.009	0
-0.1373	0.0097	0.0345	0.003	0.1
-0.1328	0.0097	0.021	0.0052	0.1
-0.129	0.0082	0.0112	-0.0181	0.1
-0.1275	0.012	0.0052	-0.0256	0
-0.123	0.0225	0.0007	-0.0188	0.1
-0.123	0.0195	-0.003	-0.0165	0.1
-0.12	0.0015	-0.0023	-0.0023	0.3
-0.1163	-0.012	-0.0008	0.0052	0.1
-0.1095	-0.0098	0.0045	0.0195	0.4
-0.0983	-0.0083	0.0097	0.0217	0.1
-0.0885	-0.0091	0.0172	0.018	0.4
-0.0743	0.0037	0.027	0.0142	0
-0.0578	0.0127	0.0345	0.0127	0.4
-0.042	0.0157	0.0427	0.0067	0
-0.0256	0.012	0.0517	-0.0075	0.3
-0.0098	0.0105	0.0615	-0.0053	0.1
0.0067	0.0247	0.0637	-0.003	0.3
0.0195	0.0277	0.0675	0	0.1
0.033	0.0172	0.0735	0.0232	0.3
0.0465	0.009	0.0772	0.0465	0.1
0.057	0.0052	0.0795	0.036	0.2
0.0697	0.006	0.0765	-0.0023	0.2
0.0817	0.0067	0.0765	-0.042	0.4
0.0937	0.0007	0.075	-0.0181	0.4
0.108	-0.03	0.0697	0.0105	0.1
0.1207	-0.039	0.063	-0.0075	0.4
0.132	-0.0218	0.0562	-0.0113	0.2
0.1387	-0.0353	0.0502	-0.0413	0.4
0.144	-0.033	0.0405	-0.0443	0.3
0.1515	-0.0068	0.0307	-0.0308	0.4
0.1515	0.0037	0.0217	-0.0293	0.2
0.15	0.0127	0.0142	-0.003	0.3
0.1462	0.0067	0.0052	0.015	0.2
0.1402	-0.0143	-0.003	0.0052	0.4
0.1305	-0.0173	-0.0091	-0.0195	0.2
0.1177	-0.0113	-0.0158	0.024	0.4
0.1042	-0.0053	-0.0233	0.0607	0.4
0.0885	0.0075	-0.0293	0.0487	0.3
0.0735	0.0262	-0.033	0.0045	0.3
0.0592	0.048	-0.0375	-0.0615	0.3
0.0465	0.0435	-0.0436	-0.063	0.3
0.0405	0.0052	-0.0458	-0.0128	0.3
0.0337	-0.0278	-0.0503	0.024	0.2
0.0292	-0.0428	-0.0548	-0.0165	0.5
0.027	-0.039	-0.057	-0.0285	0.3
0.0225	-0.024	-0.0533	0.0007	0.4
0.0195	0.0022	-0.0428	0.009	0.3
0.0172	0.0307	-0.0308	0.078	0.6
0.0165	0.0292	-0.027	0.0877	0.3
0.018	0.0097	-0.0308	0.0202	0.4
0.0225	-0.0015	-0.0338	-0.0143	0.2
0.0262	-0.0053	-0.0383	-0.027	0.4
0.0292	-0.0098	-0.0398	-0.0135	0.4
0.0345	-0.0098	-0.0368	-0.0578	0.4
0.039	0.003	-0.0315	-0.0593	0.2
0.0495	0.0052	-0.033	-0.0361	0.3
0.0502	-0.0008	-0.0353	-0.0511	0.4
0.0442	0	-0.0346	-0.0165	0.2
0.045	0.0022	-0.033	-0.0315	0.4
0.045	0.0195	-0.0256	-0.0015	0.4
0.039	0.03	-0.0218	0.0607	0.3
0.0337	0.0232	-0.0181	0.0112	0.3
0.0292	0.0127	-0.0135	-0.0615	0.3
0.0217	0.0015	-0.0091	-0.0488	0.2
0.0157	-0.0105	-0.0038	-0.0068	0.4
0.009	-0.0233	-0.0008	0.0157	0.3
0.0022	-0.0285	0.0015	0.0195	0.5
-0.0008	-0.0248	0.0045	-0.0046	0.2
-0.0128	-0.0143	0.0067	-0.0128	0.4
-0.0225	0.012	0.0105	0.0217	0.3
-0.0278	0.0247	0.0082	0.0547	0.3
-0.0338	-0.0015	0.0067	0.0517	0.4
-0.0428	-0.0248	0.0045	0.027	0.4
-0.045	-0.0188	0.003	0.0052	0.4
-0.0465	0.012	0.0022	0.0165	0.4
-0.054	0.0285	0.0015	0.0232	0.4
-0.054	0.012	0.0007	0.0112	0.4
-0.0548	-0.0015	0.0015	-0.006	0.3
-0.057	-0.0143	0.0045	-0.0218	0.3
-0.0585	-0.0248	0.0067	-0.027	0.2
-0.0593	-0.0143	0.0105	-0.0443	0.3
-0.057	0.006	0.0142	-0.0346	0.4
-0.054	0.018	0.018	0.015	0.3
-0.0533	0.0082	0.0247	0.054	0.3
-0.0511	-0.003	0.0307	0.063	0.3
-0.0458	-0.0083	0.0352	0.0315	0.3
-0.0443	-0.0046	0.039	-0.021	0.3
-0.0443	0.009	0.0405	-0.0405	0.2
-0.0398	0.012	0.0442	-0.0105	0.2
-0.0375	0.0037	0.0457	0.0292	0.4
-0.033	-0.0083	0.0442	0.024	0.1
-0.0293	-0.0158	0.042	0.0127	0.3
-0.024	-0.027	0.0367	-0.0046	0.1
-0.0218	-0.0368	0.0367	-0.0525	0.3
-0.0233	-0.0165	0.039	-0.0443	0.3
-0.0188	0.0082	0.039	-0.0053	0.3
-0.0128	0.012	0.039	-0.0285	0.2
-0.0091	0.012	0.0435	-0.0533	0.4
-0.0105	0.0052	0.0457	-0.0488	0.2
-0.0083	0.006	0.048	-0.0653	0.2
-0.006	0.0202	0.0517	-0.0511	0.1
-0.0075	0.0315	0.0547	-0.0203	0.2
-0.0091	0.0315	0.06	0.0052	0.2
-0.012	0.0217	0.0592	0.024	0.2
-0.0105	0.0082	0.0577	0.0435	0.4
-0.0105	-0.0091	0.0577	0.0607	0
-0.0135	-0.0181	0.051	0.0472	0.4
-0.0143	-0.0233	0.048	0.018	0.2
-0.0165	-0.0165	0.0427	-0.0091	0.4
-0.0173	-0.006	0.0382	-0.0053	0.1
-0.0181	-0.0113	0.036	-0.0105	0.4
-0.021	-0.0083	0.0322	-0.0015	0
-0.024	-0.0068	0.03	-0.0008	0.4
-0.0256	-0.006	0.0285	-0.0105	0.1
-0.0263	-0.0046	0.027	-0.0053	0.4
-0.027	-0.0008	0.0255	-0.0075	0.1
-0.0256	0.0067	0.0225	0	0.3
-0.024	0.0067	0.021	0.0052	0.3
-0.024	0.003	0.0195	0.0075	0.2
-0.0256	0.0007	0.0157	0.0045	0.4
-0.0233	0	0.0127	0.0015	0.2
-0.0195	-0.0008	0.0082	0.0007	0.4
-0.0195	-0.003	0.0015	-0.0015	0.1
-0.0158	-0.003	-0.0046	-0.0008	0.3
-0.012	0.0015	-0.0091	-0.0008	0
-0.0098	0.003	-0.015	0	0.4
-0.0091	0.0015	-0.021	0	0.1
-0.0053	0.0052	-0.024	0.0015	0.2
-0.0046	0.012	-0.0293	0.0045	0.1
-0.0015	0.0165	-0.0346	0.0082	0.2
0	0.0052	-0.0368	0.006	0
0	-0.0083	-0.0405	0.0052	0.3
0.003	-0.0068	-0.042	0.0067	0.2
0.003	-0.015	-0.0405	-0.006	0.1
0.0045	-0.0293	-0.0405	-0.0173	0.1
0.0052	-0.0218	-0.0375	-0.0098	0.2
0.006	-0.0113	-0.033	0.0052	0
0.0067	-0.0143	-0.0285	-0.0023	0.3
0.0052	-0.0135	-0.024	-0.0256	0.1
0.0067	-0.0083	-0.0203	-0.0428	0.4
0.003	0.0045	-0.015	-0.0368	0
0.0015	0.0195	-0.012	-0.0293	0.4
-0.0068	0.0112	-0.0068	-0.0383	0.1
-0.0165	0.0015	-0.0015	-0.039	0.4
-0.0181	0.0045	0.003	-0.0338	0.1
-0.0098	0.0075	0.0082	-0.0068	0.4
-0.003	0.0075	0.0082	0.0127	0.1
-0.0046	0.0067	0.0082	0.0105	0.4
-0.003	0.003	0.0067	0.0157	0.3
-0.0075	0.003	0.003	0.0127	0.3
-0.0105	0.003	0.0007	0.012	0.3
-0.0098	0.0022	0.0007	0.0105	0.1
-0.0083	0.003	-0.0008	0.009	0.4
-0.0083	0.0022	-0.0046	0.009	0.3
-0.0091	0.0015	-0.0068	0.009	0.4
-0.0091	0.0015	-0.0075	0.0082	0.1
-0.012	0.0007	-0.0098	0.0045	0.3
-0.0128	0	-0.0091	0.0052	0.2
-0.0158	-0.0008	-0.0105	0.003	0.3
-0.0165	0.0007	-0.012	0.003	0.2
-0.015	0	-0.0098	0.003	0.4
-0.0091	0.0007	-0.0075	0.0015	0
-0.0015	-0.0008	-0.0053	0.0015	0.4
0.0015	0	-0.0046	0.0015	0.2
0.009	0.0007	-0.0053	0.003	0.5
0.0142	0.0007	-0.0038	0.0007	0.4
0.0165	0.0007	-0.0015	-0.0015	0.4
0.024	0.0022	-0.0015	-0.0015	0.4
0.0307	0.003	0	-0.0008	0.3
0.0457	-0.0015	0.0037	-0.0023	0.4
0.0517	-0.0008	0.0052	-0.0023	0.4
0.0345	0.0007	0.0067	-0.0015	0.3
0.0247	0	0.0082	-0.0015	0.4
0.0292	0.0007	0.009	-0.0008	0.3
0.027	-0.0015	0.012	-0.003	0.4
0.0232	-0.0015	0.0112	-0.003	0.4
0.018	-0.0015	0.0127	-0.0015	0.5
0.0135	-0.0008	0.0127	-0.0015	0.4
0.0105	-0.0008	0.0127	-0.0023	0.4
0.0082	-0.0015	0.0112	-0.003	0.4
0.0075	0.0007	0.009	-0.0038	0.4
0.0052	-0.0008	0.0075	-0.0046	0.6
0.0052	-0.0015	0.0015	-0.0038	0.6
0.0052	-0.0015	-0.0046	-0.0015	0.5
0.0022	-0.0008	-0.0098	-0.0008	0.4
0.0015	0.003	-0.0143	-0.0023	0.6
0.0007	0.0052	-0.0181	-0.0015	0.5
0.0007	0.0045	-0.0233	0.0007	0.7
0.0015	-0.0008	-0.0263	0.0015	0.6
0.0015	0.0007	-0.0293	-0.0015	0.7
0.0015	0.0052	-0.0315	-0.0015	0.7
0.0022	0.006	-0.0346	-0.0015	0.8
-0.0015	-0.0046	-0.0315	-0.0023	0.7
-0.0023	-0.0248	-0.0256	-0.0046	0.9
-0.0015	-0.0233	-0.0181	-0.0091	0.7
-0.0038	-0.0083	-0.0038	-0.0075	1
-0.0038	0.003	0.0097	-0.0068	0.9
-0.0083	0.0105	0.024	-0.0128	0.9
-0.0105	0.0052	0.036	-0.0128	1
-0.012	0.0007	0.0427	-0.0038	1
-0.012	0.0015	0.0442	0.003	1.2
-0.0128	-0.0008	0.0405	0.0067	1.1
-0.0158	0.0007	0.033	0.0037	1.3
-0.0128	0.0015	0.0255	-0.0053	1.2
-0.0128	-0.003	0.0165	-0.0128	1.3
-0.0143	-0.003	0	-0.0165	1.3
-0.0135	-0.0015	-0.0195	-0.0068	1.5
-0.0158	-0.003	-0.0405	0.003	1.4
-0.0181	-0.0008	-0.0615	0	1.5
-0.0195	0.0007	-0.0803	-0.0046	1.4
-0.021	-0.0023	-0.0975	-0.0113	1.6
-0.0225	-0.0053	-0.1118	-0.0083	1.7
-0.0248	-0.0053	-0.1238	0.0015	1.7
-0.0263	-0.0053	-0.1335	0.0007	1.9
-0.0285	-0.0008	-0.1388	0.0022	1.7
-0.0308	0.0052	-0.1441	0.003	1.8
-0.0315	0.009	-0.1493	0.0007	2
-0.0368	0.012	-0.15	0.0015	1.8
-0.039	0.0105	-0.15	0.009	2
-0.0436	0.012	-0.1478	0.024	1.8
-0.0473	0.0142	-0.1441	0.0367	2.2
-0.0503	0.0127	-0.1388	0.042	2.1
-0.0525	0.0105	-0.1335	0.0367	2.3
-0.0548	0.0135	-0.1275	0.0345	2.2
-0.057	0.009	-0.1193	0.0315	2.5
-0.0548	-0.0203	-0.1088	0.0045	2.4
-0.0533	-0.048	-0.099	-0.0158	2.4
-0.0503	-0.0495	-0.0848	-0.0263	2.5
-0.045	-0.0465	-0.0653	-0.054	2.4
-0.042	-0.0308	-0.0443	-0.0893	2.5
-0.0405	-0.012	-0.015	-0.1013	2.7
-0.0405	-0.012	0.018	-0.0721	3
-0.0383	-0.0053	0.0487	-0.0758	2.8
-0.0353	0.009	0.0802	-0.0878	3
-0.0338	0.0352	0.105	-0.0375	3.1
-0.0285	0.0472	0.12	-0.0046	3.2
-0.0233	0.048	0.1327	0.012	3.1
-0.021	0.0315	0.1432	0.0367	3.4
-0.015	-0.015	0.1455	0.0405	3.3
-0.0105	-0.0218	0.144	0.0345	3.6
-0.0083	-0.0091	0.1387	0.015	3.4
0.0015	-0.0143	0.129	0.0007	3.8
0.015	-0.012	0.1155	0.0007	3.6
0.0255	-0.0135	0.1005	0.0022	3.8
0.0232	-0.0091	0.0825	0.009	3.8
0.021	0.0022	0.0645	0.012	3.9
0.0217	0.012	0.048	0.0142	4
0.0202	0.0165	0.0322	0.0232	4.1
0.0225	0.0135	0.0187	0.0292	4.2
0.0232	0.0195	0.0082	0.0307	4.3
0.024	0.0232	0.0022	0.0157	4.5
0.021	0.024	-0.0008	-0.0143	4.4
0.0127	0.0202	-0.0015	-0.024	4.7
0.009	0.0052	0.0007	-0.0046	4.7
0.0082	-0.0158	0.003	0.0105	4.8
0.0075	-0.0413	0.012	0.0037	4.9
0.0105	-0.0443	0.0217	0.0022	5
0.0112	-0.0233	0.0345	0.0052	5
0.0127	-0.0195	0.0465	0.0075	5.3
0.0142	-0.0188	0.0592	-0.0091	5.3
0.012	-0.012	0.0712	-0.0405	5.4
0.012	-0.0068	0.0787	-0.0368	5.5
0.0142	0	0.0855	-0.0173	5.5
0.0157	-0.003	0.0885	-0.0083	5.7
0.0157	0.0007	0.0892	-0.0015	5.9
0.0172	0.0037	0.0892	0.0165	5.8
0.0165	0.0007	0.0855	0.0165	6.3
0.018	0.0045	0.081	0.0127	6.1
0.0165	0.0045	0.0735	0.009	6.5
0.0157	0.0075	0.063	0.0015	6.2
0.018	0.009	0.0495	0.0037	6.7
0.0172	0.009	0.0337	0.003	6.4
0.0157	0.0075	0.0157	0.006	6.8
0.0157	-0.0023	-0.003	0.0022	6.6
0.0142	-0.0015	-0.0195	-0.0008	7.1
0.0157	0.0045	-0.0353	0.0007	6.9
0.0112	0.006	-0.048	-0.0008	7.2
0.0045	0.0052	-0.0578	0.006	7.3
-0.0046	0.0045	-0.0668	0.0097	7.4
-0.0158	0.0045	-0.0743	0.0127	7.6
-0.03	0.0052	-0.0803	0.0127	7.6
-0.0503	0.0052	-0.0856	0.0127	7.8
-0.0675	0.0052	-0.0878	0.0097	8
-0.078	0.0052	-0.0871	0.0037	8.2
-0.0803	-0.0023	-0.0863	-0.0098	8.1
-0.063	-0.0113	-0.0803	-0.0195	8.5
-0.0383	-0.0075	-0.0691	-0.0203	8.4
-0.0383	0.0007	-0.0548	-0.0375	8.8
-0.0353	0.006	-0.0428	-0.0428	8.8
-0.024	0.0127	-0.0323	-0.0203	9.2
-0.0405	0.0112	-0.0233	0.0037	9.1
-0.0428	0.0082	-0.0158	0.0157	9.4
-0.0308	0.0082	-0.0098	0.021	9.4
-0.0233	0.0067	-0.006	0.0232	9.7
-0.0195	0.003	0.0015	0.0195	9.9
-0.0218	-0.003	0.0142	0.0127	10
-0.027	-0.0098	0.027	0.003	10.1
-0.0368	-0.0188	0.0412	-0.0023	10.3
-0.0473	-0.0158	0.0577	-0.0091	10.5
-0.0518	-0.0091	0.0765	-0.027	10.7
-0.0555	-0.003	0.0937	-0.0383	10.7
-0.054	0.0007	0.1087	-0.0375	11.1
-0.0533	-0.0053	0.1177	-0.0308	11.1
-0.0518	-0.0046	0.1237	-0.0195	11.5
-0.048	-0.003	0.1237	-0.0143	11.5
-0.0443	-0.0068	0.1237	-0.0091	11.7
-0.042	-0.003	0.12	0.0007	11.8
-0.0383	0	0.1185	0.0022	12.1
-0.0361	0.0007	0.1147	0.0037	12.1
-0.0315	0.0015	0.108	0.0067	12.6
-0.0263	0.0082	0.1027	0.0105	12.6
-0.0225	0.0135	0.096	0.0187	12.8
-0.0181	0.0165	0.09	0.0232	13
-0.0158	0.018	0.0825	0.0255	13.1
-0.0143	0.009	0.078	0.027	13.5
-0.0143	0.0082	0.0712	0.033	13.4
-0.0128	0.0157	0.066	0.0345	13.8
-0.0068	0.0097	0.0592	0.03	13.8
0.0015	0.0045	0.048	0.024	14.1
0.009	-0.0015	0.0442	0.009	14.2
0.0127	-0.0256	0.0382	-0.012	14.4
0.0195	-0.0285	0.0315	-0.045	14.7
0.0232	-0.0173	0.0292	-0.0578	15
0.0232	-0.0256	0.0255	-0.0578	14.9
0.027	-0.0368	0.0225	-0.0848	15.3
0.033	-0.0293	0.018	-0.0915	15.4
0.0397	-0.0046	0.015	-0.0788	15.6
0.0397	0.0067	0.0127	-0.0436	15.9
0.0405	0.0045	0.0097	0.009	16.2
0.0442	0.003	0.009	0.0382	16.2
0.0427	-0.0091	0.0097	0.0367	16.5
0.042	-0.0068	0.0112	0.027	16.5
0.0405	0.0105	0.0105	0.0217	16.9
0.039	0.0187	0.0142	0.0225	17.1
0.0367	0.021	0.0187	0.0292	17.3
0.0345	0.0157	0.0232	0.0465	17.6
0.0277	0.009	0.0307	0.0645	17.9
0.024	0.0105	0.0397	0.0772	18.1
0.0255	0.0127	0.045	0.0907	18.2
0.024	0.0112	0.0495	0.0787	18.5
0.0217	0.0007	0.0525	0.048	18.6
0.0202	-0.0285	0.0517	0.009	19
0.0217	-0.0563	0.0442	-0.042	19.3
0.0217	-0.0428	0.03	-0.0788	19.4
0.0202	-0.003	0.0127	-0.1028	19.6
0.0195	0.0367	-0.003	-0.1253	20
0.0187	0.0652	-0.0158	-0.1298	20
0.0202	0.0457	-0.0308	-0.1013	20.7
0.0217	0.012	-0.0465	-0.0803	20.5
0.0217	0.0142	-0.066	-0.057	20.9
0.0247	0.0045	-0.0945	-0.0015	21.3
0.0277	-0.0105	-0.1305	0.0157	21.7
0.0315	-0.0091	-0.165	0.0225	21.9
0.0367	-0.0015	-0.2011	0.048	22.2
0.039	0.0097	-0.2363	0.0547	22.4
0.042	0.0127	-0.267	0.0577	22.7
0.0472	0.0127	-0.2948	0.054	23.1
0.0517	0.0105	-0.312	0.045	23.3
0.0562	-0.0008	-0.318	0.042	23.7
0.0622	-0.0188	-0.3105	0.0442	23.8
0.0682	-0.0315	-0.2925	0.033	24.3
0.0637	-0.0203	-0.267	0.0082	24.5
0.0675	-0.0128	-0.2333	-0.0368	25
0.0757	-0.0143	-0.1943	-0.0713	25
0.0712	0.0082	-0.1523	-0.0511	25.6
0.0742	0.027	-0.1118	-0.003	25.7
0.0742	0.0015	-0.0691	0.006	26.1
0.0735	-0.027	-0.0263	-0.0046	26.2
0.0787	-0.0158	0.0127	-0.0015	26.9
0.0757	0.0037	0.045	0.0067	26.8
0.0712	-0.0083	0.072	0.003	27.4
0.0615	-0.0278	0.0915	-0.0038	27.3
0.051	-0.03	0.0997	0.012	27.9
0.0427	-0.027	0.0997	0.0105	28.2
0.03	-0.0233	0.0967	-0.0015	28.3
0.0165	-0.0158	0.09	-0.0053	28.7
-0.0158	0	0.078	0.003	28.8
-0.0893	0.0165	0.0645	0.003	29.2
-0.2055	0.021	0.042	-0.0195	29.6
-0.3391	0.0097	0.0157	-0.0405	29.7
-0.4328	0.009	-0.0091	-0.0578	29.9
-0.4425	0.0135	-0.042	-0.063	30.2
-0.3998	0.0067	-0.0743	-0.0353	30.4
-0.3383	0.0045	-0.1088	0.0067	30.8
-0.2543	0.0067	-0.1418	0.0165	31
-0.159	0.0082	-0.1711	0.021	31.5
-0.0593	0.0105	-0.192	0.0195	31.5
0.0292	0.0075	-0.2033	0.0142	31.9
0.0945	0.0097	-0.2063	0.015	32
0.1432	0.012	-0.2048	0.012	32.3
0.1597	0.0082	-0.1988	0.0165	32.8
0.1665	-0.0008	-0.186	0.0165	32.9
0.156	-0.0083	-0.1703	0.0082	32.8
0.1162	-0.0105	-0.1493	-0.0105	33.4
0.078	-0.0165	-0.1253	-0.0068	33.3
0.0367	-0.0188	-0.099	0.009	33.8
-0.0068	-0.0128	-0.0721	0.018	33.7
-0.0555	-0.015	-0.0428	0.0232	34.3
-0.093	-0.0308	-0.0158	0.0142	34.3
-0.1193	-0.0195	0.009	0.0007	34.8
-0.15	0.0067	0.0337	-0.012	34.8
-0.1613	0.003	0.0577	-0.0248	35.2
-0.153	-0.0075	0.0802	-0.0525	35.2
-0.1275	-0.012	0.096	-0.0698	35.6
-0.0795	-0.0105	0.1072	-0.0405	35.8
-0.0195	-0.006	0.114	-0.0023	36
0.0532	0.0007	0.117	0.003	36.4
0.1477	0.0052	0.1162	0.0052	36.4
0.2542	0.0022	0.1087	0.0037	36.8
0.333	0.0045	0.1027	0.0007	36.9
0.3607	0.003	0.093	0.0015	37.2
0.357	0.003	0.084	0.0007	37.3
0.3097	0.0045	0.0727	0.0015	37.9
0.2325	0.0045	0.0615	0.0007	37.8
0.1747	0.0045	0.054	0.0007	38.3
0.1087	0.003	0.0457	-0.0015	38.3
0.0487	0.0015	0.0382	-0.0023	38.7
0.009	-0.0023	0.0277	-0.003	38.7
-0.048	-0.0046	0.018	0.0007	39.2
-0.1178	-0.0053	0.012	0.0067	39.3
-0.1875	-0.0053	0.0067	0.0067	39.6
-0.2543	-0.003	0	0.0052	39.9
-0.3135	-0.003	-0.0038	0.0022	40.2
-0.3615	0.0007	-0.0083	0	40.4
-0.399	0.0052	-0.012	-0.003	40.7
-0.4275	0.0112	-0.0143	-0.0046	41
-0.4403	0.0142	-0.0173	-0.0105	41.5
-0.438	0.0142	-0.0165	-0.0188	41.6
-0.423	0.0135	-0.0165	-0.0165	42.2
-0.4021	0.0082	-0.0158	-0.0083	42.3
-0.3698	0.0022	-0.0128	-0.0098	42.7
-0.3375	0.0007	-0.0105	-0.0091	43.1
-0.2985	-0.0008	-0.006	0.003	43.6
-0.2573	-0.0023	-0.0038	0.0037	43.9
-0.2183	-0.0023	0.0015	0.0022	44.4
-0.1763	-0.0038	0.0135	0.003	44.5
-0.1328	-0.0015	0.0285	0.0015	45
-0.0863	-0.0008	0.0465	0.0015	45.4
-0.0405	0.0007	0.069	0.0015	45.7
0.0052	0.0015	0.093	0.0022	46.2
0.054	0.0007	0.1155	0.0015	46.5
0.0967	0.0022	0.1365	0.0007	47
0.1342	0.0022	0.156	-0.0023	47.1
0.1687	0.0037	0.1702	-0.0046	47.7
0.1995	0.0052	0.1777	-0.0046	47.9
0.2235	0.0045	0.1762	-0.0046	48.4
0.2415	0.0067	0.1657	-0.0015	48.6
0.255	0.0067	0.1507	0.0007	49
0.2647	0.0045	0.132	0.0007	49.2
0.2685	0.003	0.1117	0	49.8
0.267	0.0022	0.0937	-0.0015	49.8
0.2655	0.0015	0.0787	-0.0053	50.3
0.2632	0.0007	0.0682	-0.0046	50.6
0.2542	0	0.0607	-0.0053	50.7
0.2407	-0.0008	0.0562	-0.0046	51.2
0.2242	0.0015	0.0555	-0.006	51.3
0.2047	0.0007	0.054	-0.0053	51.6
0.1815	0.0007	0.051	-0.0015	52
0.1575	0.003	0.045	-0.0015	52.2
0.1327	0.003	0.0382	0	52.3
0.1087	0.003	0.033	0.0007	52.5
0.0825	0.0045	0.0277	0.0015	52.8
0.057	0.0045	0.0202	0.0022	52.9
0.027	0.003	0.0157	0.003	53.3
-0.0053	0	0.012	0.0067	53.4
-0.0353	-0.0008	0.009	0.0067	53.4
-0.063	-0.0015	0.0082	0.0052	53.7
-0.0758	-0.003	0.0082	0.0045	54
-0.0825	-0.003	0.0112	0.0037	54.1
-0.0856	-0.003	0.012	0.0045	54.4
-0.0863	-0.0038	0.0142	0.0037	54.5
-0.093	-0.0038	0.0157	-0.0008	54.5
-0.099	-0.0053	0.0142	-0.0091	54.8
-0.1103	-0.0053	0.0127	-0.012	54.8
-0.114	-0.0053	0.0082	-0.0105	55.1
-0.105	-0.0046	0.0045	-0.0083	55.1
-0.09	-0.0053	0.0015	-0.0053	55.4
-0.066	-0.0046	0	-0.0038	55.4
-0.039	-0.0046	-0.0008	-0.003	55.6
-0.0128	-0.006	0.0007	0.0007	55.6
0.0157	-0.0053	-0.0008	0.003	55.8
0.0442	-0.0046	0	0.003	55.9
0.069	-0.003	0.0022	0.0022	56.2
0.09	-0.0023	0.0022	0.0007	56.1
0.1072	-0.0015	0.006	0.0007	56.5
0.1125	-0.0008	0.0105	0.0007	56.6
0.1237	-0.0008	0.0127	0.0015	56.6
0.1402	-0.003	0.018	0.0022	57.1
0.156	-0.003	0.024	0.0015	57
0.1612	-0.0015	0.0277	0.0022	57.2
0.1515	-0.003	0.0322	0.0022	57.2
0.1387	-0.0038	0.036	0.0015	57.4
0.123	-0.003	0.039	0.0015	57.4
0.1095	-0.0046	0.039	0.0007	57.9
0.0937	-0.003	0.0397	0.0015	57.7
0.078	-0.003	0.0382	0.0007	58
0.0622	-0.003	0.036	0.0007	58.1
0.0457	-0.0023	0.033	0.0007	58.4
0.0345	-0.0023	0.0292	0.0007	58.4
0.024	-0.0008	0.0255	0.0015	58.8
0.0142	-0.0008	0.0225	0.0007	58.9
0.006	-0.0015	0.021	0	59.1
-0.0015	-0.0023	0.018	-0.0015	59.2
-0.0098	-0.003	0.0127	-0.003	59.2
-0.0158	-0.003	0.0105	-0.0053	59.4
-0.0218	-0.0015	0.009	-0.0053	59.7
-0.03	0	0.006	-0.0046	59.8
-0.033	0.0007	0.0022	-0.0046	60
-0.033	0.0007	-0.0008	-0.0038	60.2
-0.0361	0.0022	-0.003	-0.003	60.2
-0.0398	0.003	-0.0053	-0.0053	60.3
-0.0405	0.003	-0.0068	-0.006	60.3
-0.0436	0.0037	-0.0091	-0.0046	60.4
-0.0465	0.0052	-0.0098	-0.003	60.4
-0.0518	0.006	-0.0091	-0.0023	60.8
-0.0563	0.0052	-0.0105	-0.003	60.8
-0.0578	0.0037	-0.0105	-0.0023	60.8
-0.0615	0.003	-0.0128	-0.0015	61
-0.063	0.003	-0.0181	-0.0023	60.8
-0.066	0.0037	-0.0233	-0.0015	61.1
-0.0728	0.0037	-0.0278	-0.0015	61.2
-0.0773	0.0052	-0.0308	-0.0015	61.1
-0.0818	0.0052	-0.0361	-0.0015	61.3
-0.0848	0.0045	-0.0413	0.0015	61.1
-0.0893	0.0037	-0.045	0.0007	61.4
-0.0915	0.0037	-0.0495	0.0007	61.1
-0.093	0.003	-0.0533	0.0007	61.5
-0.093	0.003	-0.054	0	61.3
-0.0938	0.0022	-0.054	0.0007	61.5
-0.0945	0.0022	-0.0555	0	61.3
-0.0938	0.0007	-0.054	0.0007	61.6
-0.0938	0.0007	-0.0533	0.0007	61.3
-0.0915	0.0007	-0.0503	0.0007	61.5
-0.0893	0.0007	-0.0518	0.0007	61.6
-0.0871	-0.0008	-0.0511	-0.0008	61.4
-0.0856	-0.0008	-0.0503	-0.0015	61.6
-0.0818	-0.0008	-0.0503	-0.0008	61.4
-0.078	-0.003	-0.0495	-0.0023	61.6
-0.0728	-0.0015	-0.0495	-0.003	61.4
-0.0691	-0.0008	-0.0495	-0.003	61.7
-0.0683	-0.0008	-0.0488	-0.0038	61.4
-0.0653	-0.0015	-0.048	-0.0038	61.7
-0.0638	-0.003	-0.0458	-0.003	61.4
-0.0615	-0.0038	-0.0458	-0.003	61.6
-0.0615	-0.0023	-0.0443	-0.0015	61.4
-0.0585	-0.0008	-0.042	0	61.7
-0.054	0	-0.0405	0.0007	61.2
-0.0533	0.0007	-0.0368	-0.0008	61.6
-0.0503	0.0007	-0.0346	-0.0015	61.3
-0.0495	-0.0008	-0.0308	-0.0023	61.3
-0.0473	-0.0008	-0.0293	-0.003	61.3
-0.0443	-0.0008	-0.027	-0.003	61.2
-0.039	-0.003	-0.0233	-0.0053	61.4
-0.0346	-0.0053	-0.0203	-0.0091	61.2
-0.0315	0	-0.0158	-0.0083	61.1
-0.0293	0.0007	-0.0113	-0.0083	61.1
-0.0263	0.0015	-0.0083	-0.0053	61.1
-0.0248	0.0022	-0.006	-0.0053	61.1
-0.0203	0.0015	-0.0046	-0.0053	61.1
-0.0181	0.0022	-0.003	-0.003	61.1
-0.0158	0.0022	-0.0015	-0.0008	61
-0.0128	0.0022	0	0.0015	60.8
-0.0105	0.0007	0.0015	0.0015	60.9
-0.0068	0.0007	0.0052	0.003	60.8
-0.003	0.0015	0.0067	0	60.7
-0.0008	0.0015	0.0082	-0.003	60.6
0.0045	0.0015	0.0105	-0.0053	60.5
0.0052	0.0007	0.0135	-0.0068	60.4
0.0097	0.0015	0.0142	-0.0068	60.4
0.012	0.0015	0.0157	-0.0068	60.2
0.0127	0.0015	0.0165	-0.0068	60.3
0.0142	0.0015	0.0187	-0.0075	59.9
0.0142	0.003	0.0195	-0.0068	60
0.018	0.003	0.0225	-0.0053	59.7
0.0187	0.0015	0.0232	-0.0068	59.8
0.0202	0.0015	0.0217	-0.0068	59.6
0.0217	0.003	0.0217	-0.0068	59.7
0.0195	0.0022	0.0195	-0.0053	59.2
0.0187	0.0015	0.0165	-0.0053	59.4
0.0165	0.0015	0.015	-0.0046	59.1
0.0172	0.0007	0.012	-0.003	59.1
0.018	-0.0008	0.0105	-0.0038	59
0.0187	-0.0015	0.0105	-0.0046	58.8
0.0202	-0.0015	0.0105	-0.0046	58.7
0.021	-0.003	0.012	-0.0046	58.5
0.021	-0.003	0.0142	-0.0046	58.4
0.0202	-0.0023	0.018	-0.003	58.2
0.0187	-0.0023	0.0217	-0.0046	58
0.0195	-0.003	0.0232	-0.0046	57.8
0.0202	-0.003	0.0247	-0.0046	57.7
0.021	-0.0015	0.027	-0.003	57.5
0.0202	-0.0015	0.0292	-0.003	57.3
0.0202	-0.0023	0.0277	-0.003	57.1
0.021	-0.0015	0.0262	-0.0046	57.1
0.021	-0.003	0.0232	-0.0046	56.7
0.0202	-0.0015	0.0187	-0.0046	56.7
0.0202	-0.0023	0.0142	-0.0046	56.5
0.0195	-0.003	0.009	-0.0046	56.2
0.018	-0.0015	0.0082	-0.0053	55.9
0.0157	-0.0008	0.0045	-0.0038	56
0.015	-0.0008	0.0015	-0.003	55.5
0.0135	-0.0008	0.0015	-0.0038	55.5
0.012	0	0.0007	-0.003	55.1
0.012	-0.0008	-0.0015	-0.0046	55.1
0.0105	0.0007	-0.0015	-0.0053	54.7
0.0075	0.0015	-0.0015	-0.0053	54.7
0.006	0.0022	-0.0053	-0.0038	54.3
0.0052	0.0015	-0.0091	-0.003	54.3
0.0052	0.0007	-0.012	-0.0008	53.9
0.0045	0.0007	-0.0128	0.0007	54
0.0022	0.0015	-0.0135	-0.0015	53.5
0.0015	0.0007	-0.012	-0.0015	53.6
0.003	0	-0.0128	-0.0015	53.3
0.0015	0	-0.0128	0.0007	53.1
0	-0.0008	-0.012	0.0015	52.8
-0.0023	-0.0015	-0.0128	-0.0015	52.6
-0.003	-0.0015	-0.012	-0.003	52.6
-0.0023	-0.003	-0.0098	-0.0053	52.3
-0.0038	-0.003	-0.0105	-0.0046	52.2
-0.0053	-0.0008	-0.0105	-0.006	51.9
-0.0053	-0.0023	-0.0091	-0.0075	51.7
-0.0068	-0.0053	-0.0091	-0.0068	51.4
-0.0083	-0.0053	-0.0091	-0.0075	51.4
-0.0105	-0.0068	-0.0068	-0.0083	51
-0.0105	-0.0053	-0.0068	-0.0068	51
-0.0098	0.0007	-0.0068	-0.0068	50.5
-0.012	0.0082	-0.0083	-0.0075	50.7
-0.012	0.009	-0.0091	-0.0053	50.2
-0.0113	0.0015	-0.0105	-0.003	50
-0.012	0.0067	-0.0098	-0.0023	49.8
-0.0128	0.009	-0.0105	-0.0046	49.5
-0.012	0.0015	-0.0091	-0.0068	49.3
-0.0135	0.0022	-0.0098	-0.0023	49
-0.015	-0.0046	-0.012	0.0052	48.8
-0.0143	-0.0091	-0.0128	0.009	48.5
-0.0135	-0.0098	-0.012	0.0097	48.2
-0.0128	-0.0053	-0.0128	0.0052	48
-0.0105	0	-0.0128	0.0022	47.7
-0.0105	-0.0046	-0.0128	0.0007	47.4
-0.0113	-0.0038	-0.0128	-0.0008	47.2
-0.0098	-0.0046	-0.0128	0.0007	46.9
-0.0053	-0.0023	-0.0128	-0.0008	46.6
-0.0046	-0.0008	-0.0128	-0.0023	46.4
-0.003	-0.0008	-0.0128	-0.0023	46.3
-0.0038	-0.0008	-0.0135	-0.0015	45.8
-0.0015	-0.0038	-0.012	-0.0015	45.4
0.0007	-0.0023	-0.0105	0.0015	45.4
0	-0.0046	-0.0128	0.0105	45
0.0015	-0.0075	-0.0113	0.0127	44.5
0.0007	-0.012	-0.0105	0.0127	44.5
-0.0008	-0.0158	-0.0083	0.012	43.9
-0.0015	-0.0046	-0.0091	-0.0158	44
-0.006	0.006	-0.0083	-0.0488	43.3
-0.015	0.0045	-0.0105	-0.033	43.2
-0.024	0.0022	-0.0135	-0.0075	42.7
-0.021	0.0015	-0.015	-0.003	42.8
-0.0128	-0.0046	-0.0128	0.0082	42.1
-0.0046	-0.0091	-0.0135	0.0097	42
0.0067	-0.0091	-0.0143	0.0067	41.5
0.012	-0.0023	-0.0158	0.0082	41.4
0.0082	0	-0.0158	0.0127	40.9
-0.0008	-0.003	-0.0143	0.0157	40.6
-0.0135	0.0007	-0.0135	0.0142	40.2
-0.021	-0.0015	-0.0098	0.027	40
-0.0181	-0.003	-0.0053	0.0232	39.8
-0.0091	0.0007	-0.003	0	39.3
0.0007	-0.0075	0.0015	0.018	39
0.0067	-0.0233	0.0075	0.0502	38.6
0.009	-0.0263	0.0105	0.0067	38.3
0.0082	-0.0158	0.018	-0.0465	38
0.0067	-0.0053	0.0217	-0.0503	37.7
-0.0008	0.0082	0.0232	-0.0878	37.2
-0.0098	0.018	0.0277	-0.0563	37
-0.0158	0.0202	0.0352	0.0067	36.5
-0.015	0.0112	0.0405	0.0345	36.2
-0.0083	0	0.0412	0.0667	35.7
0.0007	-0.0053	0.0457	-0.0443	35.3
0.003	-0.0113	0.0517	-0.1223	35
0.0022	0	0.057	-0.048	34.8
-0.0015	0.018	0.0577	-0.0098	34.5
-0.006	0.0247	0.0555	-0.0181	34.2
-0.0075	0.0277	0.0577	0.0172	33.6
-0.006	0.0135	0.0622	0.0585	33.4
-0.0068	-0.0218	0.0675	0.054	32.8
-0.0091	-0.0683	0.072	0.0442	32.6
-0.0105	-0.0413	0.075	0.069	32
-0.0091	0.0397	0.0772	-0.042	31.7
-0.0068	0.0345	0.0787	-0.1118	31.1
-0.003	0.018	0.0772	-0.0495	30.9
-0.0053	0.009	0.0742	-0.0443	30.4
-0.0091	-0.0105	0.0712	0.015	30.1
-0.0105	-0.0091	0.0667	0.0255	29.6
-0.0135	-0.0143	0.0607	0.0195	29.3
-0.0135	0.0007	0.0592	-0.0083	28.8
-0.0165	0.0045	0.0615	-0.0405	28.4
-0.0165	-0.0023	0.06	0.0495	28.2
-0.0143	-0.0008	0.0532	0.0637	27.6
-0.012	-0.0075	0.045	0.0382	27.3
-0.012	-0.0173	0.0367	0.0382	26.9
-0.012	-0.0113	0.0285	-0.0091	26.5
-0.0128	0.0007	0.0202	-0.0691	25.8
-0.012	-0.0128	0.0142	-0.0668	25.6
-0.0105	-0.0083	0.0097	-0.0181	25
-0.0113	0.0045	0.0105	-0.0068	24.7
-0.0091	0.0067	0.012	-0.0158	24.2
-0.0083	0.003	0.0097	-0.0218	23.9
-0.0068	-0.0068	0.0082	0.0015	23.3
-0.006	-0.0068	0.0067	0.0562	22.9
-0.0098	-0.0046	0.0045	0.1162	22.5
-0.0113	0.0022	0.0052	0.075	21.9
-0.0113	0.0045	0.0052	0.012	21.6
-0.0105	0.0052	0.0052	0.0232	21.2
-0.0091	0.012	0.009	-0.0008	20.7
-0.0091	0.0157	0.0097	-0.0165	20.3
-0.0038	0.0097	0.0127	-0.0218	19.8
-0.0008	-0.003	0.012	-0.0256	19.5
-0.0015	-0.0113	0.0112	-0.0218	19
-0.0008	-0.0218	0.0127	-0.0195	18.7
-0.003	-0.0165	0.012	0.0022	18.2
-0.003	0.0007	0.0112	0.0022	17.6
-0.0046	0.009	0.0097	-0.0015	17.1
-0.0053	0.0165	0.0067	0.009	17
-0.003	0.0202	0.0022	0.0165	16.3
-0.0008	0.018	-0.0015	0.0255	16
0.0015	0.0067	-0.006	0.0127	15.5
0.0015	0.0007	-0.0091	-0.0638	14.9
0.0007	0.009	-0.0091	-0.1088	14.5
-0.0015	0.0075	-0.0075	-0.0608	14.1
-0.0053	0.003	-0.0105	-0.0218	13.8
-0.0075	0.0015	-0.0143	-0.015	13.2
-0.006	-0.0015	-0.0188	-0.0181	13
-0.0046	-0.0015	-0.0263	-0.0308	12.5
-0.0046	-0.003	-0.03	-0.024	12.3
-0.003	-0.0053	-0.033	-0.0181	11.7
-0.0023	-0.0046	-0.0398	-0.0053	11.5
0.0015	-0.0015	-0.0458	0.0142	10.9
0.003	0.0015	-0.048	0.0262	10.7
0.0037	0.0015	-0.0533	0.0142	10.1
0.0022	0.0007	-0.0555	-0.0038	10
0.0007	-0.0008	-0.0578	0.0082	9.5
0.0015	-0.0038	-0.0555	0.0247	9.1
0	-0.0023	-0.0503	0.042	8.7
-0.0046	-0.0046	-0.0473	0.0157	8.5
-0.0091	-0.0068	-0.0436	-0.012	8.1
-0.0158	-0.0068	-0.0398	-0.0046	7.6
-0.0158	-0.003	-0.0413	-0.012	7.3
-0.0128	0	-0.045	-0.0053	7
-0.006	0.003	-0.0511	0.0007	6.7
0.0015	0.0067	-0.0555	0.0007	6.3
-0.0015	0.0075	-0.0563	0.0045	6.2
-0.0083	0.0075	-0.054	0.0015	5.5
-0.0105	0.0067	-0.0511	0.0015	5.5
-0.0218	0.0075	-0.0503	-0.003	5
-0.0308	0.0052	-0.045	-0.0083	4.9
-0.033	0.0045	-0.0413	-0.0165	4.4
-0.033	0.0015	-0.0398	-0.0233	4.1
-0.0323	-0.0008	-0.0405	-0.0293	4
-0.0315	-0.0015	-0.042	-0.024	3.7
-0.03	-0.0068	-0.0398	-0.0046	3.5
-0.0285	-0.0091	-0.042	0.0217	3.2
-0.0278	-0.012	-0.0443	0.033	2.9
-0.0233	-0.0143	-0.0436	0.0202	2.7
-0.0165	-0.0105	-0.039	-0.003	2.4
-0.0143	-0.0038	-0.027	-0.0383	2.2
-0.0165	0.0045	-0.0098	-0.0368	1.9
-0.0203	0.006	0.0075	0.0052	1.7
-0.0233	0.0022	0.0277	0.0382	1.4
-0.0278	-0.0046	0.0495	0.0307	1.3
-0.033	-0.006	0.0652	0.0015	1
-0.0368	0.0037	0.0825	-0.0225	0.7
-0.039	0.009	0.0982	-0.0608	0.7
-0.0398	0.0082	0.1027	-0.0608	0.4
-0.0353	-0.0015	0.0967	-0.0091	0.1
-0.0308	-0.0113	0.0862	0.0292	-0.3
-0.024	-0.0053	0.0727	0.0322	-0.2
-0.0128	-0.0068	0.0607	0.027	-0.6
0	-0.0083	0.0532	0.0045	-0.6
0.0075	-0.0023	0.045	0.0007	-1.1
0.012	0	0.039	0.0652	-1
0.0195	0.0075	0.0352	0.1117	-1.4
0.0315	0.0075	0.033	0.0877	-1.3
0.042	0.009	0.0345	0.012	-1.8
0.051	0.0195	0.0405	-0.0706	-1.8
0.06	0.033	0.0577	-0.1065	-2.2
0.066	0.0397	0.0802	-0.09	-2.1
0.072	0.0255	0.1042	-0.0518	-2.4
0.078	-0.0015	0.12	-0.0383	-2.3
0.0832	-0.012	0.1335	-0.0353	-2.6
0.0892	-0.0015	0.1507	-0.0308	-2.7
0.0907	0.0007	0.1732	-0.042	-2.8
0.09	0.0007	0.2032	-0.0285	-3
0.0892	0.0045	0.2535	-0.0105	-3.2
0.0877	0.003	0.3405	0.0127	-3.3
0.0877	0.0007	0.4342	0.0352	-3.2
0.0862	-0.0053	0.5392	0.0405	-3.6
0.078	-0.0083	0.6892	0.0427	-3.5
0.0735	-0.0091	0.8685	0.042	-3.7
0.0675	-0.0105	1.0252	0.042	-3.6
0.0615	-0.0091	1.0762	0.033	-3.8
0.0562	-0.0068	0.9975	0.0277	-3.6
0.0495	-0.0068	0.9165	0.021	-3.9
0.0457	-0.0105	0.8415	0.012	-3.7
0.0405	-0.0143	0.7732	0.0067	-3.9
0.039	-0.0181	0.711	-0.0015	-3.9
0.042	-0.0181	0.6517	-0.0053	-3.9
0.0427	-0.0158	0.5422	-0.0105	-4
0.0495	-0.0158	0.381	-0.012	-4
0.054	-0.0143	0.1477	-0.012	-3.7
0.06	-0.0128	-0.1155	-0.0091	-3.9
0.069	-0.0083	-0.3735	-0.0046	-3.7
0.0705	-0.0015	-0.6383	-0.003	-3.9
0.0705	0.0022	-0.879	-0.0046	-3.7
0.0667	0.0022	-1.0935	-0.0053	-3.8
0.0592	0.0015	-1.2885	-0.0068	-3.6
0.0405	0.0007	-1.4408	-0.0091	-3.8
0.021	0.0007	-1.5593	-0.0053	-3.6
0.0097	0.0022	-1.6485	-0.003	-3.7
0.0015	0.0007	-1.7153	-0.0015	-3.3
-0.0068	0.0022	-1.6928	-0.0023	-3.6
-0.0188	0.003	-1.5525	-0.0008	-3.3
-0.015	0.0015	-1.4206	0.0007	-3.3
-0.0091	0.003	-1.2998	0	-3.3
-0.063	0.0015	-1.1903	0.0007	-3.3
-0.2288	0	-1.0913	0.0015	-3.3
-0.4478	0.0015	-1.0013	0.0015	-3.1
-0.6533	0.0037	-0.918	0.0045	-3.1
-0.7808	0.003	-0.843	0.0037	-2.9
-0.7343	0.0052	-0.7733	0.0052	-3.1
-0.5985	0.0045	-0.711	0.0037	-3
-0.4238	0.0045	-0.648	0.0015	-3
-0.1853	0.0052	-0.5235	0.0015	-2.8
0.0615	0.0037	-0.3098	0	-3
0.213	0.0015	-0.0833	-0.0023	-2.9
0.333	0.0007	0.1327	-0.0008	-2.9
0.4275	0.0022	0.3345	0.0007	-2.7
0.3997	0.0037	0.4942	0	-2.8
0.3375	0.0052	0.6172	0.0022	-2.9
0.2055	0.0052	0.684	0.0015	-2.8
0.0517	0.0007	0.714	-0.0053	-2.8
-0.0923	-0.003	0.72	-0.0083	-2.7
-0.231	-0.0015	0.699	-0.0083	-2.7
-0.3278	0	0.6547	-0.0053	-2.7
-0.414	0.0007	0.5947	-0.0053	-2.7
-0.4538	0.0007	0.5287	-0.0098	-2.6
-0.4515	-0.003	0.4552	-0.0098	-2.6
-0.4118	-0.003	0.3765	-0.0098	-2.6
-0.3758	-0.0015	0.297	-0.0098	-2.4
-0.3533	-0.003	0.2182	-0.0053	-2.5
-0.3345	-0.0008	0.1477	0.0045	-2.3
-0.3293	0.003	0.0937	0.009	-2.3
-0.333	0.003	0.0607	0.009	-2.2
-0.3413	0.0015	0.045	0.003	-2.3
-0.3406	-0.0015	0.0465	0	-2.2
-0.3428	-0.003	0.0532	-0.0046	-2.1
-0.3308	-0.0038	0.0615	-0.0068	-2.1
-0.2903	-0.0083	0.0787	-0.0083	-2
-0.2235	-0.0098	0.105	-0.0105	-2
-0.1553	-0.0135	0.1335	-0.0105	-1.8
-0.096	-0.0135	0.156	-0.0113	-2
-0.024	-0.0105	0.1725	-0.0233	-1.6
0.0412	-0.0068	0.1777	-0.045	-1.8
0.1117	0.0045	0.1807	-0.0563	-1.6
0.1935	0.0157	0.18	-0.0443	-1.7
0.2722	0.0202	0.1845	-0.024	-1.5
0.3457	0.0157	0.1957	-0.0008	-1.7
0.39	0.0045	0.21	0.0232	-1.3
0.4087	-0.0038	0.2257	0.0367	-1.4
0.4305	-0.0098	0.2422	0.0405	-1
0.4575	-0.0113	0.2467	0.0405	-1.1
0.486	-0.003	0.237	0.033	-1
0.5137	0.0045	0.222	0.0292	-0.9
0.5257	0.0015	0.2025	0.018	-1
0.5205	-0.0046	0.186	0.0247	-0.6
0.504	-0.006	0.1672	0.057	-0.6
0.4717	-0.0023	0.144	0.0442	-0.3
0.4222	0.0015	0.12	0.0157	-0.6
0.3592	-0.0015	0.1012	-0.03	-0.1
0.2917	-0.0008	0.0892	-0.0645	-0.4
0.222	0.0105	0.0705	-0.0383	0
0.1522	0.0127	0.0532	-0.048	-0.2
0.0877	0.0075	0.0405	-0.1178	0.3
0.0232	0.0105	0.0345	-0.114	0.1
-0.0405	0.0232	0.0352	-0.0706	0.4
-0.1028	0.0382	0.0427	-0.0278	0.3
-0.159	0.0367	0.048	0.1042	0.6
-0.2048	0.033	0.0495	0.177	0.8
-0.2363	0.0345	0.0457	0.1687	0.9
-0.2573	0.0195	0.033	0.1027	0.8
-0.2655	0.0045	0.0217	-0.033	0.7
-0.2595	-0.006	0.015	-0.1523	1
-0.2333	-0.0278	0.0157	-0.1808	0.9
-0.198	-0.0473	0.015	-0.1238	1
-0.1628	-0.0443	0.0135	-0.0075	1.1
-0.1268	-0.0503	0.0105	0.069	1.3
-0.0938	-0.0683	0.0045	0.0052	1.3
-0.0668	-0.0645	0.0015	-0.021	1.3
-0.042	-0.042	0.003	-0.0248	1.3
-0.021	-0.0143	0.0045	0.003	1.5
0.0045	-0.0015	0.0052	0.0922	1.3
0.0337	-0.0105	0.003	0.1365	1.4
0.0705	-0.0203	0.0037	0.1462	1.4
0.1087	-0.0158	0.012	0.0832	1.5
0.141	0.0052	0.0142	-0.0578	1.3
0.1665	0.018	0.0142	-0.1365	1.3
0.1822	0.0412	0.0172	-0.1021	1.2
0.1987	0.069	0.0195	-0.0863	1.4
0.2115	0.0637	0.0202	-0.111	0.9
0.2145	0.0442	0.0225	-0.0668	1.3
0.2137	0.0202	0.024	0.0217	1.2
0.2085	0.006	0.0255	0.0465	1.3
0.1987	0	0.0225	0.108	1
0.1852	0.0045	0.0187	0.054	0.9
0.1702	0.009	0.0187	-0.1178	0.4
0.15	0.0015	0.0157	-0.0691	0.7
0.1305	-0.0068	0.012	0.0675	0.4
0.1155	-0.0046	0.0112	0.1485	0.3
0.1042	-0.012	0.009	0.1335	0
0.1012	-0.0248	0.009	-0.063	-0.2
0.1177	-0.0263	0.0127	-0.2363	-0.5
0.1432	-0.024	0.0202	-0.261	-0.9
0.1327	-0.015	0.0307	-0.2048	-0.8
0.138	-0.0046	0.0382	-0.1335	-1.4
0.1657	0.006	0.0442	-0.0083	-1.1
0.1447	0.0195	0.048	0.1612	-1.6
0.1125	0.0067	0.0382	0.1777	-1.5
0.0862	-0.0113	0.0217	0.1537	-2.2
0.0712	-0.0225	0.0067	0.132	-2.1
0.0652	-0.0203	-0.012	0.0307	-2.7
0.0457	0.0052	-0.0308	-0.0653	-2.7
0.0195	0.0255	-0.042	-0.0495	-3.1
-0.006	0.027	-0.0518	0.0315	-3
-0.0165	0.0165	-0.0638	0.0097	-3.3
-0.027	0.009	-0.0803	-0.0075	-3.3
-0.0383	0.0082	-0.0953	-0.012	-3.8
-0.0555	0.0165	-0.1028	-0.0091	-3.8
-0.0765	0.012	-0.1043	0.0307	-3.8
-0.1006	-0.0098	-0.096	0.0645	-3.9
-0.1215	-0.0128	-0.0953	0.0982	-3.8
-0.1411	-0.003	-0.0968	0.0772	-3.9
-0.1635	-0.0015	-0.0818	0.03	-3.9
-0.1815	-0.0038	-0.0548	0.0097	-4.2
-0.1958	0.0052	-0.024	0.0345	-4.1
-0.2026	0.021	-0.0083	0.0052	-4.2
-0.2055	0.0217	0.0007	0.0105	-4
-0.2085	0.0075	0.0127	0.0592	-4
-0.2085	-0.003	0.0127	0.0382	-3.9
-0.2093	-0.015	0.012	0.0555	-3.9
-0.2085	-0.0323	0.0067	0.0345	-3.6
-0.2108	-0.0436	0.0082	-0.0788	-3.6
-0.2108	-0.0308	0.024	-0.1785	-3.6
-0.2123	0.0105	0.0532	-0.216	-3.4
-0.2175	0.0195	0.0952	-0.2085	-3.2
-0.222	-0.0068	0.1297	-0.1995	-2.9
-0.2198	-0.027	0.1627	-0.0563	-2.4
-0.2138	-0.0436	0.1822	0.0255	-2.5
-0.1988	-0.054	0.186	-0.0368	-2.1
-0.1808	-0.0585	0.1912	-0.0706	-2
-0.1673	-0.0368	0.1995	-0.1763	-1.8
-0.156	0.0015	0.2167	-0.159	-1.7
-0.1523	0.0105	0.231	-0.0998	-1.4
-0.1448	0.0067	0.2182	-0.0555	-1.4
-0.129	0.0045	0.1957	0.0337	-1
-0.1155	0.003	0.1702	0.0667	-0.9
-0.1028	0.0067	0.1395	0.1132	-0.6
-0.09	0.0165	0.1087	0.1365	-0.5
-0.078	0.0225	0.0712	0.1215	-0.5
-0.0645	0.0262	0.033	0.066	-0.3
-0.0563	0.0292	-0.0015	0.0322	-0.4
-0.054	0.0217	-0.0338	0.0705	0
-0.0533	0.018	-0.0668	0.0757	-0.2
-0.0533	0.0157	-0.1065	0.048	0.1
-0.0488	0.0135	-0.1441	0.0142	-0.1
-0.0465	0.0165	-0.1823	0.0157	0.1
-0.0458	0.0195	-0.2198	0.0667	0
-0.0428	0.0142	-0.252	0.051	0.3
-0.0413	0.003	-0.2798	0.0315	0.1
-0.0353	0	-0.3008	0.036	0.3
-0.027	-0.0015	-0.315	0.0277	0.3
-0.0195	-0.0015	-0.315	0.0007	0.4
-0.0135	0.0045	-0.3068	-0.0495	0.2
-0.0075	0.0052	-0.297	-0.027	0.3
-0.0015	-0.0046	-0.2881	0.0232	0.4
0.0082	-0.0158	-0.2595	0.042	0.3
0.024	-0.0158	-0.2063	0.0397	0.4
0.0592	-0.0091	-0.1448	0.0307	0.3
0.0975	-0.0158	-0.0675	0.0067	0.2
0.105	-0.0128	0.0217	-0.0158	0.2
0.0982	0.0052	0.1147	0.0442	0.3
0.09	0.0112	0.198	0.0877	0.2
0.072	0.0105	0.279	0.06	0
0.0495	0.003	0.3525	0.057	0
0.0285	-0.0008	0.4087	0.0922	0.1
0.0165	-0.003	0.4597	0.0817	0
0.0157	-0.0105	0.51	-0.0758	0
0.0255	-0.012	0.57	-0.1635	-0.1
0.0382	0.0015	0.6337	-0.054	-0.2
0.0465	0.0247	0.6802	0.0292	-0.2
0.057	0.042	0.7342	-0.0158	-0.3
0.0607	0.051	0.8205	-0.1065	-0.4
0.0667	0.0525	0.912	-0.0803	-0.3
0.0877	0.0405	0.9705	0.033	-0.5
0.1162	0.015	0.9952	0.0307	-0.4
0.1402	-0.0248	0.9547	-0.0383	-0.6
0.1627	-0.0563	0.8692	-0.1035	-0.5
0.1807	-0.063	0.7365	-0.1028	-0.8
0.192	-0.0728	0.5677	-0.0165	-0.5
0.1972	-0.078	0.3525	0.0022	-0.8
0.1867	-0.054	0.1207	0.0315	-0.7
0.1642	-0.0263	-0.1095	-0.0046	-0.9
0.1335	-0.0128	-0.3413	-0.0263	-0.8
0.1155	0.003	-0.5715	0.0225	-1
0.1035	0.03	-0.8071	-0.012	-0.9
0.0742	0.0375	-1.038	-0.0361	-1
0.039	0.0337	-1.2593	-0.054	-1
0.0067	0.0285	-1.4693	-0.0353	-1.2
-0.0075	0.0165	-1.6688	0.0195	-1.4
-0.0143	0.0172	-1.791	0.0427	-1.2
-0.027	0.0165	-1.692	0.03	-1.4
-0.0346	0.0157	-1.5473	0.027	-1.2
-0.0323	0.0142	-1.4145	0.0217	-1.6
-0.0398	0.0082	-1.2938	0.0127	-1.4
-0.0593	0.0052	-1.1843	0.015	-1.7
-0.0675	0.0007	-1.0816	0.0075	-1.2
-0.0818	0	-0.9203	0.012	-1.3
-0.0968	-0.003	-0.7103	0.0067	-1.3
-0.111	-0.006	-0.4755	0.0052	-1.5
-0.1275	-0.0046	-0.2423	0.0045	-1.4
-0.1411	-0.0023	-0.0165	0.0045	-1.6
-0.1538	0.0015	0.1837	0.0067	-1.7
-0.1635	0.0045	0.3525	0.0037	-1.7
-0.1785	0.0045	0.4845	0.0045	-1.6
-0.1958	0.0052	0.5805	-0.0023	-1.8
-0.2198	0.0052	0.6472	-0.0068	-1.8
-0.246	0.0015	0.6787	-0.0075	-1.8
-0.2625	-0.0015	0.6802	-0.003	-1.9
-0.2745	-0.0098	0.6517	-0.0053	-1.9
-0.2798	-0.0173	0.606	-0.0083	-1.9
-0.2806	-0.0143	0.5445	-0.0098	-2
-0.2843	-0.0083	0.471	-0.0098	-1.9
-0.2836	-0.006	0.3967	-0.0053	-1.9
-0.2715	-0.0053	0.321	-0.006	-2.2
-0.2558	-0.0046	0.2475	-0.0053	-2.1
-0.231	-0.0038	0.186	-0.0053	-2
-0.2018	-0.0015	0.135	-0.0046	-2.1
-0.1711	-0.0015	0.0885	-0.0046	-2
-0.1365	-0.0015	0.0532	-0.0053	-2
-0.1021	-0.0008	0.0277	-0.006	-2.1
-0.0675	-0.0008	0.012	-0.0068	-1.9
-0.0346	-0.0023	0.0052	-0.006	-2.1
-0.0015	-0.0015	0.0097	-0.006	-1.8
0.0292	-0.003	0.0195	-0.006	-2.1
0.054	-0.0046	0.0315	-0.0068	-1.8
0.0742	-0.0068	0.0465	-0.006	-2
0.0915	-0.0068	0.0622	-0.0053	-1.7
0.1035	-0.0046	0.0802	-0.006	-1.9
0.1087	-0.003	0.099	-0.0053	-1.7
0.1102	-0.003	0.114	-0.0046	-1.9
0.1087	-0.0015	0.1275	-0.003	-1.8
0.108	-0.0008	0.135	-0.003	-1.9
0.1125	-0.0008	0.1425	-0.0015	-1.7
0.12	-0.0015	0.1477	-0.003	-1.8
0.129	-0.0015	0.1545	-0.0046	-1.8
0.1365	-0.0015	0.1627	-0.0046	-1.7
0.1432	-0.0015	0.1695	-0.0046	-1.8
0.1447	-0.0008	0.174	-0.003	-1.6
0.1462	-0.0015	0.18	-0.0015	-1.9
0.1552	0	0.1875	-0.003	-1.7
0.1627	-0.0008	0.1897	-0.0038	-1.8
0.171	-0.0023	0.177	-0.0046	-1.7
0.1755	-0.0015	0.159	-0.0046	-1.9
0.1762	-0.0023	0.1357	-0.0023	-1.6
0.1762	0.0007	0.1072	-0.0015	-1.7
0.1702	0.0007	0.0787	-0.0008	-1.6
0.1657	0	0.054	0.0007	-1.8
0.1687	0.0007	0.0345	-0.0008	-1.6
0.168	0.0022	0.0165	-0.0015	-1.7
0.1597	0.0015	0.0045	-0.003	-1.6
0.1537	0.0015	-0.003	-0.0053	-1.8
0.1522	0.0007	-0.0083	-0.0038	-1.8
0.1462	0.0007	-0.0105	-0.003	-1.8
0.1372	0.0015	-0.015	-0.003	-1.7
0.1237	-0.0015	-0.015	-0.003	-1.5
0.1125	-0.0015	-0.0165	-0.0038	-1.6
0.1057	-0.0015	-0.0256	-0.003	-1.5
0.0975	-0.0008	-0.0346	-0.003	-1.4
0.0945	-0.0008	-0.045	-0.0038	-1.6
0.0945	-0.0008	-0.0548	-0.0038	-1.6
0.0915	0.0007	-0.0653	-0.003	-1.6
0.0885	0.0007	-0.078	-0.003	-1.5
0.0862	0.0007	-0.0871	-0.0038	-1.6
0.084	0.003	-0.0975	-0.003	-1.5
0.0742	0.0015	-0.105	-0.003	-1.6
0.063	-0.0008	-0.111	-0.0046	-1.4
0.0495	0.0007	-0.114	-0.003	-1.5
0.0367	0	-0.1155	-0.0023	-1.4
0.0255	-0.0008	-0.1125	-0.003	-1.4
0.0105	0.0007	-0.1088	-0.0038	-1.7
-0.0046	0	-0.1043	-0.003	-1.7
-0.0128	0.0007	-0.0953	-0.0023	-1.7
-0.0188	0.0007	-0.0863	-0.0015	-1.6
-0.027	0.0015	-0.0758	-0.0015	-1.6
-0.0338	0.0007	-0.0653	-0.003	-1.7
-0.0383	0.0007	-0.0555	-0.0015	-1.8
-0.0465	0.0007	-0.0458	-0.003	-1.7
-0.0593	-0.0008	-0.0368	-0.0038	-1.9
-0.078	-0.0023	-0.0278	-0.0046	-1.8
-0.0975	-0.0008	-0.0195	-0.003	-2
-0.108	-0.0008	-0.0091	-0.0023	-1.9
-0.1065	0.0015	-0.0015	0.0015	-1.8
-0.099	0.0045	0.0052	0.012	-1.9
-0.0856	0.0127	0.012	0.0202	-1.9
-0.0788	0.021	0.0165	0.0255	-2
-0.0833	0.0142	0.0202	0.027	-1.9
-0.0923	0.0015	0.0232	0.021	-2.1
-0.099	-0.0075	0.027	0.0135	-2
-0.0998	-0.0158	0.0292	0.003	-2.1
-0.099	-0.0323	0.0315	-0.012	-2
-0.1028	-0.0488	0.0352	-0.0158	-2.3
-0.1065	-0.0353	0.033	-0.0158	-2.1
-0.111	-0.0105	0.033	-0.0353	-2.3
-0.117	-0.0113	0.0345	-0.0645	-2.2
-0.1223	-0.0075	0.0352	-0.0713	-2.3
-0.12	0.0157	0.039	-0.0518	-2.2
-0.1118	0.0277	0.0397	-0.0158	-2.3
-0.0975	0.024	0.0427	-0.0046	-2.3
-0.0856	0.0157	0.0457	-0.0225	-2.4
-0.075	0.0075	0.045	-0.0113	-2.2
-0.0585	0	0.0442	0.0292	-2.4
-0.0428	-0.0015	0.0412	0.03	-2.3
-0.0308	0.012	0.0442	-0.0188	-2.6
-0.0173	0.0202	0.0457	-0.0428	-2.3
-0.0015	0.009	0.042	-0.0128	-2.5
0.012	-0.006	0.0382	0.0127	-2.3
0.024	-0.0158	0.0382	0.0592	-2.6
0.033	-0.0068	0.0435	0.0952	-2.5
0.0397	0.0045	0.057	0.0105	-2.9
0.042	0.0007	0.0675	-0.0668	-2.4
0.0427	-0.0068	0.0712	-0.0578	-2.7
0.0487	-0.012	0.0712	-0.0511	-2.5
0.0547	-0.0158	0.072	-0.027	-2.7
0.0532	-0.0143	0.0735	0.0187	-2.6
0.0517	-0.0083	0.075	0.048	-2.6
0.0495	0.0045	0.0742	0.0495	-2.7
0.0465	0.0255	0.0675	-0.0165	-2.6
0.0442	0.0262	0.0592	-0.0346	-3
0.0382	0.0082	0.0532	-0.0188	-2.6
0.03	0.0075	0.051	-0.027	-3.1
0.024	-0.0008	0.0465	-0.039	-2.8
0.0172	-0.0346	0.0367	-0.0488	-3.1
0.012	-0.0375	0.0292	0.0412	-2.8
0.0075	-0.0091	0.024	0.06	-3.3
0.003	0.0052	0.018	0.0097	-2.8
-0.0015	0.003	0.0105	0.0307	-3.2
-0.006	-0.0075	0.0007	-0.0113	-2.9
-0.0128	-0.0083	-0.0091	-0.0413	-3.3
-0.0173	-0.0015	-0.0195	-0.0195	-3.2
-0.0195	0.0045	-0.027	0.0217	-3.2
-0.0225	0.0045	-0.0346	0.063	-3.3
-0.024	0.0067	-0.045	0.0592	-3.3
-0.0263	0.009	-0.054	0.0097	-3.3
-0.0256	0.0037	-0.063	-0.0338	-3.5
-0.0256	0.0097	-0.0743	0.0015	-3.5
-0.0248	0.0075	-0.0885	0.0075	-3.6
-0.024	-0.003	-0.1028	-0.0008	-3.6
-0.024	-0.0015	-0.1125	0.003	-3.6
-0.027	-0.003	-0.1215	-0.0143	-3.6
-0.0285	-0.003	-0.1275	-0.0165	-3.8
-0.0256	-0.0053	-0.135	-0.0098	-3.6
-0.0256	-0.0008	-0.1426	0	-3.9
-0.0256	0.0082	-0.1478	-0.0008	-3.9
-0.024	0.0037	-0.1523	-0.0038	-3.8
-0.024	-0.0015	-0.1545	-0.0083	-4
-0.0233	-0.006	-0.156	-0.003	-3.9
-0.0233	-0.0046	-0.1575	0.006	-4.1
-0.0225	0.0007	-0.1575	0.018	-4
-0.021	0.0082	-0.1568	0.033	-4.2
-0.0203	0.0127	-0.1538	0.0637	-3.9
-0.0181	0.0082	-0.1515	0.1005	-4.2
-0.0165	0.0082	-0.1508	0.0667	-4
-0.0128	0.0015	-0.1418	-0.0263	-4.4
-0.0128	-0.0068	-0.135	-0.12	-4.2
-0.0143	0.0015	-0.1238	-0.1185	-4.4
-0.012	0.0067	-0.108	-0.0735	-4.2
-0.0128	0.0045	-0.0983	-0.063	-4.5
-0.0143	0.0007	-0.0885	-0.0173	-4.3
-0.015	-0.006	-0.084	-0.0128	-4.5
-0.0173	-0.0068	-0.0818	-0.0436	-4.4
-0.024	-0.0083	-0.0825	-0.0181	-4.6
-0.0315	-0.0075	-0.0893	0.0232	-4.5
-0.0353	0.0015	-0.0998	0.012	-4.6
-0.0405	-0.0008	-0.1088	-0.081	-4.6
-0.042	-0.0015	-0.1155	-0.0638	-4.5
-0.042	0.0075	-0.1215	0.0202	-4.5
-0.0405	0.0045	-0.126	0.0022	-4.7
-0.0375	0.003	-0.1253	-0.0008	-4.8
-0.0338	0.009	-0.1215	0.0015	-4.6
-0.033	0.0052	-0.1133	0.0127	-4.7
-0.0383	-0.003	-0.1028	0.0585	-4.7
-0.0353	-0.0105	-0.0893	0.0772	-4.8
-0.0315	-0.0143	-0.0728	0.0705	-4.7
-0.0323	-0.0075	-0.0555	0.027	-4.9
-0.027	0.0007	-0.0398	0.009	-4.7
-0.0233	0.0015	-0.0233	0.0075	-4.8
-0.0203	0.0082	-0.0015	-0.0443	-5
-0.0188	0.0105	0.0217	-0.0555	-4.8
-0.0158	0.0067	0.057	0.009	-4.8
-0.012	0.0045	0.096	0.0232	-4.8
-0.0091	0.0007	0.1275	0.0127	-4.8
-0.0046	0.0015	0.1522	0.018	-5
0.0007	-0.0038	0.1732	-0.012	-4.8
0.003	-0.0181	0.1882	-0.0405	-4.8
0.0052	-0.0225	0.198	-0.039	-4.7
0.0052	-0.0128	0.2077	-0.0091	-5
0.0067	-0.003	0.2122	-0.0046	-4.8
0.0082	0.0015	0.2167	-0.0023	-5
0.0112	0.003	0.2197	0.0067	-4.8
0.0135	0	0.2197	0.0067	-5
0.012	-0.0046	0.2152	0.0165	-4.9
0.012	-0.0068	0.21	0.0165	-5
0.009	-0.0083	0.2032	0.0202	-4.9
0.0097	-0.0128	0.1972	0.0165	-4.9
0.0067	-0.0173	0.189	0.009	-5
0.0045	-0.0143	0.177	-0.0015	-5
0.0052	-0.0143	0.1687	-0.0203	-5
0.0015	-0.012	0.1545	-0.0256	-4.8
0.0007	0.0015	0.1365	-0.0248	-4.9
-0.0015	0.015	0.12	-0.0165	-4.9
-0.003	0.0315	0.1012	0	-4.9
-0.0015	0.042	0.078	0.0195	-4.8
-0.0053	0.0292	0.0555	0.0315	-4.9
-0.0091	0.0135	0.0352	0.03	-4.7
-0.012	0.0097	0.0187	0.0165	-4.8
-0.0113	0.0022	0.003	0.0015	-4.8
-0.0158	-0.0053	-0.0083	-0.0083	-5
-0.0195	-0.0105	-0.0165	-0.0181	-4.8
-0.0225	-0.0105	-0.0248	-0.0188	-4.9
-0.0218	-0.0046	-0.0293	-0.0068	-4.8
-0.0218	-0.0046	-0.0308	-0.0015	-4.7
-0.0293	-0.0023	-0.03	-0.0008	-4.8
-0.0353	-0.0008	-0.0278	0	-4.8
-0.042	-0.0015	-0.0248	0	-4.8
-0.0458	-0.0008	-0.0218	0.0015	-4.7
-0.0458	-0.0015	-0.0165	0.0007	-4.8
-0.0465	-0.0008	-0.0098	-0.0008	-5
-0.0443	-0.0008	-0.0053	-0.0008	-4.7
-0.045	0.0015	0	-0.003	-4.7
-0.039	0.0037	0.0045	-0.0015	-4.7
-0.0165	0.0037	0.0082	-0.0015	-4.6
0.0172	0.0045	0.012	-0.003	-4.5
0.0202	0.0015	0.0127	-0.003	-4.5
0.009	-0.0008	0.0135	-0.003	-4.5
0.0112	0.0015	0.0142	0.0015	-4.6
-0.003	0.0052	0.0142	0.0015	-4.5
-0.0143	0.0067	0.012	-0.0008	-4.5
-0.0188	0.0105	0.0105	0.0022	-4.3
-0.027	0.0112	0.0105	0.0097	-4.2
-0.0315	0.015	0.0127	0.0172	-4.5
-0.0428	0.0135	0.0157	0.0202	-4.3
-0.048	-0.0053	0.0172	0.0157	-4.6
-0.0518	-0.0203	0.0202	0.0075	-4.3
-0.0578	-0.0188	0.024	0.0007	-4.4
-0.0593	-0.0105	0.027	-0.0083	-4.2
-0.0593	-0.0083	0.033	-0.0413	-4.5
-0.0563	-0.0256	0.0382	-0.0645	-4.2
-0.0525	-0.033	0.042	-0.054	-4.3
-0.0443	-0.0218	0.0472	-0.039	-4.2
-0.0368	-0.0053	0.054	-0.0233	-4.3
-0.03	0.0052	0.0607	-0.015	-4.2
-0.0256	0.0127	0.066	-0.0105	-4.2
-0.0181	0.0202	0.0705	0.0007	-4.2
-0.0158	0.0217	0.0742	0.0067	-4.2
-0.015	0.0127	0.0772	0.0067	-4.3
-0.0091	0.003	0.0765	0.012	-4
-0.0023	0.003	0.0727	0.0142	-4.2
0.0052	0.0045	0.069	0.0105	-4.1
0.0112	0.009	0.063	0.012	-4.2
0.0165	0.012	0.057	0.0112	-4.1
0.0262	0.0127	0.0502	0.009	-4.2
0.0352	0.0127	0.0442	0.0157	-4.1
0.0435	-0.003	0.0352	0.0247	-4.2
0.0427	-0.0046	0.0277	0.024	-4
0.0442	0.0105	0.0202	0.024	-4.3
0.0465	0.0015	0.0082	0.0315	-3.9
0.0472	-0.0158	-0.0046	0.033	-4.2
0.0472	-0.027	-0.0173	0.0255	-4.1
0.0465	-0.0473	-0.0278	0.012	-4.2
0.0442	-0.057	-0.0368	-0.021	-4.3
0.0442	-0.0488	-0.048	-0.063	-4.1
0.0442	-0.0375	-0.0593	-0.0871	-4.2
0.0442	-0.0113	-0.0706	-0.0743	-4.1
0.0487	0.0375	-0.0788	-0.0443	-4.1
0.0532	0.069	-0.084	-0.0308	-4.1
0.0547	0.0585	-0.0856	-0.0285	-4.1
0.054	0.0352	-0.0833	-0.0293	-4.2
0.0495	0.024	-0.084	-0.0188	-4.1
0.051	0.015	-0.0833	0.0067	-4.1
0.054	0.0045	-0.0803	0.0285	-4.1
0.054	-0.003	-0.075	0.0255	-4.2
0.051	-0.0068	-0.0698	0.0195	-4.2
0.048	-0.0068	-0.0653	0.018	-4
0.0435	-0.0083	-0.06	0.0165	-4.2
0.0382	-0.0128	-0.054	0.018	-4.1
0.033	-0.0105	-0.0495	0.0142	-4.1
0.024	-0.0091	-0.048	0.0112	-4
0.0142	-0.0091	-0.048	0.006	-4.3
0.0007	-0.0083	-0.048	0.006	-4.1
-0.0083	-0.0038	-0.0495	0.006	-4.3
-0.0173	-0.0015	-0.0503	0.0067	-4.1
-0.027	0.003	-0.0488	0.0097	-4.3
-0.0346	0.0127	-0.0465	0.0135	-4.1
-0.0405	0.0217	-0.0465	0.0105	-4.1
-0.0436	0.0172	-0.0443	-0.012	-4.1
-0.0495	0.0022	-0.0458	-0.0195	-4.1
-0.0503	-0.0008	-0.0473	-0.0105	-3.9
-0.0518	-0.0083	-0.048	-0.0158	-4
-0.054	-0.0233	-0.048	-0.024	-4.1
-0.0533	-0.0368	-0.048	-0.0218	-4.1
-0.0533	-0.0458	-0.0465	-0.0091	-4.1
-0.0503	-0.027	-0.0488	0.012	-4
-0.048	0.003	-0.0511	0.033	-4.1
-0.0473	0.0202	-0.0488	0.048	-3.8
-0.0458	0.0315	-0.0473	0.0195	-4.1
-0.042	0.0277	-0.0428	-0.024	-3.9
-0.0338	0.009	-0.0398	0	-4.2
-0.0218	-0.0068	-0.0405	-0.015	-3.9
-0.006	-0.0105	-0.0368	-0.0803	-4
0.0015	-0.012	-0.0315	-0.1021	-4
0.0045	-0.0158	-0.0293	-0.078	-4.2
0.0067	-0.012	-0.0308	-0.0323	-3.9
0.0097	-0.0083	-0.0323	-0.0158	-4.1
0.0127	-0.0128	-0.0368	0.0157	-3.8
0.0097	-0.0053	-0.039	0.0307	-3.9
0.006	0.0037	-0.033	0.0397	-3.9
0.0022	0.009	-0.0293	0.0382	-3.9
-0.0046	0.027	-0.0278	0.024	-4
-0.0091	0.0307	-0.027	0.0465	-3.9
-0.012	0.0165	-0.0263	0.021	-4
-0.0158	-0.003	-0.0278	0.006	-3.7
-0.0158	-0.0181	-0.027	-0.0195	-3.9
-0.0143	-0.0203	-0.027	-0.0428	-3.8
-0.0158	-0.003	-0.0263	-0.0023	-3.9
-0.0158	0.0067	-0.0233	0.0142	-3.7
-0.0143	-0.0068	-0.0203	-0.0068	-4
-0.0143	-0.0218	-0.0158	-0.0256	-3.7
-0.0143	-0.0248	-0.0105	-0.0015	-3.9
-0.0135	-0.012	-0.0023	0.0645	-3.6
-0.0143	-0.0195	0.0045	0.045	-3.7
-0.0158	-0.0338	0.0097	-0.0788	-3.7
-0.015	-0.021	0.0195	-0.1583	-3.6
-0.0128	-0.0173	0.0315	-0.084	-3.6
-0.0113	-0.0083	0.039	0.0217	-3.6
-0.0083	0.012	0.0457	-0.003	-3.6
-0.0083	0.0262	0.0487	-0.0165	-3.6
-0.0091	0.027	0.0525	-0.039	-3.5
-0.0068	0.0307	0.057	-0.0495	-3.5
-0.0068	0.0472	0.063	-0.0091	-3.5
-0.0075	0.0457	0.0667	0.024	-3.5
-0.006	0.0255	0.0705	0.0555	-3.3
-0.0053	0.0045	0.0727	0.0472	-3.5
-0.0068	-0.0083	0.075	0.033	-3.3
-0.006	-0.0105	0.0772	0.021	-3.5
-0.006	-0.0068	0.0787	0.03	-3.3
-0.006	-0.003	0.0802	0.0375	-3.4
-0.0068	0	0.0802	0.0382	-3.3
-0.0083	0.0015	0.0802	0.0337	-3.3
-0.0105	0.0022	0.0802	0.0225	-3.4
-0.0098	0.003	0.081	0.0127	-3.3
-0.0098	0.0007	0.0817	0.0015	-3.5
-0.0105	-0.0008	0.078	0.0022	-3.2
-0.0128	-0.006	0.0765	-0.003	-3.3
-0.0158	-0.0128	0.078	-0.0143	-3.1
-0.0173	-0.0091	0.078	-0.021	-3.2
-0.0203	-0.0046	0.0787	-0.0098	-3.1
-0.0315	-0.0046	0.0765	0.0007	-3.2
-0.0405	-0.0053	0.0727	-0.0008	-3.1
-0.0323	-0.0083	0.0712	0.0015	-3.1
-0.0293	-0.0091	0.0682	0.0015	-3
-0.0308	-0.0053	0.0622	0.0015	-3
-0.0248	-0.003	0.057	-0.0053	-2.9
-0.0248	-0.003	0.0532	-0.0105	-3.1
-0.027	-0.0053	0.0495	-0.0083	-3
-0.0353	-0.003	0.0457	-0.0046	-3.1
-0.0383	0.003	0.0405	0	-2.8
-0.039	0.0007	0.0367	-0.0038	-2.8
-0.0368	0.0015	0.0307	-0.0091	-2.8
-0.033	0.009	0.0277	-0.0105	-2.9
-0.033	0.009	0.0292	-0.012	-2.7
-0.033	0.0067	0.0285	-0.0075	-2.7
-0.0338	0.0067	0.024	-0.0105	-2.6
-0.0368	0.003	0.018	-0.012	-2.7
-0.0353	0.0015	0.0105	-0.0098	-2.6
-0.0346	-0.0008	0.003	-0.012	-2.6
-0.0308	-0.003	-0.006	-0.003	-2.7
-0.0278	-0.003	-0.0158	-0.003	-2.5
-0.027	-0.0038	-0.024	-0.0015	-2.7
-0.024	-0.0068	-0.0293	-0.003	-2.5
-0.0203	-0.0075	-0.0338	-0.0046	-2.3
-0.0195	-0.003	-0.0368	0.0007	-2.3
-0.0165	-0.0015	-0.0383	0.0007	-2.3
-0.0128	-0.0046	-0.0405	0.0015	-2.2
-0.0113	-0.0046	-0.0413	0.0022	-2.4
-0.0075	-0.0038	-0.042	0.0022	-2.3
-0.003	-0.0015	-0.0428	-0.0008	-2.3
0.0007	0.0022	-0.0443	-0.0023	-2
0.0045	0.0007	-0.0443	-0.0015	-2.2
0.0052	0.0007	-0.0436	-0.0023	-2
0.0082	0.0015	-0.042	-0.003	-2.1
0.009	0.0007	-0.042	-0.006	-1.9
0.0105	0.003	-0.0405	-0.0068	-2
0.0097	0.0015	-0.039	-0.0068	-1.9
0.0082	0.0037	-0.039	-0.003	-1.9
0.0097	0.0082	-0.0383	-0.0008	-1.7
0.012	0.009	-0.0368	0.0015	-1.8
0.0127	0.0082	-0.0346	0.0105	-1.8
0.015	0.0052	-0.0338	0.0217	-1.6
0.0172	0.0037	-0.0353	0.024	-1.8
0.018	-0.003	-0.0353	0.0157	-1.4
0.018	-0.0143	-0.033	0.0007	-1.6
0.0195	-0.0233	-0.03	-0.0203	-1.3
0.0165	-0.0218	-0.0285	-0.0368	-1.6
0.0165	-0.0143	-0.024	-0.033	-1.3
0.0172	-0.0128	-0.0203	-0.0353	-1.5
0.0165	-0.0105	-0.0165	-0.0368	-1.3
0.0127	-0.0008	-0.0128	-0.024	-1.4
0.0105	0.0127	-0.0105	-0.015	-1.1
0.0082	0.0172	-0.0075	0.0022	-1.4
0.0052	0.0075	-0.0083	0.0135	-1
0.0022	0.0037	-0.0128	0.0082	-1
0	0.003	-0.0158	0.0015	-1
-0.0023	0.0015	-0.0195	0.0015	-0.9
-0.003	0.0022	-0.0203	0.0037	-0.8
-0.0068	0.0007	-0.0218	0.0022	-0.8
-0.0098	0.0015	-0.0218	0.0015	-0.8
-0.0098	0.0007	-0.0195	0.0015	-0.6
-0.0105	0	-0.0181	0.0015	-0.7
-0.0143	0.0015	-0.0165	0.0007	-0.5
-0.0158	0.0007	-0.012	-0.0008	-0.6
-0.0158	0.0007	-0.0075	0.0007	-0.4
-0.0158	0.0015	-0.0015	0.0015	-0.3
-0.0181	0.0007	0.0015	0.0007	-0.1
-0.0203	0.0007	0.006	0	-0.3
-0.0203	0.0007	0.0105	0	-0.2
-0.0203	0.0007	0.0157	-0.0015	-0.2
-0.0195	0.0007	0.0195	-0.0008	0
-0.0188	-0.0008	0.0195	-0.0008	0.1
-0.0195	-0.0015	0.018	-0.0015	0
-0.0181	-0.0015	0.0135	-0.0023	0.1
-0.0181	-0.0008	0.0112	-0.0015	0.2
-0.0195	-0.0008	0.0082	-0.0008	0.1
-0.0181	0	0.0045	-0.0015	0.5
-0.0158	0	0.0007	-0.0023	0.4
-0.0143	-0.0008	-0.003	-0.0023	0.5
-0.0143	0.0007	-0.0091	-0.0015	0.4
-0.0158	0.0007	-0.0165	-0.003	0.5
-0.0128	-0.0015	-0.0203	-0.003	0.5
-0.0083	0	-0.024	-0.0046	0.8
-0.0091	0.0007	-0.0293	-0.0053	0.7
-0.0068	0	-0.0346	-0.0046	0.9
-0.0046	0.0007	-0.0361	-0.0053	0.8
-0.0053	0.0007	-0.0383	-0.0038	1.1
-0.0068	0.0015	-0.042	-0.003	1
-0.0068	0.0007	-0.0428	-0.003	1.1
-0.0068	0.0015	-0.0413	-0.0015	1.2
-0.0083	0.0007	-0.042	-0.0015	1
-0.0105	0	-0.0428	-0.0008	1.5
-0.0105	0.0015	-0.0428	-0.0015	1.2
-0.0098	0.0015	-0.0443	-0.0023	1.6
-0.0113	0.0052	-0.0443	-0.0015	1.3
-0.0113	0.0067	-0.045	-0.0015	1.8
-0.012	0.0052	-0.0443	0.0007	1.6
-0.0105	0.0067	-0.042	-0.0008	1.8
-0.0098	0.0075	-0.0375	0	1.8
-0.012	0.0052	-0.0338	-0.0038	2
-0.0128	-0.0068	-0.0278	-0.0105	1.8
-0.0143	-0.0256	-0.0218	-0.0105	2.2
-0.012	-0.027	-0.0181	-0.0083	2.2
-0.0105	-0.0105	-0.0098	-0.0068	2.3
-0.0113	-0.0053	0.0007	-0.0083	2.4
-0.0091	-0.0023	0.009	-0.0075	2.5
-0.006	-0.0023	0.0157	-0.0053	2.6
-0.003	-0.0023	0.0217	-0.0008	2.6
-0.0015	0.0015	0.0247	0.0045	3
-0.0008	0.0022	0.0292	0.009	2.7
0.0007	0	0.033	0.0105	3
0	-0.0068	0.0367	0.009	3
0	-0.0098	0.042	0.0112	3.2
0.0015	-0.0113	0.0457	0.0105	3.1
0.009	-0.0173	0.0495	0.0007	3.5
0.0157	-0.0233	0.0532	-0.0158	3.3
0.0157	-0.0188	0.057	-0.0203	3.6
0.0165	-0.0015	0.06	-0.0233	3.4
0.0157	0.0105	0.0622	-0.0308	3.6
0.015	0.0232	0.0652	-0.0091	3.7
0.0195	0.0397	0.0652	0.0142	3.9
0.021	0.0457	0.0615	0.0165	3.9
0.0255	0.0352	0.0547	0.0142	3.9
0.0315	0.018	0.0472	-0.0068	4.2
0.0352	0.0067	0.0412	-0.0315	4.3
0.0352	-0.0053	0.0367	-0.0503	4.2
0.0345	-0.021	0.0292	-0.057	4.5
0.036	-0.0353	0.0195	-0.045	4.5
0.0382	-0.0315	0.0127	-0.039	4.7
0.0435	-0.0195	0.003	-0.0158	4.8
0.048	-0.012	-0.006	0	4.9
0.0495	-0.0038	-0.0128	0.0105	4.9
0.051	0.0007	-0.0165	0.024	5.2
0.0502	-0.0015	-0.0195	0.0172	5.3
0.048	-0.003	-0.027	0.0202	5.4
0.0495	-0.0015	-0.0368	0.018	5.5
0.0517	0.0045	-0.0458	0.018	5.6
0.0502	0.0067	-0.054	0.018	5.8
0.045	0.0082	-0.0638	0.0142	5.9
0.042	0.0052	-0.0683	0.0075	6
0.0382	-0.0038	-0.0706	-0.0068	6
0.0322	-0.0023	-0.0691	-0.006	6.4
0.033	0.003	-0.0668	0.003	6.4
0.0352	0.0067	-0.0615	0.0112	6.7
0.0517	0.0105	-0.0533	0.0105	6.7
0.0682	0.0067	-0.0458	0.003	7
0.0577	0.0052	-0.0353	0	7
0.057	0.0052	-0.0278	0.0007	7.3
0.057	0.0022	-0.0203	0.0067	7.3
0.0285	-0.0015	-0.0128	0.009	7.6
0.0217	-0.0075	-0.0075	0.009	7.6
0.0277	-0.012	-0.003	0.0112	7.9
0.024	0.0007	0.003	0.0187	8.1
0.015	0.009	0.012	0.0127	8.2
0.0052	0.0022	0.0232	0.009	8.5
-0.003	-0.0023	0.0367	0.0105	8.5
-0.0165	-0.0053	0.048	-0.0068	8.6
-0.0278	-0.0046	0.0622	-0.0143	9
-0.0413	0	0.0742	-0.0143	9
-0.0495	0.0075	0.0862	-0.0195	9.2
-0.0555	0.0127	0.0975	-0.024	9.3
-0.066	0.0097	0.1065	-0.0278	9.5
-0.0743	0	0.114	-0.024	9.7
-0.0803	-0.0068	0.1192	-0.0195	9.9
-0.084	-0.003	0.1222	-0.0128	10.1
-0.0923	-0.003	0.1237	-0.0105	10.1
-0.0975	0.0045	0.1237	-0.0053	10.3
-0.1013	0.0052	0.1222	-0.0008	10.5
-0.1043	-0.0008	0.1177	0.0052	10.7
-0.108	-0.0038	0.114	0.0142	10.8
-0.108	-0.012	0.1117	0.021	11.2
-0.1073	-0.0173	0.1065	0.0307	11
-0.1058	-0.024	0.1012	0.03	11.6
-0.1013	-0.0046	0.0937	0.0277	11.4
-0.0975	0.018	0.0862	0.012	12.1
-0.0923	0.0045	0.0817	-0.027	11.9
-0.0848	-0.0098	0.075	-0.0563	12.4
-0.075	-0.0068	0.069	-0.0578	12.1
-0.066	0.009	0.063	-0.0525	12.7
-0.0593	0.0195	0.0555	-0.0428	12.5
-0.054	0.0202	0.0502	-0.0023	13.1
-0.0503	0.006	0.0427	0.0472	13
-0.0465	-0.0113	0.0352	0.0577	13.3
-0.0428	-0.0143	0.0307	0.0217	13.6
-0.0375	-0.0046	0.024	0.0105	13.7
-0.0346	0.0112	0.0195	0.0165	13.8
-0.0353	0.0172	0.015	-0.0008	14.1
-0.0346	0.0202	0.012	0.0142	14.2
-0.033	0.015	0.0127	0.0345	14.4
-0.0315	0.0075	0.0157	0.045	14.8
-0.0315	0.0052	0.0225	0.0592	14.9
-0.03	-0.0008	0.03	0.0742	15.3
-0.0293	-0.0203	0.039	0.0592	15.3
-0.0248	-0.0525	0.0465	-0.0135	15.7
-0.0218	-0.0495	0.054	-0.057	15.7
-0.0218	-0.0323	0.0562	-0.0443	16.2
-0.0195	-0.0285	0.054	-0.0503	16.2
-0.0195	-0.0128	0.054	-0.1118	16.5
-0.0225	0.0105	0.0562	-0.162	16.6
-0.0233	0.0202	0.057	-0.1388	16.9
-0.024	0.021	0.0547	-0.0668	17
-0.0218	0.024	0.051	-0.0158	17.4
-0.0225	0.0232	0.0472	0.0292	17.6
-0.021	0.0292	0.0442	0.051	17.9
-0.0203	0.0405	0.0382	0.051	18.1
-0.0218	0.0345	0.027	0.051	18.4
-0.0218	0.0045	0.015	0.024	18.5
-0.0225	-0.0315	0.0015	0.0067	18.9
-0.0181	-0.0285	-0.0143	0.0135	19
-0.0143	-0.015	-0.0293	0.0247	19.5
-0.012	-0.0181	-0.048	0.0277	19.5
-0.006	-0.0181	-0.0683	0.033	19.8
0	-0.0046	-0.084	0.0232	20
0.0067	0	-0.1013	0.0067	20.4
0.0135	-0.0068	-0.1223	0.015	20.7
0.0157	-0.0053	-0.1441	0.0285	21.1
0.0172	-0.0091	-0.165	0.0292	21.3
0.0225	-0.0083	-0.186	0.0037	21.4
0.024	-0.0015	-0.2063	-0.0278	21.9
0.0232	0.0082	-0.2213	-0.057	21.9
0.0225	0.024	-0.2318	-0.0893	22.5
0.0202	0.0255	-0.237	-0.0683	22.5
0.0157	0.0127	-0.2378	-0.024	22.9
0.015	-0.0008	-0.2303	-0.0046	23
0.0172	-0.0015	-0.216	0.012	23.6
0.0172	0.0007	-0.2003	0.009	23.6
0.0172	-0.0008	-0.18	0.0052	24.1
0.0157	-0.0008	-0.1478	0.0067	24.3
0.0187	0	-0.1103	0.0015	24.7
0.0187	0.0037	-0.0683	0.0037	24.7
0.0187	0.0052	-0.0263	0.0015	25.3
0.0165	0.009	0.012	0.003	25.4
0.0165	0.0082	0.0457	0.0067	25.9
0.0172	0.0015	0.0735	0.009	26.2
0.018	-0.0098	0.1005	0.0067	26.5
0.0225	-0.0263	0.1215	0.006	26.8
0.024	-0.0203	0.138	0.009	26.9
0.027	-0.0083	0.1455	0.0082	27.3
0.0292	-0.0091	0.1425	0.0022	27.5
0.036	-0.0083	0.1335	0	27.9
0.0457	-0.0083	0.117	-0.0091	27.9
0.0457	-0.0105	0.0967	-0.0203	28.3
0.0427	-0.0053	0.0712	-0.0158	28.4
0.0442	0.0015	0.0427	-0.0068	28.9
0.0427	0.0007	0.0127	-0.0053	28.9
0.0405	-0.0008	-0.0218	-0.003	29.5
0.0427	0.0007	-0.057	-0.0038	29.5
0.0457	0.0015	-0.093	-0.0038	29.9
0.0532	0.0015	-0.126	-0.0038	30.1
0.0637	0.0007	-0.1538	-0.0068	30.3
0.0757	0	-0.1726	-0.0053	30.6
0.0855	0	-0.1823	-0.0083	31
0.0937	0	-0.1883	-0.0105	31
0.0877	0	-0.1883	-0.0105	31.1
0.045	-0.0008	-0.1838	-0.0105	31.5
-0.027	-0.0015	-0.1808	-0.0083	31.7
-0.1028	-0.003	-0.1733	-0.0068	32.1
-0.1643	-0.003	-0.1628	-0.0068	32.2
-0.1988	-0.0023	-0.1515	-0.0083	32.6
-0.2041	-0.0008	-0.1365	-0.0075	32.7
-0.18	-0.0015	-0.1223	-0.0046	33.1
-0.1298	-0.0053	-0.108	-0.0015	33.3
-0.063	-0.0046	-0.093	0.0007	33.6
0.0082	-0.0091	-0.0788	0.0045	33.8
0.0727	-0.0143	-0.0668	0.012	34
0.1237	-0.0098	-0.054	0.0142	34.2
0.1627	-0.0038	-0.0436	0.0172	34.5
0.1935	0.0007	-0.0346	0.0187	34.6
0.2145	0.0067	-0.0293	0.012	35
0.2152	0.0105	-0.0248	0.0015	34.9
0.201	0.0112	-0.0218	-0.0083	35.2
0.1792	0.0037	-0.0195	-0.024	35.3
0.159	0.0015	-0.0203	-0.0383	35.6
0.1515	0.0052	-0.0195	-0.0495	35.7
0.1552	-0.006	-0.0188	-0.0608	36.1
0.1717	0.0007	-0.021	-0.0465	36.2
0.21	0.0165	-0.0218	-0.0165	36.6
0.282	0.0105	-0.0218	0.006	36.9
0.3487	0.0007	-0.0218	0.0157	37
0.36	-0.0015	-0.0233	0.006	37.3
0.3352	-0.003	-0.0233	0.0052	37.5
0.2692	-0.003	-0.0225	0.0045	37.8
0.1717	-0.0083	-0.0203	0.0037	38
0.075	-0.0113	-0.0165	0.003	38.2
-0.0203	-0.0068	-0.0128	0.003	38.4
-0.0975	-0.0046	-0.0091	0.0045	38.7
-0.1613	-0.0046	-0.0053	0.0045	39
-0.2258	-0.0038	-0.006	0.0052	39.3
-0.291	-0.0038	-0.0046	0.0052	39.6
-0.3578	-0.003	-0.0015	0.0052	40.1
-0.4133	-0.0008	0	0.0037	40.3
-0.4575	0.0007	0.0037	0.003	40.6
-0.4958	0.0007	0.0045	0.003	40.8
-0.522	0.0007	0.0082	0.003	41.2
-0.5348	0.0015	0.012	0.0022	41.5
-0.5363	0.0007	0.0142	0.0015	41.8
-0.5243	0.0007	0.018	0.0015	42.2
-0.5063	0.0007	0.024	0.0015	42.6
-0.4838	0.0015	0.03	0	42.8
-0.4538	0.0007	0.036	-0.0008	43.5
-0.4185	0.0022	0.0442	0.0007	43.6
-0.3773	0.003	0.0532	0.0007	44.2
-0.3353	0.0007	0.0607	0	44.5
-0.2866	0.003	0.072	0	45
-0.2333	0.0037	0.087	0	45.1
-0.1815	0.0045	0.1035	0.0007	45.9
-0.126	0.006	0.126	0	46.1
-0.0691	0.0052	0.1582	-0.0015	46.6
-0.0158	0.0052	0.186	-0.0023	46.8
0.0315	0.006	0.2062	-0.0015	47.3
0.0765	0.0082	0.2205	-0.0015	47.6
0.1155	0.0067	0.225	-0.0008	48
0.1537	0.0045	0.222	-0.0008	48.4
0.1882	0.0037	0.2145	0	48.7
0.2085	0.0037	0.2055	0.0007	49.1
0.2227	0.003	0.1972	0.0015	49.3
0.237	0.0015	0.1882	0.0022	49.9
0.246	0.0007	0.1777	0.0015	49.8
0.2475	-0.0008	0.165	0.0007	50.5
0.2445	-0.0008	0.1492	0	50.5
0.237	0.0007	0.1275	0.0007	50.9
0.2272	0	0.1072	0.0007	50.8
0.2145	-0.0008	0.0877	0.0015	51.5
0.1987	0	0.0705	0.0007	51.4
0.1837	0.0007	0.0555	-0.0008	51.9
0.1657	0.0007	0.0442	0	51.9
0.1417	0.0007	0.0352	0.0015	52.3
0.1177	0.0015	0.0277	0.0015	52.4
0.0967	0.0007	0.018	0.0007	52.6
0.0765	0.0007	0.0067	0.0007	52.9
0.0577	0.0007	-0.0068	-0.0008	52.8
0.039	0.0007	-0.0188	-0.0008	52.8
0.0232	-0.0008	-0.0278	-0.0008	53.2
0.0067	-0.0008	-0.0368	-0.0015	53.1
-0.0075	0.0007	-0.0465	-0.0015	53.5
-0.0233	0.003	-0.0525	-0.0023	53.4
-0.0398	0.0022	-0.0548	-0.0046	53.6
-0.0548	0.0015	-0.057	-0.0053	53.6
-0.0668	-0.0008	-0.057	-0.0068	53.9
-0.081	0	-0.0555	-0.0053	54
-0.0915	-0.0008	-0.0533	-0.0038	54.1
-0.0983	-0.0015	-0.0443	-0.0015	54.2
-0.105	-0.0023	-0.0338	-0.0015	54.4
-0.1065	-0.0015	-0.021	-0.0015	54.5
-0.1103	-0.0023	-0.006	-0.0008	54.5
-0.1155	-0.0046	0.012	-0.003	54.8
-0.1193	-0.0038	0.0292	-0.0046	54.8
-0.1238	-0.0053	0.0457	-0.0046	55
-0.1223	-0.0053	0.0615	-0.0023	55
-0.1103	-0.0038	0.0712	-0.0023	55.3
-0.0856	-0.0046	0.0772	-0.0008	55.3
-0.0525	-0.0053	0.0802	-0.0008	55.5
-0.0195	-0.006	0.081	-0.0023	55.5
0.0082	-0.006	0.0772	-0.003	55.9
0.0345	-0.0046	0.0712	-0.003	55.8
0.0532	-0.006	0.0637	-0.003	56.2
0.0637	-0.006	0.0555	-0.0015	55.9
0.0735	-0.0053	0.0472	-0.0023	56.5
0.0877	-0.0068	0.0352	-0.0038	56.5
0.1087	-0.0053	0.0255	-0.0015	56.7
0.1432	-0.0046	0.015	-0.0015	56.8
0.1852	-0.0038	0.006	-0.0008	57.1
0.2137	-0.003	-0.003	-0.0008	57.2
0.2295	-0.003	-0.012	-0.0008	57.4
0.2445	-0.003	-0.0188	0	57.6
0.2572	-0.0015	-0.024	-0.0015	57.7
0.2662	-0.0015	-0.0278	-0.0015	57.7
0.27	-0.0015	-0.0315	-0.0015	57.9
0.2707	0	-0.0353	-0.0008	58
0.267	-0.0015	-0.0383	0	58.1
0.2595	-0.0008	-0.0405	0.0007	58.4
0.2475	0.0007	-0.0405	0	58.4
0.2295	0.0007	-0.0398	0.0007	58.6
0.2092	0.0015	-0.0368	0.0007	58.5
0.1882	-0.0008	-0.0346	0.0007	58.8
0.162	-0.0008	-0.0285	0	58.8
0.1327	0.0007	-0.0233	-0.0008	58.9
0.1072	0	-0.0173	-0.0008	59
0.081	0.0007	-0.012	-0.0008	59.1
0.0555	0.0007	-0.0053	0.0007	59
0.03	0.0015	0	0.0015	59.3
0.0052	0.0037	0.0052	0.0007	59.1
-0.015	0.0045	0.0067	-0.0008	59.4
-0.0323	0.0067	0.0067	-0.0023	59.2
-0.048	0.0082	0.0075	0	59.4
-0.0653	0.0082	0.0045	0.0007	59.4
-0.0803	0.0082	0.0052	-0.0008	59.6
-0.0953	0.0075	0.0015	0	59.3
-0.1118	0.0082	-0.0015	-0.0015	59.6
-0.126	0.0067	-0.0038	-0.0015	59.4
-0.1365	0.006	-0.0075	-0.0015	59.5
-0.1448	0.0052	-0.012	-0.003	59.4
-0.15	0.003	-0.0165	-0.0046	59.4
-0.1538	0.0015	-0.0225	-0.0023	59.4
-0.1575	0.0015	-0.0293	-0.003	59.4
-0.1583	0.0007	-0.039	-0.0038	59.5
-0.159	0.0022	-0.0465	-0.0023	59.4
-0.1628	0.003	-0.054	-0.003	59.4
-0.1628	0.0007	-0.06	-0.003	59.5
-0.1605	-0.0008	-0.0638	-0.0046	59.4
-0.1583	-0.0023	-0.0675	-0.0053	59.4
-0.1545	-0.0038	-0.0706	-0.0046	59.4
-0.1523	-0.003	-0.0706	-0.0046	59.4
-0.1485	-0.0046	-0.0713	-0.0046	59.4
-0.1433	-0.0046	-0.0706	-0.0038	59.2
-0.1403	-0.0046	-0.0683	-0.0015	59.2
-0.1343	-0.0053	-0.066	-0.0023	59.2
-0.1283	-0.0068	-0.0615	-0.0046	59.2
-0.1238	-0.0068	-0.0578	-0.0046	59.2
-0.12	-0.006	-0.0533	-0.003	59
-0.1163	-0.006	-0.0495	-0.003	58.9
-0.114	-0.0083	-0.0488	-0.003	59.2
-0.111	-0.0128	-0.0458	-0.003	58.9
-0.1073	-0.0091	-0.0443	-0.0015	58.9
-0.1035	-0.0068	-0.0413	-0.003	58.8
-0.1006	-0.006	-0.0383	-0.0023	58.8
-0.0953	-0.0015	-0.0346	-0.0008	58.5
-0.0908	0.0007	-0.03	-0.0023	58.8
-0.084	0.0045	-0.0263	-0.0008	58.5
-0.078	0.006	-0.0233	-0.0015	58.8
-0.0735	0.0075	-0.0173	-0.003	58.3
-0.0691	0.009	-0.012	-0.003	58.5
-0.0638	0.0082	-0.0068	-0.0046	58.3
-0.0593	0.009	-0.003	-0.003	58.4
-0.0563	0.0097	0.0015	-0.003	58.3
-0.0495	0.0082	0.0052	-0.003	58
-0.045	0.0075	0.0067	-0.0046	58.1
-0.0375	0.0067	0.0082	-0.0053	58
-0.0315	0.0067	0.0105	-0.006	58
-0.0278	0.0052	0.0105	-0.0053	57.7
-0.0218	0.0052	0.0105	-0.003	57.6
-0.0165	0.006	0.012	-0.0023	57.5
-0.0135	0.0045	0.0127	-0.0023	57.4
-0.0091	0.0037	0.012	-0.003	57.3
-0.0046	0.003	0.0105	-0.0046	57.2
-0.0008	0.0052	0.009	-0.0053	57.1
0.0052	0.009	0.0075	-0.006	57.1
0.012	0.0067	0.0045	-0.0046	56.8
0.015	0.0015	0.003	-0.003	56.8
0.018	0.0007	0.0015	-0.003	56.7
0.0217	-0.0015	-0.0015	-0.003	56.6
0.0255	-0.0038	-0.0038	-0.0038	56.5
0.0285	-0.0053	-0.006	-0.0023	56.3
0.03	-0.0105	-0.006	-0.0046	56.1
0.0315	-0.0181	-0.0068	-0.0053	56
0.033	-0.0083	-0.0075	-0.0046	55.7
0.033	0.0015	-0.0083	-0.0053	55.7
0.0315	0	-0.0083	-0.0046	55.5
0.0315	0.0007	-0.0068	-0.0053	55.3
0.0322	0	-0.0046	-0.0046	55.2
0.0315	-0.0015	-0.0038	-0.003	55
0.0307	-0.0023	-0.0015	-0.006	54.8
0.0292	-0.0023	0.0015	-0.006	54.6
0.027	-0.0008	0.0045	-0.0046	54.4
0.0285	-0.0015	0.0075	-0.0038	54.3
0.0307	-0.0008	0.0105	-0.0053	54
0.0285	-0.0008	0.012	-0.0046	54
0.0255	-0.0008	0.0135	-0.0053	54
0.0277	0.003	0.012	-0.0053	53.4
0.0307	0.006	0.0112	-0.0046	53.4
0.0277	0.0045	0.012	-0.0046	53
0.024	-0.0008	0.0097	-0.0038	52.8
0.0255	-0.003	0.0105	-0.003	52.5
0.0255	-0.0046	0.009	-0.0008	52.6
0.024	-0.0046	0.009	0.003	52.2
0.0217	-0.0053	0.0082	0.003	52.2
0.0195	-0.0195	0.0067	0.003	51.9
0.0165	-0.039	0.0052	0.003	51.9
0.0165	-0.0383	0.0045	-0.0038	51.6
0.0157	-0.0218	0.0037	-0.0181	51.6
0.0127	-0.0083	0.0015	-0.0256	51.3
0.012	0.0105	0.0007	-0.0158	51.3
0.0105	0.0247	0.0007	-0.0023	51.1
0.0082	0.033	0.0007	0.0022	50.8
0.0075	0.0442	-0.0015	-0.003	50.7
0.009	0.0397	-0.0038	-0.0046	50.4
0.0097	0.0187	-0.0046	0.0007	50.2
0.0067	0.006	-0.006	0.0015	49.9
0.0045	0.0045	-0.0068	0.0007	49.6
0.003	-0.0015	-0.0075	-0.003	49.7
0.0015	-0.003	-0.0046	-0.0015	49.5
-0.0008	-0.0015	-0.0008	0.0037	49.3
-0.003	-0.0023	0.003	0.0225	49
-0.003	-0.0046	0.0075	0.042	49
-0.0046	-0.0075	0.0105	0.0427	48.7
-0.0075	-0.0105	0.012	0.0427	48.5
-0.0098	-0.012	0.012	0.0247	48.1
-0.0091	-0.0075	0.0157	-0.0608	47.9
-0.0105	-0.0068	0.0195	-0.1426	47.6
-0.012	-0.0165	0.0202	-0.0788	47.6
-0.012	-0.0195	0.024	0.0052	47.4
-0.0135	-0.0181	0.0217	0.0007	47.1
-0.012	-0.012	0.018	0.015	47
-0.0083	-0.003	0.0187	0.021	46.6
-0.0083	0.0075	0.0202	-0.003	46.4
-0.0113	0.0202	0.0195	-0.0398	46.1
-0.012	0.0202	0.018	-0.0195	46
-0.0098	0.009	0.0157	0.039	45.7
-0.0091	0.0052	0.0127	0.0465	45.7
-0.0091	0.0067	0.0127	0.0682	45.3
-0.012	0.0232	0.0112	0.0735	45.2
-0.0128	0.0307	0.0105	-0.0015	44.8
-0.012	0.0255	0.0105	-0.1313	44.5
-0.012	0.024	0.0105	-0.114	44.4
-0.0128	0.0127	0.0097	0.0022	44.2
-0.0083	0.0037	0.0052	0.0105	43.7
-0.0053	-0.0158	0.003	-0.0038	43.6
-0.0068	-0.0653	0.0052	-0.0495	43.3
-0.0053	-0.1088	0.0082	-0.024	43.1
-0.0046	-0.0675	0.0067	0.0307	42.7
-0.0038	-0.0008	0.0052	0.0172	42.3
-0.0008	-0.0091	0.0037	0.0225	42.2
0.003	0.0015	0.0015	-0.0091	41.7
0.0037	0.0157	-0.0008	-0.0436	41.6
0.003	0.012	0	-0.0495	41.2
0.003	0.0142	0.0015	-0.0218	41
0.0052	0.003	0.0015	0.0195	40.5
0.009	0.0052	0.0015	0.0562	40.2
0.0097	0.009	0.0007	0.0607	39.9
0.009	0.0442	0.0015	0.0705	39.6
0.009	0.0667	0.0045	0.0832	39.2
0.009	0.0247	0.0045	0.018	39.1
0.009	-0.033	0.0045	0.024	38.5
0.009	-0.042	0.0022	0.0277	38.5
0.0075	-0.0218	0.0037	-0.027	37.8
0.0045	-0.0315	0.012	-0.0165	37.7
0.003	-0.0405	0.0165	0.0075	37.3
0.0015	-0.0706	0.021	-0.0533	37
-0.0038	-0.075	0.03	-0.0113	36.5
-0.0203	-0.0413	0.0315	0.048	36.4
-0.0405	-0.0128	0.0352	-0.015	35.8
-0.0383	0.0232	0.042	0.0292	35.6
-0.0203	0.0187	0.0465	0.0202	35.1
-0.0038	0.0142	0.054	0.0075	34.9
0.0135	0.018	0.0562	-0.006	34.5
0.0187	0.0015	0.0592	-0.0518	34.1
0.0157	0.003	0.06	-0.054	33.6
0.0045	0.006	0.0585	-0.0578	33.2
-0.0105	0.0225	0.054	-0.0225	33
-0.0173	0.0277	0.0517	-0.0105	32.4
-0.0203	0.0225	0.0495	-0.0368	32.3
-0.0188	0.0262	0.0457	-0.1028	31.6
-0.0143	0.021	0.0457	-0.0713	31.5
-0.012	0.015	0.0442	-0.0113	30.9
-0.0105	0.003	0.0405	-0.0113	30.7
-0.0113	-0.0143	0.0352	0.0502	30.1
-0.0143	-0.0256	0.0345	0.0997	29.9
-0.015	-0.0233	0.0352	0.0795	29.4
-0.0173	-0.012	0.0345	0.0165	29.2
-0.0195	-0.0105	0.0352	0.012	28.4
-0.0181	-0.0105	0.0345	0.006	28.1
-0.0195	-0.006	0.036	0.0045	28.1
-0.0203	-0.0008	0.0345	0.0187	27.5
-0.021	0.003	0.0315	0.0015	27
-0.0181	0.018	0.0315	0.012	26.5
-0.0128	0.0517	0.0292	0.012	26.1
-0.0098	0.0772	0.0292	-0.0165	25.7
-0.0083	0.0675	0.0337	-0.0263	25.2
-0.0098	0.0382	0.0345	0.0922	24.9
-0.0135	0.0187	0.0315	0.2077	24.4
-0.0158	0.0015	0.0307	0.1852	24.1
-0.0181	-0.0188	0.033	0.1365	23.6
-0.0173	-0.0353	0.0307	-0.0091	23.2
-0.015	-0.0503	0.0277	-0.2011	22.5
-0.0165	-0.0608	0.0277	-0.2806	22.1
-0.0143	-0.0758	0.027	-0.2708	21.6
-0.0128	-0.0878	0.0285	-0.2288	21.2
-0.0128	-0.063	0.027	-0.2213	21
-0.0105	-0.0181	0.0232	-0.1478	20.4
-0.012	0.0142	0.0202	-0.0405	20
-0.0135	0.0277	0.0157	0.0007	19.3
-0.012	0.027	0.009	0.0427	19.3
-0.0091	0.0217	0.006	0.0577	18.7
-0.0053	0.0225	0.0067	0.0367	18.4
-0.003	0.0247	0.0067	0.0165	17.7
-0.0015	0.0225	0.006	0.0352	17.5
-0.0023	0.0195	0.0075	0.0517	16.8
0	0.0135	0.0052	0.0405	16.6
0.0045	0.018	-0.0008	0.0795	16
0.006	0.018	-0.0105	0.1237	15.6
0.0097	-0.003	-0.0218	0.096	15
0.0142	-0.027	-0.033	0.1027	14.9
0.018	-0.0405	-0.0436	0.1252	14.4
0.0202	-0.0308	-0.0495	0.0232	13.8
0.0172	-0.0113	-0.0495	-0.0473	13.5
0.0142	-0.0083	-0.0511	-0.012	13
0.0157	-0.0038	-0.06	0.021	12.6
0.0165	0.0037	-0.0706	0.0127	12.2
0.015	0.0142	-0.0758	-0.0091	12
0.012	0.0285	-0.0803	-0.0315	11.4
0.0127	0.033	-0.0825	-0.0338	11.2
0.0142	0.0367	-0.081	-0.012	10.6
0.0105	0.0345	-0.0878	-0.0083	10.3
0.0105	0.0225	-0.0945	0.0082	9.8
0.0067	0.0157	-0.099	-0.0105	9.5
0.0045	0.0007	-0.099	-0.0195	9
0.0105	-0.0098	-0.099	-0.012	8.7
0.015	-0.006	-0.1065	-0.0428	8.4
0.021	-0.0128	-0.1118	-0.0698	8
0.0232	-0.0075	-0.114	-0.0368	7.8
0.0225	0	-0.1148	0.0045	7.3
0.0187	-0.0046	-0.1133	-0.0083	6.9
0.0165	0.0007	-0.114	0.0082	6.7
0.0202	0.0015	-0.1163	0.0082	6.3
0.0172	0.0037	-0.114	0.0075	6
0.018	0.0045	-0.108	0.0157	5.6
0.0165	0.0015	-0.0983	0.0225	5.5
0.0135	0.0015	-0.084	0.036	5.2
0.0142	-0.0053	-0.0683	0.024	4.9
0.0127	-0.0128	-0.0495	0.0067	4.5
0.009	-0.0165	-0.027	-0.0443	4.1
0.0067	-0.012	-0.0068	-0.0788	3.8
0.0045	-0.0038	0.0082	-0.0593	3.8
0.003	-0.0008	0.0165	-0.0315	3.3
0.0022	-0.0038	0.024	-0.0143	3
0.0067	-0.0068	0.0232	0.0015	2.9
0.018	-0.003	0.0217	0.0082	2.6
0.03	-0.003	0.024	0.012	2.4
0.0337	-0.0083	0.0277	0.0052	1.9
0.0352	-0.0105	0.0352	-0.0091	1.9
0.0315	-0.0068	0.0427	-0.0046	1.6
0.027	-0.0083	0.0555	-0.0015	1.4
0.0217	-0.0135	0.066	0.0105	1
0.0292	-0.0128	0.066	0.0105	0.9
0.0367	-0.0091	0.0622	-0.0015	0.7
0.0345	-0.0046	0.0592	-0.0075	0.5
0.03	0.0045	0.0577	-0.0143	0.1
0.024	0.009	0.0517	-0.0105	0.1
0.0195	0.0142	0.042	0.0007	-0.3
0.0165	0.0202	0.0405	0.0127	-0.2
0.0052	0.0195	0.0427	0.018	-0.5
-0.0008	0.0157	0.0472	0.015	-0.8
-0.006	0.0105	0.0532	0.009	-0.9
-0.0135	0.0082	0.06	0.009	-1.3
-0.0181	0.0052	0.0802	0.009	-1.3
-0.027	0.0007	0.1095	0.009	-1.6
-0.0383	0.0007	0.141	0.0112	-1.8
-0.048	-0.0008	0.1785	0.0105	-1.9
-0.06	-0.0023	0.2175	0.003	-2
-0.0788	0.0022	0.255	-0.0046	-2.3
-0.105	0.0037	0.2767	-0.003	-2.2
-0.1298	-0.003	0.2835	-0.0053	-2.6
-0.1485	-0.0053	0.2805	-0.003	-2.7
-0.1665	0.0015	0.2662	-0.0158	-2.8
-0.1793	0.0105	0.2505	-0.0263	-3
-0.1815	0.015	0.2385	-0.0075	-3.1
-0.1673	0.0142	0.2392	0.006	-3.2
-0.135	0.0105	0.2452	0.0067	-3.2
-0.1118	0.009	0.2482	0.0067	-3.2
-0.093	0.0045	0.27	0.0037	-3.2
-0.0585	-0.0008	0.333	0.0022	-3.3
-0.0263	-0.0038	0.4192	0.0015	-3.6
-0.0015	-0.0091	0.5122	-0.0046	-3.5
0.0247	-0.0128	0.6495	-0.0091	-3.6
0.0465	-0.0128	0.813	-0.0068	-3.5
0.069	-0.0105	0.939	0.0007	-3.7
0.0855	-0.0068	0.972	0.0015	-3.6
0.0982	-0.0068	0.8992	-0.0008	-3.7
0.1125	-0.0053	0.8257	0	-3.6
0.12	-0.0015	0.759	0	-3.6
0.12	-0.003	0.6975	-0.003	-3.6
0.1185	-0.006	0.642	-0.006	-3.6
0.1155	-0.0053	0.5887	-0.0023	-3.6
0.1117	-0.0008	0.492	0.0015	-3.6
0.1057	0.0015	0.3457	0.0052	-3.5
0.093	0.0022	0.1275	0.0045	-3.6
0.0802	0.0007	-0.156	0.003	-3.6
0.0675	-0.0008	-0.4448	0.003	-3.3
0.057	-0.0008	-0.7215	-0.0008	-3.5
0.0442	-0.0015	-0.9758	-0.0038	-3.2
0.033	0.0015	-1.2046	-0.0068	-3.4
0.0292	0.003	-1.4266	-0.0023	-3
0.0225	0.0015	-1.605	0.0052	-3.3
0.018	-0.0015	-1.7378	0.0045	-2.8
0.0217	-0.0046	-1.8315	0.0007	-3
0.0225	-0.0023	-1.8	-0.0015	-2.6
0.0165	0	-1.6515	-0.0008	-2.8
0.0067	0	-1.5113	0.0007	-2.4
0.003	0	-1.3823	-0.0015	-2.6
-0.0008	-0.0046	-1.266	0.0202	-2.6
-0.0083	-0.0083	-1.1595	0.0757	-2.5
-0.0188	-0.0105	-1.0628	0.0967	-2.5
-0.0225	-0.015	-0.975	0.0592	-2.3
-0.012	-0.0165	-0.8948	-0.0135	-2.3
-0.0083	-0.0181	-0.822	-0.1448	-2.3
0.0007	-0.0068	-0.7546	-0.147	-2.2
0.0082	0.0165	-0.6548	-0.0023	-2.1
0.0127	0.0262	-0.4455	0.0082	-2.1
0.024	0.027	-0.1741	-0.0075	-2
0.039	0.0232	0.075	-0.0195	-2.1
-0.0008	0.0157	0.3157	-0.0691	-2
-0.1478	0.006	0.51	-0.0398	-1.9
-0.4021	0	0.6525	-0.0248	-1.9
-0.7073	-0.0023	0.7545	-0.0075	-1.9
-0.8865	-0.0046	0.792	0.0097	-1.8
-0.8415	-0.0015	0.795	0.0307	-1.7
-0.705	-0.0015	0.7545	0.0465	-1.7
-0.5288	-0.0128	0.687	0.0172	-1.7
-0.273	-0.0195	0.5895	0.0105	-1.6
0.0367	-0.0181	0.4762	0.0105	-1.7
0.3172	-0.0143	0.354	0.0075	-1.5
0.486	-0.0105	0.2287	0.0075	-1.7
0.597	-0.003	0.1027	0.0187	-1.6
0.6555	0.009	-0.0091	0.0142	-1.6
0.5932	0.0105	-0.078	-0.024	-1.4
0.4695	-0.0038	-0.1185	-0.0443	-1.6
0.3157	-0.006	-0.1283	-0.027	-1.4
0.1425	0.0045	-0.1006	0	-1.4
-0.0143	0.024	-0.057	-0.0015	-1.3
-0.1411	0.0285	-0.0195	-0.0068	-1.4
-0.2235	0.0157	0.0255	-0.003	-1.1
-0.2798	0.006	0.0735	0.0307	-1.3
-0.3038	-0.0083	0.1215	0.0675	-1.1
-0.3045	-0.0256	0.1695	0.0367	-0.9
-0.291	-0.0428	0.2145	0.0015	-1
-0.2708	-0.06	0.258	-0.042	-0.9
-0.2768	-0.0735	0.2917	-0.0675	-1
-0.2895	-0.0683	0.3202	-0.0398	-0.8
-0.2955	-0.0368	0.3405	0.0255	-0.9
-0.2955	-0.0091	0.3517	0.0457	-0.6
-0.2858	0.0157	0.3577	-0.0323	-0.9
-0.2723	0.0337	0.3585	-0.0548	-0.6
-0.2453	0.0315	0.3555	-0.0256	-0.7
-0.2115	0.0285	0.3397	0	-0.5
-0.1778	0.0307	0.3225	0.012	-0.5
-0.1403	0.0345	0.303	0.0337	-0.3
-0.1103	0.0337	0.2797	0.0457	-0.3
-0.0915	0.018	0.2512	0.0045	-0.4
-0.0698	0.012	0.222	-0.0248	-0.3
-0.0533	0.0112	0.1995	-0.0263	-0.2
-0.024	0.009	0.1807	-0.0353	-0.2
0.018	0.012	0.1612	-0.0248	-0.2
0.0682	0.0112	0.135	-0.0015	-0.1
0.132	0.0112	0.105	-0.0188	-0.2
0.1965	0.0052	0.0705	0.012	-0.2
0.2572	-0.0015	0.033	0.003	-0.2
0.2955	0	-0.0015	-0.0315	-0.3
0.312	-0.0046	-0.0278	-0.0091	-0.3
0.312	-0.0105	-0.0511	-0.0263	-0.3
0.306	-0.0068	-0.0788	-0.0181	-0.5
0.2985	-0.0046	-0.108	0.0157	-0.5
0.2842	-0.0075	-0.1358	0.057	-0.7
0.2655	-0.012	-0.1568	0.093	-0.9
0.24	-0.0165	-0.1763	0.1357	-0.9
0.21	-0.012	-0.195	0.1582	-0.9
0.1822	-0.003	-0.2123	0.0157	-1.3
0.1567	0.006	-0.2175	-0.1703	-1.6
0.129	0.0127	-0.2085	-0.2235	-1.8
0.0982	0.0105	-0.1935	-0.1613	-1.8
0.0615	0.0045	-0.1628	-0.0713	-2.3
0.0157	-0.0053	-0.1215	-0.0053	-2.4
-0.0293	-0.012	-0.0825	0.0427	-2.8
-0.0691	-0.012	-0.0443	0.0382	-2.9
-0.1006	-0.012	-0.0083	0.0067	-3.6
-0.1253	-0.0068	0.0217	0.0067	-3.4
-0.1373	0.0007	0.0427	-0.0038	-4.2
-0.1463	0.0045	0.0525	-0.0046	-4.2
-0.15	0.006	0.054	-0.0015	-4.5
-0.1448	0.0052	0.054	0.0067	-4.8
-0.1253	0.0082	0.0442	0.0232	-4.9
-0.0863	0.0075	0.0315	0.0382	-5.2
-0.0533	0.0052	0.0187	0.048	-5.4
-0.0195	0.0015	0.0127	0.045	-5.5
0.0202	0.0007	0.0157	0.0007	-5.6
0.048	0.0045	0.0202	-0.0308	-6
0.0555	0.0052	0.0255	0.0075	-6.2
0.0765	-0.0053	0.0315	0.0135	-6.3
0.0997	-0.0143	0.042	0.006	-6.3
0.102	0.0022	0.054	0.0105	-6.3
0.1117	0.0217	0.063	-0.006	-6.5
0.1155	0.0345	0.0712	-0.0128	-6.6
0.1275	0.054	0.0795	-0.0398	-6.5
0.1432	0.0555	0.0885	-0.0675	-6.8
0.15	0.039	0.099	-0.0735	-6.3
0.1492	0.0127	0.111	-0.0623	-6.5
0.135	-0.012	0.1207	-0.027	-6.3
0.1237	-0.027	0.126	0.021	-5.9
0.12	-0.045	0.1327	0.0772	-5.8
0.1312	-0.0555	0.1357	0.1365	-5.6
0.1402	-0.0405	0.1312	0.1057	-5.3
0.1485	-0.033	0.1185	-0.042	-5.4
0.1522	-0.0458	0.108	-0.1396	-4.9
0.1485	-0.039	0.0975	-0.0728	-4.9
0.1447	-0.0038	0.1005	0.0367	-4.6
0.144	0.0315	0.1095	0.027	-4.5
0.1582	0.0307	0.1087	-0.0098	-4.1
0.1785	0.0007	0.1012	-0.0173	-3.9
0.1912	-0.03	0.0892	-0.048	-3.6
0.2032	-0.0398	0.0795	-0.0443	-3.6
0.2107	-0.0361	0.0802	0.0082	-3.5
0.1957	-0.0308	0.09	-0.0015	-3.4
0.1725	-0.0068	0.1027	-0.039	-3.3
0.1485	0.015	0.12	-0.0091	-3.1
0.1222	0.024	0.135	0.018	-2.9
0.0937	0.0142	0.1515	0.0255	-2.6
0.063	0.0045	0.1672	0.0255	-2.7
0.036	0.0112	0.177	0.0285	-2.2
0.0052	0.0157	0.1807	0.0465	-2.5
-0.0308	0.0195	0.1747	0.051	-2.2
-0.0615	0.0082	0.1657	0.0637	-2.5
-0.0915	-0.0053	0.1627	0.0517	-2.2
-0.1185	-0.0128	0.1537	-0.027	-2.4
-0.1396	-0.0203	0.141	-0.039	-2.1
-0.1575	-0.0098	0.1222	-0.0165	-2.2
-0.1741	0.009	0.099	-0.0308	-2
-0.1838	0.0187	0.0675	-0.0046	-2.2
-0.1868	0.0135	0.0255	-0.054	-2.2
-0.1853	0.0007	-0.0135	-0.0285	-2.2
-0.18	-0.0128	-0.0465	0.0975	-2.1
-0.1726	-0.0353	-0.0638	0.0652	-2.1
-0.165	-0.0285	-0.0668	-0.0728	-2.3
-0.1583	0.003	-0.0728	-0.2011	-2.3
-0.153	0.006	-0.0728	-0.159	-2.3
-0.1463	0.0105	-0.0713	-0.0623	-2.3
-0.1396	0.03	-0.0728	-0.0113	-2.4
-0.1313	0.0427	-0.0706	0.03	-2.5
-0.1245	0.0562	-0.0683	0.0382	-2.5
-0.117	0.0495	-0.0653	0.0517	-2.3
-0.111	0.027	-0.0593	0.027	-2.5
-0.1125	0.0127	-0.0555	0.0262	-2.6
-0.111	0.0045	-0.0525	0.06	-2.6
-0.1103	-0.006	-0.0473	0.09	-2.6
-0.108	-0.0105	-0.042	0.0667	-2.7
-0.1028	-0.0128	-0.0443	-0.0173	-2.7
-0.0983	-0.024	-0.048	-0.0728	-2.7
-0.0893	-0.0203	-0.045	-0.0893	-2.8
-0.0803	-0.0053	-0.0458	-0.0608	-2.8
-0.0706	0.003	-0.0473	0.0247	-2.7
-0.0593	0.0067	-0.0458	0.0787	-2.9
-0.0593	0.0045	-0.0458	0.105	-2.7
-0.0608	-0.0068	-0.054	0.123	-2.8
-0.0585	-0.0113	-0.0728	0.1125	-2.6
-0.0653	-0.0158	-0.0938	0.0877	-2.7
-0.0525	-0.0181	-0.114	-0.0083	-2.7
-0.0361	-0.0091	-0.1373	-0.0968	-3
-0.03	-0.0008	-0.1688	-0.1238	-2.9
-0.0218	0.0097	-0.2048	-0.09	-2.8
-0.0195	0.018	-0.2415	-0.0706	-2.9
-0.0128	0.018	-0.2768	-0.0713	-2.9
-0.012	0.0142	-0.309	-0.024	-2.8
-0.0158	0.0007	-0.3391	0.024	-3
-0.0181	-0.0181	-0.3653	0.0757	-3.1
-0.0181	-0.0233	-0.3855	0.0442	-2.7
-0.0165	-0.0195	-0.4036	0.003	-3.2
-0.0188	-0.015	-0.4163	0.012	-3.1
-0.0218	-0.0091	-0.4253	-0.0203	-3.2
-0.027	-0.0046	-0.4298	-0.0346	-3
-0.0308	-0.0113	-0.4313	-0.0405	-3.3
-0.0315	-0.0113	-0.426	-0.03	-2.9
-0.0278	-0.0008	-0.411	-0.0113	-3.2
-0.027	0.0045	-0.39	-0.0098	-3.1
-0.0278	0.006	-0.3645	-0.0068	-3.4
-0.027	0.0052	-0.3323	-0.0038	-3.1
-0.0308	0.0015	-0.3	0.0142	-3.3
-0.039	0.0015	-0.2693	0.0322	-3.3
-0.0436	0.0067	-0.2333	0.0195	-3.3
-0.0503	0.0202	-0.1973	-0.0053	-3.3
-0.0653	0.0352	-0.159	-0.0046	-3.3
-0.075	0.0397	-0.1178	-0.0068	-3.3
-0.0833	0.0255	-0.078	-0.0323	-3.4
-0.0885	0.0142	-0.0368	-0.0788	-3.5
-0.09	0.018	0.006	-0.048	-3.2
-0.0915	0.0157	0.0487	0.0157	-3.4
-0.0923	0.0052	0.0907	0.0082	-3.4
-0.096	-0.0113	0.126	0.0967	-3.5
-0.096	-0.0405	0.1537	0.2152	-3.4
-0.0938	-0.0638	0.1815	0.1747	-3.4
-0.099	-0.0743	0.2137	0.0442	-3.5
-0.114	-0.0758	0.237	-0.0691	-3.6
-0.12	-0.0638	0.2535	-0.1418	-3.6
-0.1215	-0.0443	0.2677	-0.1658	-3.6
-0.1223	-0.0256	0.279	-0.126	-3.6
-0.1238	-0.0158	0.2917	-0.0353	-3.6
-0.1313	-0.0105	0.3022	-0.0046	-3.6
-0.1328	0.0187	0.3082	-0.0195	-3.6
-0.135	0.0502	0.312	-0.0128	-3.5
-0.1328	0.0615	0.3165	-0.0165	-3.7
-0.1268	0.0592	0.3217	-0.0008	-3.5
-0.1193	0.0435	0.3232	0.0172	-3.6
-0.1088	0.0315	0.3225	0.0157	-3.6
-0.0998	0.0217	0.3225	0.0067	-3.7
-0.0856	0.012	0.3217	-0.0008	-3.6
-0.0743	0.0052	0.3232	0.0015	-3.7
-0.066	0.0007	0.327	0.0037	-3.5
-0.054	-0.0008	0.3292	0.0112	-3.6
-0.0368	-0.0015	0.3292	0.0247	-3.5
-0.0203	-0.0053	0.324	0.027	-3.7
-0.0098	-0.006	0.3142	0.012	-3.6
0.0052	-0.0015	0.2977	0.009	-3.7
0.0255	-0.0008	0.2692	0.0105	-3.8
0.039	-0.0015	0.24	0.0052	-3.6
0.036	-0.003	0.216	0.0022	-3.8
0.0382	-0.0046	0.1875	-0.003	-3.6
0.0427	0	0.156	-0.0053	-3.6
0.045	0.0015	0.1215	-0.012	-3.6
0.0532	0.0007	0.0855	-0.0068	-3.6
0.0607	0.0007	0.0517	-0.0023	-3.6
0.069	-0.003	0.0202	-0.012	-3.6
0.0742	-0.006	-0.0068	-0.0143	-3.6
0.075	-0.0038	-0.033	-0.006	-3.7
0.0765	0.0007	-0.0533	-0.003	-3.6
0.0795	0.0015	-0.0713	-0.0008	-3.5
0.0892	-0.0046	-0.0825	-0.0038	-3.7
0.093	-0.0068	-0.0878	-0.0046	-3.6
0.0975	-0.0083	-0.0893	-0.0046	-3.6
0.1065	-0.0105	-0.0878	-0.0046	-3.6
0.1185	-0.0053	-0.084	-0.0038	-3.4
0.1275	-0.003	-0.078	-0.0023	-3.6
0.138	-0.0046	-0.0713	0.003	-3.5
0.1492	-0.0046	-0.0653	0.0082	-3.7
0.1597	0.0022	-0.063	0.0135	-3.6
0.1702	0.0075	-0.0615	0.0232	-3.8
0.1785	0.0082	-0.063	0.036	-3.5
0.1875	0.003	-0.0691	0.0375	-3.8
0.1927	-0.003	-0.0743	0.0217	-3.6
0.1965	-0.0046	-0.081	0.0052	-3.8
0.2002	-0.0053	-0.0856	-0.0346	-3.7
0.2002	-0.0105	-0.09	-0.078	-4.1
0.2025	-0.0293	-0.0968	-0.0458	-3.7
0.2017	-0.024	-0.1006	-0.0256	-3.9
0.201	0.003	-0.1013	-0.057	-4
0.1972	0.0127	-0.1028	-0.0405	-3.8
0.189	0.0127	-0.0998	-0.039	-4
0.1822	0.0105	-0.0945	-0.024	-3.6
0.1762	0.006	-0.09	0.0082	-4
0.1687	0.0045	-0.0825	0.0097	-3.8
0.1597	0.0007	-0.0735	0.0165	-4.1
0.1515	-0.0015	-0.0638	0.0105	-3.7
0.1372	-0.0023	-0.0563	0.012	-4.1
0.1222	-0.0015	-0.045	0.0097	-4
0.1125	-0.003	-0.0346	0.0075	-4.1
0.099	-0.0015	-0.024	0.0082	-3.8
0.0862	-0.0015	-0.0128	0.0067	-4.2
0.0727	-0.0038	-0.0038	0.0067	-3.9
0.0555	-0.003	0.0052	0.0045	-3.9
0.0457	-0.003	0.0142	0.0045	-3.9
0.033	-0.003	0.0232	0.0022	-4
0.0195	-0.0008	0.0307	0.0015	-4.1
0.009	0.0007	0.036	0.0007	-4
-0.003	0	0.0412	0.0022	-4.1
-0.0158	0.0015	0.0435	0.0015	-4
-0.0278	0.0022	0.0465	0	-4.2
-0.045	-0.0008	0.0465	-0.003	-4.2
-0.0675	-0.0046	0.0427	-0.0053	-4
-0.0856	-0.0053	0.0367	-0.0046	-4.2
-0.096	-0.0046	0.0315	-0.0105	-4.1
-0.105	-0.0083	0.024	-0.0158	-4.2
-0.1125	-0.0075	0.0142	-0.0135	-4.2
-0.123	-0.003	0.0045	-0.0075	-4.2
-0.1335	-0.003	-0.0053	-0.0046	-4.2
-0.1418	0	-0.0135	-0.003	-4.4
-0.147	-0.0008	-0.024	-0.0038	-4.3
-0.1485	-0.0015	-0.0315	-0.0053	-4.4
-0.1463	0	-0.0398	-0.0053	-4.5
-0.1411	-0.0008	-0.0458	-0.0053	-4.2
-0.1388	-0.0008	-0.048	-0.0046	-4.6
-0.1343	0	-0.0511	-0.003	-4.2
-0.1283	0	-0.0511	0.0015	-4.6
-0.1253	0.0007	-0.0495	0.0037	-4.3
-0.1215	-0.0008	-0.0473	0.0075	-4.6
-0.1193	-0.0015	-0.0443	0.0082	-4.6
-0.1155	0.0007	-0.0405	0.0135	-4.5
-0.1125	0.003	-0.0323	0.0127	-4.2
-0.1088	0.0007	-0.0293	-0.0218	-4.7
-0.1088	-0.0046	-0.0256	-0.06	-4.3
-0.1118	-0.0068	-0.021	-0.054	-4.7
-0.1118	-0.0075	-0.0158	-0.0233	-4.7
-0.1125	-0.0068	-0.0075	0.006	-4.7
-0.1125	-0.0053	0.0007	0.054	-4.8
-0.1125	-0.0023	0.0105	0.0547	-4.6
-0.1065	0.0007	0.018	-0.0083	-4.9
-0.099	0.0142	0.0232	-0.0428	-4.7
-0.0915	0.024	0.024	-0.0443	-4.9
-0.0833	0.0217	0.021	-0.0195	-4.8
-0.0743	0.0187	0.0157	0.0045	-4.8
-0.0608	0.012	0.0082	0.009	-4.7
-0.0488	0.0052	0.0015	0.0135	-4.8
-0.0398	0	-0.006	0.0075	-4.9
-0.0293	-0.0023	-0.0135	0.0082	-4.9
-0.0188	-0.0008	-0.0203	0.009	-4.9
-0.0083	-0.0053	-0.027	0.0127	-5
0.0015	-0.0105	-0.0361	0.0135	-5
0.012	-0.015	-0.0458	0.0157	-5
0.021	-0.0195	-0.057	0.0105	-5
0.0292	-0.0165	-0.0675	-0.0195	-5
0.0382	-0.0083	-0.078	-0.0346	-5
0.045	-0.0105	-0.0863	0.0007	-5.1
0.0525	-0.0113	-0.0953	0.042	-5
0.06	-0.0075	-0.1006	0.039	-5
0.0637	-0.0083	-0.105	0.0202	-5
0.0667	-0.0113	-0.1088	0.0067	-5.2
0.0712	-0.0203	-0.1095	0.0067	-5.1
0.075	-0.0293	-0.1103	-0.0165	-5.3
0.078	-0.0195	-0.114	-0.0706	-5.2
0.0765	-0.0008	-0.114	-0.0825	-5.4
0.0705	0.0142	-0.1118	-0.0803	-5.1
0.0652	0.0495	-0.1103	-0.0765	-5.2
0.06	0.0877	-0.1118	-0.0361	-5.1
0.0532	0.0742	-0.1155	0.0165	-5.2
0.0457	0.0322	-0.12	0.0405	-5.2
0.0345	0.009	-0.1208	0.0367	-5.2
0.0277	0.003	-0.1178	0.0277	-5.4
0.0217	-0.0015	-0.1118	0.021	-5.3
0.0195	-0.0023	-0.1043	0.0165	-5.4
0.0157	-0.0053	-0.0923	0.015	-5.4
0.0075	-0.0075	-0.084	0.0105	-5.4
0.0015	-0.0068	-0.0825	0.0097	-5.4
-0.0038	-0.0083	-0.0878	0.0067	-5.4
-0.0091	-0.0068	-0.0953	0.0052	-5.5
-0.0135	-0.0083	-0.096	0.0045	-5.5
-0.0195	-0.0068	-0.0856	0.0022	-5.5
-0.0233	-0.0068	-0.0653	0.0007	-5.5
-0.0285	-0.006	-0.0428	-0.0008	-5.4
-0.0315	-0.003	-0.0218	0.0007	-5.6
-0.0353	-0.0038	-0.0023	0.0007	-5.4
-0.039	-0.006	0.0187	0.0007	-5.4
-0.039	-0.0053	0.0337	-0.0015	-5.4
-0.039	-0.0053	0.0487	-0.0008	-5.5
-0.0443	-0.0053	0.063	-0.0015	-5.4
-0.0465	-0.0053	0.0795	-0.003	-5.8
-0.0511	-0.003	0.0945	-0.0015	-5.4
-0.057	-0.0015	0.1042	-0.0015	-5.5
-0.0578	0.0015	0.1162	0	-5.5
-0.063	0.003	0.1312	-0.0008	-5.6
-0.0675	0.0007	0.144	0.0007	-5.5
-0.0721	0.0015	0.1552	0.0007	-5.7
-0.0803	0.0007	0.165	0	-5.5
-0.0856	0	0.1725	0	-5.7
-0.0908	-0.0008	0.18	-0.0008	-5.4
-0.0975	-0.0008	0.1875	0	-5.6
-0.1028	0	0.1942	-0.0008	-5.4
-0.1088	-0.0015	0.1995	-0.0015	-5.6
-0.114	-0.0008	0.2025	-0.0015	-5.4
-0.1185	-0.0015	0.2047	-0.0015	-5.3
-0.117	-0.0015	0.2062	-0.0015	-5.6
-0.111	-0.0023	0.2085	-0.003	-5.3
-0.105	-0.003	0.207	-0.003	-5.4
-0.1013	-0.0015	0.204	-0.003	-5.1
-0.099	-0.0008	0.198	-0.0008	-5.5
-0.0953	-0.0008	0.1882	-0.0015	-5.3
-0.0938	-0.0008	0.1762	-0.003	-5.5
-0.0893	-0.0008	0.1605	-0.003	-5.2
-0.0848	0	0.144	-0.003	-5.5
-0.0788	0.0007	0.1267	-0.0023	-5.3
-0.0691	0	0.1125	-0.003	-5.4
-0.0585	-0.0008	0.0967	-0.003	-5.2
-0.0436	-0.0008	0.078	-0.003	-5.3
-0.024	0.0007	0.0592	-0.003	-5.2
0.0082	0.0007	0.0397	-0.003	-5.4
0.0427	-0.0008	0.0202	-0.003	-5.4
0.057	-0.0008	-0.0008	-0.0015	-5.1
0.063	-0.0008	-0.0195	-0.0008	-5.4
0.063	-0.003	-0.0405	0	-5.2
0.0615	-0.003	-0.06	0.0015	-5.2
0.0675	-0.0023	-0.0765	0.0022	-5.1
0.0757	-0.0015	-0.09	0	-5.2
0.0877	-0.003	-0.099	-0.0046	-5.1
0.099	-0.0075	-0.1043	-0.0075	-5.1
0.1087	-0.0075	-0.108	-0.0091	-5
0.114	-0.0053	-0.1118	-0.0128	-5
0.114	-0.006	-0.1103	-0.0158	-5
0.1125	-0.0015	-0.1035	-0.012	-5
0.1095	0.0045	-0.0953	-0.0083	-5.1
0.1065	0.0082	-0.0848	-0.0068	-5
0.1065	0.0157	-0.0713	-0.0053	-5
0.1095	0.0202	-0.0578	0.0007	-5
0.1102	0.0172	-0.0413	0.0045	-5
0.114	0.009	-0.0233	-0.003	-5.1
0.1177	-0.003	-0.003	-0.0053	-4.8
0.108	0.0007	0.0202	-0.0008	-5
0.1027	0.0045	0.0457	-0.0023	-4.8
0.1027	-0.0083	0.0675	-0.003	-5
0.0967	-0.0158	0.0862	0.0007	-4.9
0.0945	-0.0105	0.099	0.006	-4.9
0.0885	-0.0008	0.108	0.0097	-4.7
0.0817	-0.003	0.1102	0.0067	-5
0.0765	-0.0015	0.108	0.003	-4.7
0.069	0.003	0.0997	-0.0008	-5
0.0607	0.0007	0.0855	-0.0038	-4.8
0.0532	-0.0008	0.069	0	-4.7
0.045	-0.006	0.0517	0.012	-4.8
0.0397	-0.006	0.033	0.0142	-4.7
0.0315	-0.0091	0.0165	0.006	-4.7
0.0255	-0.0091	0.0007	0.0045	-4.5
0.0195	-0.0046	-0.015	-0.0075	-4.8
0.012	-0.0015	-0.0293	-0.0203	-4.6
0.0075	0.0112	-0.042	-0.024	-4.8
0.0015	0.0105	-0.0533	-0.0256	-4.5
-0.0015	0	-0.0623	-0.0248	-4.8
-0.0068	-0.0038	-0.0691	-0.0188	-4.6
-0.0113	-0.0158	-0.0743	-0.0068	-4.8
-0.006	-0.0128	-0.0758	0.0045	-4.7
-0.0008	0.0022	-0.0758	0.0075	-4.9
0.003	0.0082	-0.0765	0.0187	-4.6
0.006	0.0202	-0.075	0.0292	-4.6
0.006	0.0127	-0.0735	0.0285	-4.5
0.0045	-0.0038	-0.0706	0.0225	-4.7
0.0022	-0.0038	-0.0675	0.0082	-4.5
-0.0038	0.0007	-0.0623	0.0067	-4.6
-0.0105	-0.0038	-0.057	0.009	-4.5
-0.0158	-0.0135	-0.0525	0.0022	-4.6
-0.0218	-0.0218	-0.048	-0.0218	-4.5
-0.027	-0.0203	-0.0458	-0.0495	-4.7
-0.0338	-0.0015	-0.0436	-0.075	-4.5
-0.042	0.0015	-0.0405	-0.0878	-4.7
-0.0555	-0.0008	-0.0383	-0.0578	-4.5
-0.0691	0.0195	-0.0383	-0.0256	-4.7
-0.0728	0.0165	-0.0383	-0.0083	-4.6
-0.0788	0	-0.039	0.0052	-4.9
-0.0893	-0.0046	-0.039	0.018	-4.7
-0.0953	-0.003	-0.0383	0.027	-4.6
-0.1043	0.003	-0.0405	0.027	-4.6
-0.1065	0.0097	-0.0405	0.0315	-4.5
-0.1073	0.0082	-0.0413	0.027	-4.8
-0.1178	0.0022	-0.0458	0.0195	-4.5
-0.1223	0.0015	-0.0488	0.0105	-4.8
-0.1103	0.0007	-0.0518	0.0067	-4.7
-0.1058	-0.0008	-0.057	0.0045	-4.7
-0.1028	0	-0.0615	0.003	-4.5
-0.1013	-0.0008	-0.0653	0.006	-4.7
-0.1043	-0.0015	-0.0691	0.0052	-4.6
-0.0998	-0.003	-0.0683	0.0045	-4.7
-0.0968	-0.0046	-0.0675	0.0045	-4.5
-0.0863	-0.0046	-0.063	0.0067	-4.8
-0.078	-0.003	-0.0563	0.0082	-4.5
-0.0675	-0.003	-0.0503	0.006	-4.6
-0.0578	-0.003	-0.042	0.0022	-4.8
-0.048	-0.0023	-0.0353	-0.0015	-4.8
-0.0361	0	-0.0278	-0.0038	-4.6
-0.027	0	-0.0225	-0.0068	-4.8
-0.0158	-0.003	-0.0203	-0.0105	-4.5
-0.0068	-0.0038	-0.0195	-0.0143	-4.8
0.0045	-0.0053	-0.0188	-0.0083	-4.6
0.0157	-0.0068	-0.0181	-0.003	-4.6
0.0262	-0.0083	-0.0143	-0.003	-4.7
0.0307	-0.006	-0.0113	-0.0053	-4.8
0.0292	-0.0015	-0.0068	-0.0091	-4.7
0.036	0.0045	-0.0015	-0.0046	-4.6
0.0367	0.0097	0.0045	0.009	-4.7
0.039	0.0135	0.0105	0.033	-4.6
0.0405	0.0157	0.015	0.042	-4.7
0.0382	0.0112	0.018	0.039	-4.8
0.0352	-0.0023	0.0187	0.0397	-4.6
0.0307	-0.0165	0.0165	0.0315	-4.8
0.024	-0.0046	0.0157	0.0105	-4.6
0.0127	0.0127	0.0142	-0.0256	-4.6
0.0007	-0.0053	0.0165	-0.063	-4.8
-0.0105	-0.0218	0.0165	-0.0585	-4.6
-0.0233	0.0045	0.0165	-0.0173	-4.7
-0.0346	0.0292	0.0195	0.006	-4.7
-0.0458	0.024	0.0255	-0.015	-4.7
-0.0555	0.0052	0.027	-0.0495	-4.5
-0.0608	-0.0128	0.0277	-0.0856	-4.7
-0.066	-0.0293	0.03	-0.0893	-4.5
-0.0675	-0.048	0.0315	-0.0473	-4.6
-0.0691	-0.054	0.0307	-0.0413	-4.6
-0.0683	-0.0383	0.0315	-0.0645	-4.8
-0.0668	-0.0165	0.0315	-0.0563	-4.6
-0.063	0.0045	0.033	-0.003	-4.4
-0.0578	0.0067	0.0345	0.0277	-4.7
-0.0518	0.0052	0.0352	0.0202	-4.6
-0.0458	0.0157	0.036	0.0255	-4.6
-0.0383	0.0202	0.0367	0.0157	-4.4
-0.0263	0.0277	0.0382	0.0007	-4.6
-0.0181	0.0255	0.039	-0.0053	-4.5
-0.0091	0.0292	0.0397	0.0015	-4.7
-0.0008	0.0442	0.0405	0.0232	-4.4
0.0067	0.0262	0.042	0.0427	-4.6
0.0157	0.006	0.042	0.0487	-4.5
0.0225	0.0045	0.0427	0.0397	-4.6
0.0307	0	0.0442	0.0315	-4.4
0.0352	-0.0083	0.045	0.03	-4.6
0.039	-0.0098	0.045	0.0232	-4.3
0.0405	-0.0165	0.045	0.0045	-4.6
0.0412	-0.0188	0.0465	0.0082	-4.3
0.0427	-0.015	0.048	0.0315	-4.4
0.0435	-0.0218	0.048	0.0427	-4.5
0.0442	-0.0098	0.0457	0.0607	-4.5
0.0442	0.0015	0.0442	0.0637	-4.5
0.039	-0.0038	0.0427	0.0202	-4.6
0.0337	-0.0023	0.042	-0.027	-4.5
0.0315	-0.0135	0.0405	-0.0743	-4.5
0.0285	-0.0203	0.039	-0.1065	-4.4
0.0217	-0.0053	0.0382	-0.0975	-4.5
0.0142	0.012	0.0367	-0.0608	-4.5
0.0075	0.0157	0.0352	-0.039	-4.5
0.0022	0.0157	0.033	-0.024	-4.4
-0.0015	0.018	0.0315	0.0082	-4.4
-0.0083	0.009	0.0277	0.0165	-4.3
-0.012	0.0007	0.0255	0.0202	-4.5
-0.0165	0.0007	0.0255	0.0322	-4.4
-0.021	-0.0015	0.024	0.0367	-4.2
-0.0218	-0.0068	0.0247	0.0307	-4.5
-0.0256	-0.0218	0.0262	0.018	-4.2
-0.0256	-0.03	0.0277	0.0142	-4.5
-0.0256	-0.012	0.027	0.0142	-4.2
-0.0256	-0.003	0.0307	-0.003	-4.5
-0.0278	0.0142	0.0345	-0.012	-4.2
-0.0278	0.0262	0.036	-0.0143	-4.5
-0.024	-0.0083	0.0367	-0.0308	-4.2
-0.0195	-0.0165	0.0315	-0.0353	-4.4
-0.0165	0.0135	0.0277	-0.0233	-4.1
-0.0158	0.0157	0.0255	-0.0008	-4.4
-0.015	0.0022	0.0217	-0.0008	-4.1
-0.0158	-0.0015	0.0195	-0.033	-4.3
-0.0165	-0.0015	0.0142	-0.0473	-4.2
-0.0188	-0.0083	0.0067	-0.0465	-4.2
-0.0181	-0.006	-0.0015	-0.0383	-4.2
-0.0165	0.0052	-0.0105	-0.012	-4.1
-0.015	0.003	-0.0173	0.0037	-4.2
-0.0143	0	-0.024	0.0105	-4.2
-0.0158	0	-0.0278	0.0172	-4
-0.015	-0.0023	-0.0315	0.0247	-4.1
-0.0173	0.0022	-0.0368	0.0345	-4.1
-0.0188	0.0015	-0.039	0.0247	-3.9
-0.0203	0.003	-0.042	0.0097	-3.9
-0.0218	-0.0023	-0.045	-0.003	-3.9
-0.0181	-0.0158	-0.0465	-0.0083	-3.9
-0.0143	-0.0158	-0.0458	-0.0015	-3.8
-0.0128	-0.0083	-0.0443	0.0007	-3.9
-0.0128	0.0037	-0.0413	-0.0053	-3.7
-0.0165	0.021	-0.0375	-0.0105	-3.6
-0.0181	0.0307	-0.0346	-0.0015	-3.7
-0.0195	0.0225	-0.0293	0.012	-3.8
-0.0203	0.0082	-0.0256	0.0165	-3.6
-0.0173	0	-0.0225	0.0127	-3.6
-0.0165	-0.0083	-0.0165	0.0037	-3.5
-0.0128	-0.0083	-0.0105	0.0015	-3.8
-0.0135	-0.003	-0.006	0.003	-3.5
-0.0135	-0.003	-0.0015	0.0022	-3.6
-0.0128	-0.003	0.0022	0.0007	-3.3
-0.0143	-0.0008	0.0082	0.003	-3.4
-0.0105	0.0052	0.012	0.0082	-3.1
-0.0091	0.0067	0.0157	0.0157	-3.2
-0.0105	0	0.0187	0.015	-3.2
-0.0091	-0.0091	0.018	0.0067	-3.2
-0.0068	-0.0143	0.0187	-0.0008	-3.1
-0.0038	-0.0143	0.0165	-0.0135	-3.1
-0.0015	-0.0158	0.0105	-0.024	-3
0.0015	-0.0165	0.0007	-0.0315	-2.9
0.0045	-0.012	-0.0203	-0.0315	-2.8
0.0045	-0.0008	-0.048	-0.024	-2.8
0.0082	0.018	-0.0728	-0.021	-2.9
0.0112	0.0277	-0.0915	-0.0083	-2.7
0.0105	0.0157	-0.1021	0.0097	-2.7
0.0112	0.0007	-0.1065	0.0097	-2.6
0.0127	-0.0015	-0.105	0.0067	-2.6
0.0127	-0.0038	-0.0975	0.0015	-2.5
0.0142	-0.0053	-0.0871	0.0007	-2.6
0.0157	-0.0023	-0.0765	0.0007	-2.4
0.018	-0.0015	-0.0691	-0.0008	-2.3
0.0195	-0.003	-0.0608	0	-2.1
0.0165	-0.003	-0.057	0	-2.1
0.015	-0.0038	-0.0555	0.0007	-2
0.015	-0.0015	-0.054	-0.0015	-1.9
0.0127	-0.0008	-0.0555	-0.003	-1.9
0.0082	-0.0008	-0.0593	-0.003	-1.8
0.0045	0	-0.0593	-0.0023	-1.7
0.0022	-0.0008	-0.0555	-0.0015	-1.8
0.0007	0	-0.0495	-0.0023	-1.6
-0.0023	0.0007	-0.0413	-0.0015	-1.9
-0.0053	-0.0008	-0.027	-0.003	-1.4
-0.006	-0.0008	-0.0083	-0.003	-1.5
-0.0083	-0.0008	0.0127	-0.0038	-1.2
-0.0091	0	0.0345	-0.0038	-1.4
-0.0083	-0.0008	0.0547	-0.003	-1.1
-0.0098	-0.0008	0.0742	-0.0023	-1.3
-0.0091	0	0.0892	-0.0038	-1
-0.0075	-0.0008	0.0967	-0.003	-1.2
-0.0083	0	0.0997	-0.003	-0.8
-0.0075	0.0015	0.0982	-0.0038	-1
-0.0053	0.0045	0.093	-0.0046	-0.6
-0.0038	0.0045	0.0847	-0.0068	-0.8
-0.003	0.0015	0.0742	-0.0083	-0.8
-0.0046	-0.0023	0.0637	-0.006	-0.4
-0.0023	-0.0038	0.0517	-0.0046	-0.6
-0.0046	-0.003	0.0382	-0.0023	-0.2
-0.0023	-0.0053	0.0255	0.0015	-0.4
0.0007	-0.0083	0.012	0.003	0
-0.003	-0.003	-0.003	0.0052	-0.3
-0.0038	0.0015	-0.0158	0.0067	0
-0.003	0.0007	-0.027	0.006	-0.2
-0.003	-0.0015	-0.0368	0.003	0.1
-0.0053	-0.0015	-0.0428	-0.0046	0.1
-0.0068	0.0007	-0.0443	-0.0068	0.5
-0.0083	0.003	-0.042	-0.0091	0.3
-0.0091	0.0052	-0.039	-0.0083	0.4
-0.0113	0.0067	-0.0338	-0.006	0.4
-0.0128	0.0045	-0.0263	-0.0053	0.6
-0.0158	0.003	-0.0181	-0.0038	0.7
-0.0143	0.0045	-0.0068	-0.0008	0.9
-0.012	0.0067	0.003	0.0007	0.9
-0.015	0.0052	0.0135	-0.0008	0.9
-0.0195	0.003	0.0202	-0.003	1.1
-0.021	0	0.0277	-0.0068	1.1
-0.0233	-0.003	0.0367	-0.0075	1.3
-0.0233	-0.0015	0.0397	-0.0053	1.3
-0.0256	-0.0046	0.0435	-0.0015	1.4
-0.0278	-0.0188	0.0457	0.0007	1.5
-0.0278	-0.0293	0.0442	-0.0046	1.6
-0.0248	-0.0165	0.0427	-0.006	1.7
-0.0218	0.0015	0.039	-0.0015	1.7
-0.0225	0.0067	0.0375	0	1.8
-0.0233	0.0105	0.033	-0.0023	1.9
-0.0233	-0.0008	0.0285	-0.0181	2
-0.0181	-0.0135	0.0225	-0.015	2.1
-0.0053	-0.0053	0.0165	0.0127	2.1
0.006	0.0015	0.0105	0.0142	2.3
0.018	0.003	0.0075	0.0075	2.3
0.0277	0.0067	0.003	0.0165	2.6
0.036	0.003	0.0015	0.0127	2.4
0.0442	-0.0023	0.003	-0.0091	2.6
0.0495	-0.0053	0.0022	-0.0278	2.6
0.0525	-0.0098	0.0015	-0.0293	3
0.0577	0	-0.0008	-0.0263	2.9
0.0622	0.0052	-0.003	-0.0203	3.1
0.0667	-0.0053	-0.0083	-0.0105	3
0.0742	-0.0068	-0.0143	-0.0053	3.2
0.0787	-0.0038	-0.0203	-0.0015	3.3
0.0855	-0.0038	-0.0308	-0.0023	3.4
0.0952	-0.0015	-0.0368	-0.003	3.4
0.0975	0	-0.042	-0.0015	3.6
0.1005	0.0052	-0.0465	-0.0023	3.8
0.1035	0.012	-0.048	0	3.8
0.105	0.015	-0.045	0.0015	4.1
0.1065	0.0097	-0.039	0.0052	4
0.108	0.003	-0.0315	0.009	4.2
0.1072	0.003	-0.0218	0.0067	4.1
0.1027	0.0022	-0.0128	0.003	4.6
0.09	0.0015	-0.003	0.0015	4.6
0.0825	0.0015	0.003	0.0015	4.8
0.0817	-0.0008	0.0067	-0.0008	4.7
0.0742	-0.0008	0.0105	-0.0015	5.1
0.0562	-0.003	0.012	-0.0015	5
0.0405	-0.0046	0.0112	-0.0008	5.3
0.0315	-0.003	0.0105	-0.0008	5.4
0.0232	-0.0046	0.0067	0.0022	5.4
0.0165	-0.0038	0.0052	0.0082	5.6
0.0105	-0.0015	0.0105	0.0112	5.8
0.0015	-0.0015	0.0157	0.009	5.9
-0.0038	-0.0008	0.0217	0.0037	6.1
-0.0075	-0.0008	0.0277	-0.0023	6.1
-0.0143	-0.0023	0.0352	-0.0068	6.3
-0.0165	-0.003	0.0435	-0.0091	6.4
-0.0128	-0.003	0.0517	-0.0098	6.7
-0.0046	-0.0008	0.0577	-0.003	6.8
0.0007	0.003	0.0667	-0.0008	7
-0.0046	0.012	0.0817	-0.0008	7
-0.0165	0.0202	0.1102	0.0097	7.2
-0.033	0.018	0.1485	0.024	7.5
-0.0533	0.0082	0.1905	0.0232	7.5
-0.0728	0.003	0.2325	0.018	7.7
-0.0938	-0.0113	0.261	0.0187	7.9
-0.1155	-0.0218	0.2722	0.024	8.2
-0.1313	-0.0128	0.2655	0.0202	8.2
-0.1478	-0.0083	0.246	-0.0068	8.4
-0.162	-0.003	0.2122	-0.0293	8.5
-0.1673	0.0097	0.171	-0.048	8.7
-0.1726	0.012	0.1252	-0.0638	8.8
-0.1741	0.0067	0.075	-0.0615	9.2
-0.1696	-0.0046	0.027	-0.039	9.1
-0.165	-0.012	-0.0158	-0.0143	9.3
-0.156	-0.0068	-0.054	-0.006	9.4
-0.1463	0.0007	-0.0893	-0.0195	9.7
-0.1365	0.0045	-0.1178	-0.0368	9.7
-0.1253	0.0045	-0.1463	-0.0135	9.8
-0.114	0.0022	-0.1711	0.0157	10.2
-0.105	0.0045	-0.1875	0.0127	10.3
-0.0953	0.0045	-0.2003	0.0202	10.5
-0.0878	0.0105	-0.2063	0.0292	10.6
-0.0825	0.0127	-0.2085	0.0247	10.9
-0.0713	0.0105	-0.2063	0.0202	11.1
-0.063	0.009	-0.195	0.024	11.3
-0.0615	0	-0.1748	0.027	11.4
-0.0578	-0.0188	-0.1515	0.0232	11.4
-0.0518	-0.0143	-0.1275	0.0082	11.8
-0.0503	0.0007	-0.099	-0.0015	11.9
-0.0495	0.0052	-0.066	-0.0075	12.1
-0.0503	0.0172	-0.03	-0.0248	12.2
-0.0495	0.0172	0.009	-0.027	12.7
-0.0465	0.0015	0.0457	-0.0105	12.8
-0.042	-0.0128	0.0787	-0.0098	13.1
-0.0405	-0.0195	0.111	-0.0113	13.3
-0.0368	-0.0225	0.1365	0.0015	13.4
-0.033	-0.012	0.1567	0.0105	13.6
-0.0308	0.003	0.1717	0.009	13.7
-0.0278	-0.0053	0.1837	-0.0083	14.2
-0.0285	-0.0128	0.186	0.0082	14.2
-0.0233	-0.0075	0.18	0.0435	14.8
-0.0165	0.003	0.1702	0.0517	14.7
-0.0105	0.0082	0.1575	0.0525	15.2
-0.0008	0.0135	0.144	0.0427	15
0.0067	0.0142	0.1305	0.0277	15.6
0.0127	-0.0075	0.1185	-0.0053	15.4
0.0195	-0.0346	0.1027	-0.0278	15.9
0.0262	-0.0518	0.0832	-0.0405	16
0.0352	-0.0503	0.0592	-0.0578	16.4
0.042	-0.0218	0.0307	-0.0728	16.5
0.0427	0.0157	0.0052	-0.0885	16.8
0.042	0.048	-0.024	-0.057	17
0.0427	0.0442	-0.054	-0.0518	17.2
0.045	0.0217	-0.0803	-0.0953	17.5
0.0472	0.0322	-0.1043	-0.0758	17.5
0.048	0.0187	-0.1275	-0.027	18.1
0.0442	0	-0.1478	0.015	18.3
0.0405	-0.0038	-0.1628	0.0442	18.7
0.0382	-0.0091	-0.1763	0.045	18.6
0.0352	0.0105	-0.1875	0.0495	19.1
0.0277	0.0082	-0.195	0.0615	19.2
0.0202	0	-0.2011	0.0847	19.7
0.0165	-0.0075	-0.2026	0.0877	19.8
0.0082	-0.0308	-0.198	0.0622	20.1
0.0045	-0.0465	-0.1875	0.045	20.2
0.006	-0.0405	-0.1688	0.0292	20.7
0.0007	-0.0218	-0.1426	0.0157	20.9
-0.0015	-0.0308	-0.1118	-0.0203	21
-0.0068	-0.0173	-0.0803	-0.0525	21.5
-0.0128	0.0165	-0.0533	-0.0608	21.8
-0.0188	0.0202	-0.027	-0.1006	21.8
-0.027	0.0202	-0.003	-0.159	22.4
-0.033	0.033	0.0157	-0.135	22.5
-0.0405	0.0292	0.033	-0.0495	22.9
-0.0503	0.0172	0.054	-0.0091	23.1
-0.057	0.0157	0.0727	0.0202	23.4
-0.0668	0.0037	0.0825	0.0412	23.6
-0.0765	-0.0008	0.09	0.0457	24
-0.0878	0.0015	0.099	0.0517	24.2
-0.0975	-0.0083	0.1065	0.0427	24.6
-0.1028	-0.0135	0.108	0.033	24.7
-0.1013	-0.0218	0.1057	0.0082	25.2
-0.093	-0.0188	0.1012	0.0015	25.3
-0.084	-0.0068	0.0975	0.0105	25.6
-0.0856	-0.0023	0.0937	0.0112	25.9
-0.0915	-0.0008	0.0892	0.0142	25.9
-0.099	-0.0023	0.084	0.0082	26.5
-0.1118	-0.003	0.0772	0.0022	26.3
-0.1208	-0.0015	0.0675	0.0015	27
-0.1215	-0.0008	0.057	0.0007	26.9
-0.117	0.0015	0.0412	0.0007	27.4
-0.1095	0.0045	0.0255	0	27.3
-0.093	0.0045	0.0075	-0.0008	27.9
-0.0706	0.0015	-0.0143	-0.0053	27.9
-0.0518	-0.0015	-0.0353	-0.0075	28.2
-0.0308	0.0007	-0.057	-0.0046	28.3
-0.0083	0.0022	-0.078	-0.0046	28.8
0.0142	0.0045	-0.0968	-0.0046	29
0.0397	0.009	-0.1148	-0.003	29.1
0.069	0.009	-0.129	-0.0038	29.3
0.0952	0.0052	-0.1433	-0.0015	29.7
0.1185	0.0037	-0.1545	0.0007	29.8
0.1402	-0.0008	-0.1635	0.0105	30.1
0.156	-0.0083	-0.1711	0.0202	30.2
0.1732	-0.0195	-0.1756	0.0225	30.5
0.1897	-0.027	-0.1815	0.024	30.7
0.201	-0.0158	-0.1845	0.0217	31
0.2107	-0.0091	-0.1845	0.0015	31.2
0.2197	-0.0105	-0.1845	-0.0263	31.5
0.2235	-0.003	-0.1853	-0.042	31.7
0.222	0.003	-0.1845	-0.0525	31.9
0.2197	0.0105	-0.1823	-0.0525	32.3
0.2175	0.0172	-0.18	-0.0383	32.7
0.2152	0.024	-0.177	-0.0323	32.7
0.2137	0.0315	-0.1711	-0.0285	33
0.2137	0.0277	-0.1628	-0.0218	33.3
0.2137	0.0082	-0.1553	-0.021	33.5
0.2077	-0.0143	-0.1448	-0.0188	33.7
0.2017	-0.021	-0.1358	-0.0068	33.7
0.2002	-0.0248	-0.126	0.0052	34.3
0.1912	-0.0195	-0.1148	0.0022	34.3
0.1635	-0.0091	-0.1035	-0.0015	34.9
0.1087	-0.006	-0.09	0.0007	35.1
0.0367	-0.003	-0.0773	0.003	35.4
-0.027	-0.0023	-0.0653	0.003	35.4
-0.0721	0.0022	-0.054	0.0045	36
-0.096	0.0007	-0.0398	0.006	36.1
-0.1013	-0.003	-0.0285	0.0112	36.5
-0.0825	-0.0038	-0.0181	0.0202	36.6
-0.0443	-0.003	-0.0083	0.0225	37
-0.0008	0.003	0.0015	0.0232	37.3
0.0405	0.003	0.0105	0.0165	37.5
0.0802	-0.0046	0.0172	0.003	37.7
0.1147	-0.0128	0.0232	-0.0046	37.7
0.129	-0.0008	0.027	-0.0091	38.3
0.1327	0.006	0.0315	-0.012	38.3
0.141	-0.0075	0.0345	-0.0165	38.7
0.1425	0.012	0.0367	-0.0203	38.8
0.1425	0.027	0.039	-0.0278	39.3
0.144	0.0142	0.042	-0.03	39.6
0.1447	0.0022	0.048	-0.024	40
0.135	-0.0053	0.0525	-0.0165	40
0.1192	-0.0008	0.0592	0.0015	40.5
0.105	-0.003	0.0675	0.0105	40.8
0.0772	-0.003	0.0765	0.0097	41.1
0.0375	-0.0015	0.0847	0.006	41.5
-0.0158	-0.0083	0.0915	-0.015	41.9
-0.0818	-0.0105	0.1005	-0.0315	42.2
-0.1403	-0.0075	0.108	-0.015	42.7
-0.2026	0.0015	0.1132	0.0105	43
-0.2625	0.003	0.1162	0.0127	43.3
-0.3128	0.0045	0.12	0.0127	43.7
-0.3518	0.0052	0.1222	0.012	44.1
-0.3803	0.0045	0.1237	0.0097	44.4
-0.4051	0.0052	0.126	0.0097	44.8
-0.4193	0.0045	0.126	0.0082	45
-0.4283	0.0052	0.1282	0.0082	45.4
-0.4313	0.006	0.129	0.006	45.9
-0.4335	0.0067	0.1282	0.0052	46.1
-0.432	0.0052	0.1327	0.0022	46.4
-0.42	0.006	0.1402	0.0015	46.7
-0.396	0.0052	0.1507	0.0022	47
-0.3683	0.0045	0.1627	0.003	47.2
-0.3308	0.003	0.1747	0.003	47.4
-0.2828	0.003	0.1845	0.0022	47.6
-0.2393	0.0007	0.189	0.0045	48.1
-0.1898	-0.0023	0.192	0.006	48.1
-0.1403	-0.0046	0.1867	0.009	48.6
-0.093	-0.0046	0.1785	0.0105	48.5
-0.045	-0.003	0.1672	0.0105	48.9
-0.0008	-0.0038	0.1545	0.0082	48.8
0.0382	-0.0053	0.1395	0.0052	49.4
0.072	-0.003	0.12	0.0015	49.3
0.1005	-0.0023	0.0997	-0.0023	49.9
0.1252	-0.0046	0.0765	-0.0075	49.8
0.1455	-0.0128	0.054	-0.012	50.1
0.1575	-0.012	0.0292	-0.0098	50.1
0.1612	-0.0068	0.003	-0.0098	50.4
0.156	-0.0091	-0.0195	-0.0173	50.4
0.1462	-0.0083	-0.039	-0.0248	50.6
0.144	-0.0038	-0.0555	-0.0165	50.8
0.1357	0.0015	-0.0713	-0.0083	50.7
0.1185	0.0052	-0.0856	-0.006	51.3
0.111	0.003	-0.0953	0	51
0.1087	0.0007	-0.1021	0	51.5
0.1027	0	-0.1043	0.0015	51.3
0.1005	-0.0008	-0.105	0.0007	51.8
0.0945	-0.003	-0.1021	0.0015	51.7
0.0855	-0.003	-0.0938	0.0067	52
0.0742	-0.0015	-0.084	0.006	51.8
0.0615	-0.0038	-0.0713	0.0037	52.3
0.0525	-0.0008	-0.0585	0.003	52.2
0.0427	0.0037	-0.0436	0.0045	52.5
0.0352	0.003	-0.0293	0.0037	52.5
0.0292	0.0045	-0.0173	0.0037	52.5
0.0232	0.0067	-0.003	0.003	52.6
0.0165	0.0067	0.0067	0.0022	52.8
0.0082	0.003	0.018	-0.0038	53
0.003	0.003	0.027	-0.0098	53.1
0.0007	0.003	0.0345	-0.0038	53.4
-0.0015	0.0037	0.042	0.0007	53.4
-0.0023	-0.0008	0.0465	0.0015	53.6
-0.0083	-0.0015	0.0517	0.0015	53.6
-0.0091	-0.003	0.0555	0.0015	54
-0.0105	-0.006	0.0555	0.0007	53.9
-0.0143	-0.0015	0.054	0.0007	54.2
-0.0165	-0.0008	0.0555	0.0015	54.1
-0.0188	-0.0015	0.054	-0.0015	54.4
-0.0233	-0.0015	0.0532	-0.0023	54.3
-0.0263	-0.0023	0.0525	-0.0038	54.4
-0.0285	0	0.0502	-0.0038	54.6
-0.033	0.0007	0.0465	-0.003	54.9
-0.033	0.0007	0.0427	-0.0015	54.8
-0.0368	0.0007	0.042	0.0007	55.2
-0.042	-0.0023	0.039	0.0007	55.1
-0.048	-0.0015	0.036	0.0015	55.5
-0.0533	-0.0015	0.0345	0.0045	55.4
-0.0578	-0.0015	0.033	0.0045	55.8
-0.0638	0	0.0337	0.0045	55.7
-0.0668	0	0.036	0.0037	55.9
-0.0675	0	0.0382	0.0007	56
-0.0668	-0.0008	0.0405	-0.0008	56.4
-0.0675	0.0015	0.0405	-0.003	56.2
-0.0608	0.003	0.0397	-0.0053	56.4
-0.0473	0.0045	0.0397	-0.0068	56.5
-0.0368	0.0067	0.0367	-0.0068	56.6
-0.024	0.0082	0.033	-0.003	56.6
-0.012	0.0082	0.0292	0	56.6
0.003	0.0067	0.024	0.0015	56.8
0.0165	0.0067	0.0202	0.0022	56.7
0.0285	0.0045	0.0135	0.0007	57
0.0405	0.0022	0.0052	0.0007	56.7
0.048	0.0007	-0.003	0.0022	57.1
0.054	-0.0015	-0.012	0.0022	56.8
0.0592	-0.0038	-0.021	0.0015	57.2
0.0615	-0.0046	-0.0308	0.0007	57
0.06	-0.003	-0.039	-0.0023	57.2
0.0577	-0.003	-0.048	-0.0023	57
0.054	-0.003	-0.0555	-0.003	57.3
0.048	-0.0015	-0.063	-0.003	57.1
0.0427	-0.0008	-0.0706	-0.0053	57.4
0.039	-0.0008	-0.0743	-0.0075	57.4
0.0405	-0.003	-0.078	-0.0143	57.3
0.0502	-0.0053	-0.0803	-0.0165	57.3
0.066	-0.003	-0.0825	-0.0128	57.4
0.0832	-0.0015	-0.084	-0.0113	57.3
0.1012	0	-0.0856	-0.0075	57.3
0.1177	0.0022	-0.0856	-0.0046	57.5
0.1237	0.0022	-0.0856	-0.0015	57.4
0.1275	0.0022	-0.0863	-0.0008	57.5
0.132	0.003	-0.084	0.0007	57.4
0.1335	0.0037	-0.081	0.0015	57.5
0.1365	0.0045	-0.0765	0	57.3
