File Name: depie.log
Channel 4: 'Recto Femoral', 15521 values, engineering units: mV, no filters.
Channel 5: 'Biceps Femoral', 15521 values, engineering units: mV, no filters.
Channel 6: 'Vasto Medial', 15521 values, engineering units: mV, no filters.
Channel 7: 'EMG Semitendinoso', 15521 values, engineering units: mV, no filters.
Channel 8: 'Flexo-Extension', 15521 values, engineering units: deg, no filters.

-0.0128	0	-0.0008	0.003	3.2
-0.0098	0.0007	0.0052	-0.0015	3.5
-0.0105	0.0007	0.003	-0.012	3.2
-0.0105	0.0022	0.0037	0.0015	3.3
-0.0083	-0.0015	0.0052	0.0225	3.2
-0.0068	-0.0038	0.0052	0.0202	3.5
-0.0038	-0.0023	0.0067	0.0232	3.2
-0.003	-0.003	0.0067	-0.0248	3.2
-0.0053	0.003	0.0082	-0.039	3.4
-0.0075	0.0082	0.0105	0.0015	3.2
-0.0068	0.0052	0.0105	0.003	3.2
-0.006	0.0015	0.0105	0.0232	3.3
-0.0053	0.003	0.012	0.0262	3.4
-0.0046	-0.0015	0.012	0.0187	3.3
-0.0038	-0.0008	0.0127	0.0165	3.3
-0.0038	0.0015	0.0142	0.0157	3.2
-0.003	-0.0008	0.0127	0.0097	3.3
-0.0046	0	0.0142	0.006	3.2
-0.006	-0.0015	0.0127	0.003	3.4
-0.003	-0.0046	0.0105	-0.0038	3.3
-0.0015	-0.0053	0.0105	-0.003	3.2
-0.0038	0.0007	0.009	-0.0083	3.1
-0.0046	0.006	0.0105	-0.0068	3.4
-0.003	0.0015	0.0127	-0.0015	3.2
-0.0046	0.003	0.0127	0.006	3.2
-0.0053	0.0052	0.0127	0.003	3.3
-0.0038	0.0052	0.012	-0.0046	3.5
-0.0023	0.0052	0.0112	-0.003	3.1
-0.0023	0.0052	0.009	-0.003	3.3
-0.0038	0.003	0.0067	-0.006	3.3
-0.0046	0.0015	0.0067	-0.027	3.4
-0.0015	-0.003	0.0045	-0.0443	3.1
0.0015	-0.0038	0.0045	-0.0443	3.3
0.003	0.0105	0.0007	-0.0428	3.3
0.0022	0.0352	-0.003	-0.0256	3.2
0.003	0.0315	-0.0046	0.0067	3.4
0.0045	-0.0053	-0.0068	0.0195	3.1
0.0037	-0.0218	-0.0038	0.0075	3.3
0.0052	-0.0338	-0.0015	0.0472	3.2
0.0045	-0.054	-0.003	0.102	3.2
0.003	-0.0548	-0.0068	0.0982	3.3
0.0052	-0.045	-0.0091	0.1162	3.2
0.0052	-0.024	-0.0113	0.0637	3.2
0.0067	0.006	-0.0128	-0.039	3.2
0.0045	0.0202	-0.0068	-0.0975	3.2
0.0015	0.0067	-0.003	-0.1403	3.2
0.0037	0.0082	-0.0015	-0.0795	3.2
0.0007	0.0157	-0.0046	-0.0195	3.2
-0.0008	0.0105	-0.0068	-0.0158	3.1
-0.0015	0.006	-0.0075	-0.015	3.3
-0.003	-0.0068	-0.0075	-0.012	3.1
-0.003	-0.0015	-0.0098	-0.003	3.2
-0.0038	0.0052	-0.0091	0.0045	3.1
-0.003	0.009	-0.0075	0.0255	3.2
-0.0053	0.0105	-0.0075	0.024	3.1
-0.0075	0.0067	-0.0083	-0.0053	3.1
-0.0091	0.0082	-0.0098	-0.021	3.2
-0.0098	0.0045	-0.0091	-0.0195	3.2
-0.0105	0.0022	-0.0083	-0.0181	3.2
-0.012	-0.0046	-0.0046	-0.0091	3.2
-0.012	-0.0091	0.0007	0.012	3.1
-0.0158	-0.0046	0	0.039	3.1
-0.015	-0.003	-0.0008	0.024	3.2
-0.015	0.0015	-0.0008	-0.0068	3.2
-0.0181	0.003	0.0015	-0.0008	3.1
-0.0143	0.0022	0.0015	-0.0068	3.4
-0.0158	-0.0015	0.0015	-0.003	3.2
-0.0158	-0.0038	0.0007	0.003	3.4
-0.0128	-0.0068	-0.0015	0.0067	3
-0.0128	-0.006	-0.0023	0.0105	3.3
-0.0113	0.0015	-0.003	-0.0173	3.2
-0.0128	0.0015	-0.003	-0.0315	3.2
-0.0105	0.0015	-0.0023	-0.0158	3.2
-0.0113	0.0022	-0.0015	-0.0105	3.2
-0.0098	0.003	0	-0.012	3.2
-0.006	0.0052	0.0007	-0.006	3.1
-0.006	0.0075	-0.0023	-0.0008	3.2
-0.0046	0.0037	-0.003	0.0067	3
-0.006	-0.0038	-0.003	0.003	3.1
-0.006	-0.003	-0.0008	-0.0008	3.2
-0.0053	-0.0008	-0.0008	0.003	3.2
-0.003	-0.0008	-0.0008	-0.0008	3.1
-0.003	0	0.0015	0.0015	3
-0.0083	0	0.0045	-0.0023	3.2
-0.0091	-0.003	0.0075	-0.0053	3
-0.0098	-0.003	0.0082	-0.006	3
-0.0105	-0.0015	0.0082	-0.0068	3
-0.0091	-0.0015	0.0075	-0.0068	3.1
-0.0083	0	0.0082	-0.0068	3
-0.0091	-0.0023	0.009	-0.003	3
-0.0098	-0.0023	0.0052	0	3.1
-0.0068	-0.003	0.0045	-0.0015	3.1
-0.0053	-0.0008	0.0045	-0.0015	3
-0.0083	0.0022	0.0045	-0.0015	3
-0.0053	0.0015	0.0045	-0.0023	3
-0.0053	0.0037	0.0052	-0.0023	3.1
-0.006	0.0067	0.0067	-0.0015	2.9
-0.0046	0.0052	0.0067	-0.0008	3.1
-0.006	0.0015	0.0082	-0.0008	2.7
-0.006	0.0007	0.0082	-0.0015	3
-0.0053	0.0015	0.0097	-0.0008	2.9
-0.0068	0.0007	0.0112	-0.0008	3
-0.0068	0.0007	0.012	0	2.8
-0.006	0	0.0127	-0.0015	2.8
-0.0053	0	0.012	-0.003	3
-0.0023	0	0.0105	-0.0008	2.9
-0.0015	-0.0015	0.0097	-0.0015	2.7
-0.0015	-0.0008	0.009	-0.0015	3
-0.0038	-0.0008	0.012	-0.0015	3
-0.0046	-0.0015	0.0127	-0.003	3
-0.006	-0.003	0.0127	-0.0015	2.6
-0.0053	-0.0015	0.0105	0	3
-0.0046	-0.0015	0.0082	-0.0008	2.6
-0.003	-0.003	0.0097	-0.0008	3
-0.0038	-0.003	0.0097	-0.0023	2.6
-0.0046	-0.003	0.009	-0.0015	2.9
-0.003	-0.0015	0.009	-0.0008	2.8
-0.003	-0.0008	0.0097	0.0007	2.8
-0.0046	0.0015	0.0105	0.0015	2.9
-0.0046	0.0015	0.0112	0.0007	2.9
-0.0053	-0.0015	0.0112	-0.0015	2.8
-0.0046	0	0.0082	-0.0015	2.7
-0.0038	0	0.0067	-0.0015	2.8
-0.003	-0.0008	0.0052	-0.0015	2.7
-0.0046	-0.0008	0.0015	-0.0008	2.6
-0.0046	-0.0023	0.0015	0.0007	2.7
-0.0046	-0.0015	0.0007	-0.0023	2.6
-0.006	-0.003	-0.0008	-0.0008	2.8
-0.006	-0.0015	-0.0008	-0.0015	2.7
-0.0075	-0.0015	0.0007	-0.0046	2.7
-0.0068	-0.0015	0.003	-0.0068	2.6
-0.0083	-0.003	0.003	-0.0068	2.8
-0.0098	-0.0038	0.0015	-0.0053	2.7
-0.0083	-0.003	-0.0008	-0.0053	2.6
-0.0075	-0.0046	-0.0015	-0.0053	2.6
-0.0091	-0.0038	-0.0023	-0.0046	2.7
-0.0098	-0.0023	-0.0008	-0.0038	2.6
-0.0098	-0.0015	0.0022	-0.0053	2.6
-0.0083	0.0007	0.0015	-0.0046	2.5
-0.0091	0.0007	0.0007	-0.003	2.6
-0.0091	0.0015	-0.0015	-0.0015	2.4
-0.0083	0.0022	-0.0046	-0.0015	2.6
-0.0105	0.0015	-0.0038	-0.0023	2.6
-0.0105	0.0015	-0.0023	-0.0046	2.7
-0.012	-0.0008	-0.0008	-0.0083	2.5
-0.0128	-0.0015	0	-0.0068	2.6
-0.012	-0.0015	-0.0038	-0.0038	2.4
-0.0135	-0.0008	-0.0068	-0.003	2.3
-0.015	0.0007	-0.0083	-0.003	2.5
-0.0128	0	-0.006	0.0007	2.4
-0.0143	0	-0.0068	-0.0008	2.5
-0.015	0	-0.0083	0.0007	2.4
-0.0135	0.0007	-0.0068	0.0015	2.4
-0.0128	0.0022	-0.0038	0.0015	2.4
-0.0128	0.0037	0	0.0022	2.4
-0.0128	0.0022	0.0015	0.0022	2.4
-0.0113	0.0007	0.0007	0.0022	2.2
-0.0113	0.0015	0	0.0015	2.6
-0.0113	0.0015	0	0.0022	2.2
-0.012	0.0015	-0.0008	0.0007	2.6
-0.0105	0.0007	0.0007	-0.0023	2.2
-0.012	-0.0008	0	-0.0038	2.6
-0.0128	-0.0015	0.0007	-0.0068	2.4
-0.0128	-0.0015	-0.0015	-0.0105	2.4
-0.0128	-0.0008	-0.0046	-0.0053	2.3
-0.0083	0	-0.0068	-0.003	2.2
-0.0075	-0.0015	-0.0083	-0.0023	2.3
-0.0068	-0.0015	-0.0105	-0.0008	2.2
-0.0068	0	-0.0128	-0.0015	2.3
-0.0083	-0.0015	-0.0158	-0.0008	2.2
-0.0053	-0.0015	-0.0173	-0.0008	2.3
-0.0053	0.0007	-0.0181	-0.0023	2.4
-0.0053	0.0015	-0.0181	-0.0008	2.3
-0.0046	0.0015	-0.0165	-0.0015	2.2
-0.0046	0.0015	-0.0165	-0.0008	2.1
-0.0053	0.0007	-0.0158	0.0015	2.4
-0.0053	0.0007	-0.0135	0.0007	2.2
-0.0046	0.0007	-0.012	-0.0015	2.3
-0.0053	-0.003	-0.012	-0.0046	2.2
-0.006	-0.012	-0.0105	-0.0075	2.2
-0.006	-0.0128	-0.0098	-0.0075	2.2
-0.0046	-0.0053	-0.0098	-0.0053	2.1
-0.0046	-0.0008	-0.0091	-0.006	2.3
-0.003	-0.0008	-0.006	-0.0075	2.3
-0.0046	0.0007	-0.003	-0.0046	2.1
-0.0068	0.0007	-0.0023	-0.0046	2.2
-0.0068	-0.0015	-0.0015	-0.0053	2.1
-0.0068	-0.0008	-0.0008	-0.0038	2.3
-0.0068	0.0007	-0.0008	-0.0008	2.1
-0.006	0.0007	-0.0023	0.0007	2.4
-0.0075	-0.0008	-0.0008	0.0007	2
-0.0083	-0.003	0	-0.0023	2.2
-0.0091	-0.0046	0.0045	-0.006	2.1
-0.0128	-0.006	0.0105	-0.0083	2.3
-0.0143	-0.0053	0.012	-0.0083	2.1
-0.0135	-0.0015	0.0112	-0.0038	2.2
-0.0128	0.003	0.009	-0.003	2.1
-0.012	0.0052	0.0075	-0.003	2.1
-0.0113	0.0052	0.0067	-0.003	2.3
-0.0098	0.0007	0.0067	0	2.2
-0.0075	0.0015	0.0082	0.0007	2.2
-0.0068	0.0022	0.009	0.0007	2.1
-0.0046	0.0015	0.0112	0.0015	2.1
-0.0053	0.0015	0.0127	-0.0008	2.3
-0.0053	0.0007	0.012	-0.0015	2.1
-0.006	0.0015	0.0112	-0.0015	2.2
-0.0068	0.0007	0.0112	0.0007	2
-0.0083	-0.0008	0.0105	0.003	2.3
-0.0068	-0.0008	0.0112	0.0022	2.1
-0.0053	0.0015	0.0105	0.003	2.2
-0.003	0.003	0.009	0.003	2.1
-0.0038	0.0015	0.0097	0.0022	2.2
-0.0068	0.0022	0.0097	0.0022	2.2
-0.006	0.0015	0.0105	0.0022	2.2
-0.0038	0.0007	0.0112	0.0007	2.2
-0.0053	0	0.0112	0	2.1
-0.0053	0.0007	0.0112	-0.0015	2.1
-0.0046	0.0007	0.012	-0.0015	2.3
-0.0068	-0.0008	0.0142	-0.003	2.1
-0.0091	0.0007	0.0142	-0.0068	2.2
-0.0075	0.0022	0.0142	-0.0083	2.2
-0.0046	0.0007	0.015	-0.0083	2.2
-0.0068	-0.0053	0.0127	-0.0091	2.1
-0.0068	-0.0046	0.0082	-0.0068	2.2
-0.0083	-0.0008	0.0045	-0.0053	2.1
-0.0068	-0.0015	0.0037	-0.0083	2.2
-0.0053	-0.0015	0.003	-0.0068	2.1
-0.0068	-0.0083	0.003	-0.0053	2.1
-0.0068	-0.0128	0.0045	-0.0053	2.2
-0.0091	-0.0083	0.0052	-0.0046	2.1
-0.0083	-0.0015	0.0045	-0.0023	2.1
-0.0091	0.0022	-0.0008	0.0015	2.1
-0.0091	0.0037	-0.0046	0.006	2.1
-0.0091	0.0022	-0.0068	0.006	2.2
-0.0083	0.0015	-0.0053	0.0015	2.1
-0.0083	0.0022	-0.006	0.0015	2.1
-0.0098	0.0037	-0.0083	0.0015	2.1
-0.0098	0.0052	-0.012	-0.0068	2.2
-0.0091	0.0052	-0.015	-0.0105	1.9
-0.0091	0.0045	-0.0135	-0.006	2.3
-0.012	0.0037	-0.015	-0.0046	2.1
-0.0091	0.003	-0.0165	-0.003	2.3
-0.0083	0.003	-0.0173	-0.0015	2.1
-0.0105	0.0007	-0.0195	-0.0053	2.2
-0.0105	-0.006	-0.0188	-0.0128	2.2
-0.0105	-0.0113	-0.0158	-0.0165	2.1
-0.0098	-0.0068	-0.0128	-0.0105	2.2
-0.0113	-0.0008	-0.0113	-0.0053	2.1
-0.0128	-0.0008	-0.0105	-0.0008	2
-0.0105	-0.0008	-0.0105	0.0015	2.2
-0.0105	-0.0008	-0.0091	0.0015	2.1
-0.012	0.0007	-0.0075	0.0007	2.2
-0.0135	-0.0023	-0.0046	0.0015	2.1
-0.0128	-0.0098	-0.0008	0.0052	2.4
-0.012	-0.0128	0.0037	0.0052	2.1
-0.0143	-0.0091	0.0037	0.003	2.4
-0.0128	0	0.0022	0.003	2.1
-0.0113	0.009	0.0015	0.0045	2.3
-0.0105	0.0127	0.0007	0.003	2.2
-0.012	0.0127	0.003	-0.0023	2.4
-0.0113	0.0157	0.0015	-0.0083	2.3
-0.0098	0.0195	0.0015	-0.0068	2.2
-0.0091	0.0142	0.003	0.003	2.4
-0.0083	0.0022	0.0037	0.0067	2.4
-0.0083	-0.003	0.0045	0.003	2.2
-0.0046	-0.0015	0.003	0.0015	2.4
-0.0068	-0.0008	0.0045	0	2.3
-0.006	0.0015	0.0037	-0.0015	2.4
-0.0046	-0.0008	0.0045	0	2.2
-0.0038	0.0015	0.0052	0.0022	2.5
-0.0015	0.0015	0.0052	0.0045	2.3
-0.0015	0.0007	0.0052	0.0015	2.5
-0.003	-0.003	0.0052	-0.0015	2.2
-0.0068	-0.0113	0.0082	-0.0053	2.2
-0.0075	-0.012	0.0112	-0.0068	2.6
-0.0091	-0.0091	0.0142	-0.0083	2.5
-0.0113	-0.006	0.0135	-0.0105	2.5
-0.0128	-0.0053	0.0105	-0.0098	2.3
-0.0143	-0.0068	0.0105	-0.0105	2.6
-0.0128	-0.006	0.0105	-0.0091	2.4
-0.0128	-0.0083	0.0127	-0.0091	2.5
-0.0091	-0.006	0.0127	-0.0083	2.4
-0.0113	-0.003	0.0105	-0.0075	2.4
-0.0105	-0.0008	0.0105	-0.0075	2.5
-0.0091	0.0015	0.015	-0.006	2.5
-0.0083	0.0015	0.015	-0.0046	2.6
-0.0053	-0.0008	0.012	-0.0023	2.4
-0.0068	-0.0038	0.012	-0.0038	2.6
-0.0068	-0.0008	0.012	-0.0023	2.4
-0.006	0.003	0.0082	0.0007	2.6
-0.0083	0.0082	0.006	0.003	2.5
-0.0068	0.0105	0.0075	0.0082	2.6
-0.0083	0.0075	0.0082	0.015	2.6
-0.0068	0.0037	0.0075	0.0165	2.6
-0.0068	-0.0015	0.0067	0.0142	2.7
-0.0091	-0.0075	0.0067	0.0045	2.6
-0.0083	-0.012	0.0037	-0.0315	2.6
-0.0091	-0.0068	0.0015	-0.0503	2.8
-0.0098	0	0.0015	-0.0128	2.6
-0.012	0.003	0.0022	0.0082	2.9
-0.0128	0.0022	-0.0008	0.0037	2.6
-0.012	0.0045	-0.0008	0.0067	2.9
-0.0128	0.0045	-0.0023	0.0015	2.6
-0.0135	0.0007	-0.0023	0.0007	2.9
-0.0143	0.0022	0.0007	0	2.7
-0.0128	0.003	0.0007	-0.0015	2.9
-0.0158	0.003	0.0037	-0.0046	2.7
-0.0181	-0.0015	0.006	-0.006	2.7
-0.0181	-0.0128	0.0075	-0.0068	2.9
-0.0195	-0.0173	0.003	-0.0068	2.8
-0.0195	-0.0105	0.0007	-0.0038	3
-0.0203	-0.0008	0.0007	-0.0015	2.9
-0.0188	0.0007	-0.0046	-0.0008	2.9
-0.0173	-0.0015	-0.0068	-0.003	2.8
-0.0195	-0.0015	-0.0091	-0.0015	2.9
-0.0165	-0.0008	-0.0068	-0.003	2.9
-0.0135	0.0015	-0.0068	0	2.9
-0.0135	0.0015	-0.0046	0	3.1
-0.012	0.0007	-0.0008	-0.003	2.8
-0.0105	-0.0015	0.0015	-0.0015	3
-0.0105	-0.0008	0.0015	-0.0015	2.9
-0.0083	0.0082	0.003	-0.0008	3.1
-0.0083	0.0105	0.0052	-0.0015	2.9
-0.0075	-0.0023	0.0067	-0.0015	3
-0.006	-0.0068	0.009	-0.0015	3.2
-0.0068	-0.0046	0.0097	-0.0008	3.1
-0.0053	-0.0015	0.012	-0.0008	3.1
-0.003	-0.0038	0.0127	-0.0053	3.1
-0.0046	-0.0091	0.0105	-0.0083	3.1
-0.0068	-0.0083	0.012	-0.012	3.2
-0.0075	-0.0046	0.0135	-0.0113	3.1
-0.006	0.009	0.0142	0.0015	3.3
-0.003	0.0082	0.0105	0.0195	3
-0.0015	-0.003	0.009	0.0277	3.4
0.0007	0.003	0.0082	0.0142	3.2
0.003	-0.0046	0.0082	-0.0143	3.4
0.0015	-0.0203	0.009	-0.0181	3.2
-0.0008	-0.0203	0.0067	0.0157	3.3
-0.0008	-0.0083	0.006	0.018	3.3
0.0022	0.0097	0.0052	0.0135	3.3
0.0037	0.027	0.003	0.0135	3.4
0.003	0.0352	0.003	-0.012	3.2
0.0015	0.0397	0.0015	-0.0278	3.3
0.0022	0.0412	0	-0.048	3.3
0.0022	0.0285	-0.0008	-0.024	3.3
0.0022	0.0075	-0.0015	-0.003	3.3
0.0037	-0.0068	-0.0023	-0.0113	3.4
0.0045	-0.0098	-0.0046	-0.006	3.4
0.006	-0.0143	-0.0053	-0.0181	3.4
0.003	-0.0143	-0.0053	-0.0165	3.6
0.0015	-0.012	-0.006	-0.0091	3.2
0.0052	-0.0105	-0.0075	0.003	3.6
0.0052	-0.0046	-0.0083	0.0067	3.2
0.0045	-0.003	-0.0091	0.0082	3.6
0.003	0	-0.0105	0.009	3.3
0.0015	0	-0.0098	0.0052	3.6
0.0007	-0.0046	-0.0083	0.0045	3.3
0	-0.006	-0.0075	0.003	3.4
0	-0.0053	-0.0091	0.0022	3.5
0.0015	-0.0098	-0.0105	-0.0053	3.6
0.0022	-0.0165	-0.0105	-0.0053	3.4
0.003	-0.0046	-0.0128	-0.0046	3.5
0.0037	0.0367	-0.0165	-0.003	3.5
0.0052	0.0555	-0.0165	0.0015	3.6
0.0052	0.0232	-0.0165	0.0067	3.5
0.006	-0.0015	-0.015	0.0067	3.6
0.0045	-0.0293	-0.0135	-0.0008	3.5
0.0015	-0.057	-0.012	-0.003	3.6
0.0022	-0.0593	-0.0113	-0.0046	3.6
0.0022	-0.0555	-0.0128	-0.0068	3.8
0.0015	-0.042	-0.0113	-0.0105	3.5
0	-0.0158	-0.0105	-0.0098	3.6
-0.0008	0.0097	-0.0128	-0.0046	3.6
0.0007	0.0045	-0.015	-0.0015	3.6
-0.0015	0.0052	-0.0158	0	3.7
-0.0023	0.015	-0.0165	0	3.7
-0.0015	0.0097	-0.0158	-0.0015	3.7
-0.0038	0.0112	-0.0135	-0.0038	3.6
-0.0023	0.006	-0.0143	-0.0046	3.8
-0.003	0.0075	-0.0128	-0.0098	3.6
-0.006	0.009	-0.0105	-0.0143	3.6
-0.0091	0.0082	-0.0113	-0.0158	3.8
-0.0083	0.0135	-0.0128	-0.0135	3.6
-0.0053	0.0112	-0.012	-0.0091	3.8
-0.0075	0.0045	-0.0113	-0.0046	3.6
-0.0091	-0.0068	-0.0098	0.0052	3.9
-0.0091	-0.0143	-0.0083	0.015	3.6
-0.0091	-0.0105	-0.0091	0.0195	3.8
-0.0091	0.0052	-0.0105	0.0217	3.8
-0.0083	0.0157	-0.0091	0.006	3.9
-0.0068	0.0142	-0.0068	-0.0046	3.7
-0.0053	0.0082	-0.0068	-0.003	3.8
-0.0046	0.0052	-0.0068	-0.0008	3.8
-0.0053	0.0045	-0.0053	0.0082	3.9
-0.0068	-0.003	-0.0023	0.0052	4
-0.0075	-0.0023	-0.0015	0.003	3.9
-0.0105	0.003	-0.0023	-0.0046	3.8
-0.0098	-0.0038	-0.0008	-0.0091	4
-0.0083	-0.0091	0.0015	-0.006	3.9
-0.0046	-0.0098	0.0037	-0.0068	4.1
0.0007	-0.0113	0.0045	-0.0105	3.9
0.0007	-0.0053	0.0052	-0.0128	4.1
-0.0015	0.0007	0.0067	-0.0143	3.8
-0.0046	-0.0008	0.0067	-0.0098	4.1
-0.0053	-0.0015	0.0105	0.0172	3.9
-0.0053	-0.0068	0.012	0.0555	4
-0.003	-0.0015	0.012	0.063	4
-0.003	0.0075	0.012	0.0255	4
-0.003	-0.0105	0.012	-0.0346	3.9
-0.0046	-0.0128	0.0127	-0.0953	4
-0.0046	-0.0008	0.0165	-0.0945	4
-0.0038	0.0022	0.018	-0.021	3.9
-0.0053	0.0052	0.018	0.0217	4.1
-0.0053	0.0105	0.0195	0.006	4
-0.0075	0.0082	0.0202	-0.0218	4.1
-0.0091	0.003	0.0202	-0.0068	4
-0.0091	0.0067	0.0217	0.0067	4.1
-0.0098	0.0045	0.0225	-0.0091	4.2
-0.0105	0.0015	0.0217	-0.0015	4
-0.012	0	0.0195	-0.0046	4.2
-0.012	0.0007	0.0187	-0.0015	4
-0.0128	0.0007	0.0202	0.0015	4.1
-0.0143	-0.0068	0.0187	0.0007	4.1
-0.015	-0.0098	0.015	0.0127	4.1
-0.0143	-0.0068	0.012	0.018	4.1
-0.0143	0	0.009	0.0315	4.1
-0.015	0.0007	0.0082	0.0315	4.1
-0.0158	0.0007	0.0052	0.0195	4.1
-0.0158	0.0022	0.003	-0.0173	4
-0.0165	0.0015	0.0015	-0.0465	4.1
-0.0158	0.0022	0.0015	-0.027	4
-0.0188	0	0.0015	-0.0068	4.1
-0.0195	-0.0008	0.0015	-0.0008	4.1
-0.0195	-0.003	0.0022	-0.0068	4.2
-0.0225	-0.0038	0.0052	-0.0346	4
-0.0248	0.0007	0.0105	-0.039	4.2
-0.0263	0.0045	0.015	-0.0053	4.1
-0.027	0.006	0.0135	0.0052	4.2
-0.0263	0.003	0.0105	0.003	4.2
-0.0248	-0.0008	0.0067	0.0082	4.1
-0.0233	0	0.0045	0.0045	4.2
-0.0225	0.0007	0.0022	0.0075	4.2
-0.0218	0.0007	0.0007	0.0022	4.2
-0.0218	-0.0015	0.0015	-0.003	4.1
-0.0218	-0.0053	0.0015	0	4.2
-0.0203	-0.0083	0.0037	0.009	4.2
-0.021	-0.006	0.0052	0.0142	4.1
-0.0165	-0.0038	0.003	0.0082	4.2
-0.0158	0	0.0037	-0.0046	4
-0.0165	0.0067	0.0045	-0.0233	4.3
-0.0158	0.012	0.0045	-0.0308	4.1
-0.0143	0.0127	0.006	-0.0105	4.4
-0.0128	0.0075	0.006	0.0367	4.1
-0.0113	0.0007	0.0045	0.072	4.4
-0.0098	-0.0015	0.006	0.0667	4.1
-0.0098	-0.0015	0.0052	0.0292	4.3
-0.0113	-0.0015	0.0052	-0.0578	4.2
-0.012	0.003	0.0067	-0.0968	4.2
-0.0068	0.0052	0.0067	-0.03	4.1
-0.0068	0	0.0082	-0.0008	4.2
-0.0068	-0.0091	0.009	-0.0068	4.2
-0.0053	-0.0165	0.009	0.0045	4.2
-0.006	-0.012	0.0097	0.0082	4.3
-0.0053	-0.0015	0.0112	0.0202	4.3
-0.0091	0.0232	0.012	0.0307	4.3
-0.0105	0.0607	0.0135	0.0277	4.3
-0.012	0.0517	0.0142	0.0052	4.1
-0.0128	0.021	0.0135	-0.0068	4.4
-0.0143	-0.0015	0.012	-0.0195	4.1
-0.0158	-0.0405	0.0075	-0.0308	4.4
-0.0128	-0.0615	0.0052	-0.0195	4.4
-0.0135	-0.0593	0.0022	-0.0225	4.2
-0.0113	-0.0555	-0.0008	-0.0188	4.2
-0.0075	-0.03	-0.0046	-0.0113	4.2
-0.0046	0.003	-0.0046	-0.0128	4.3
-0.003	0	-0.0046	-0.0128	4.2
-0.003	-0.0015	-0.0038	-0.0128	4.4
-0.0023	0.0067	-0.0015	-0.0068	4.3
-0.003	0.0037	-0.0053	-0.0008	4.2
-0.003	0.0082	-0.0053	0.0045	4.4
-0.003	0.0045	-0.0053	0.0045	4.1
-0.003	0.0067	-0.0046	0.003	4.4
-0.0038	0.009	-0.0038	0.0037	4.1
-0.003	0.0052	-0.0053	0.0052	4.4
-0.0023	0.0075	-0.0068	0.0082	4.1
-0.0023	0.0067	-0.0068	0.0105	4.3
-0.003	0.0082	-0.0053	0.009	4.2
-0.003	0.006	-0.006	0.0045	4.2
-0.0038	0.003	-0.0075	0.003	4.2
-0.0053	0.0045	-0.0068	0.0007	4.1
-0.006	0.0045	-0.0068	-0.0015	4.2
-0.0068	0.0045	-0.0068	-0.0053	4.2
-0.0075	0.0037	-0.0046	-0.0091	4.3
-0.0091	0.003	-0.0046	-0.0068	4.3
-0.0105	0.0007	-0.0046	-0.0046	4.1
-0.0083	0.0007	-0.006	-0.0015	4.1
-0.0083	0	-0.0068	0.003	4.2
-0.0083	0	-0.0068	0.0022	4.4
-0.0083	0.0045	-0.0053	-0.003	4
-0.0075	0.0037	-0.0053	-0.003	4.4
-0.0068	-0.003	-0.0083	-0.0038	4
-0.0091	-0.006	-0.0098	-0.0053	4.2
-0.0068	-0.0083	-0.0098	-0.0053	4.1
-0.0023	-0.0068	-0.0083	-0.0053	4.2
-0.003	-0.0053	-0.0091	-0.0038	4.3
-0.003	-0.003	-0.0091	0.0007	4.1
-0.0008	0	-0.0091	0.012	4.2
-0.0053	-0.0046	-0.0098	0.015	4.1
-0.0068	-0.0046	-0.0068	0.0105	4.2
-0.0075	-0.0046	-0.0038	0.003	4.1
-0.0075	-0.0008	-0.0023	-0.0263	4.2
-0.0083	0.003	-0.0046	-0.0353	4.1
-0.0098	0.0015	-0.0053	-0.012	4.2
-0.0083	0.0022	-0.0053	-0.0113	4.1
-0.0091	-0.0008	-0.0038	-0.0203	4.1
-0.0105	-0.0046	-0.0015	-0.0218	4.3
-0.0083	-0.0053	-0.0008	-0.0181	4.1
-0.0091	-0.0046	-0.0008	-0.0075	4.4
-0.0105	-0.003	0.0007	0.0075	4.2
-0.012	-0.003	0.0007	0.03	4.1
-0.0143	-0.003	0.0007	0.0195	4.2
-0.0143	0.0022	0.003	-0.0046	4.2
-0.012	0.0052	0.0015	0.0015	4.2
-0.0098	0.0045	0.0015	0.0045	4.2
-0.0091	0.0022	0.003	0.0052	4.2
-0.0091	-0.0008	0.0022	-0.0038	4.4
-0.0091	-0.0023	0.0015	-0.0143	4.1
-0.0083	-0.0023	0	-0.0195	4.3
-0.0068	-0.0023	0	-0.024	4
-0.0075	0.0007	0.0022	-0.0128	4.3
-0.0083	0.003	0.0045	-0.003	4
-0.0068	0.0037	0.0015	0.0037	4.3
-0.0083	0.0045	0.0015	0.0127	4.1
-0.0053	0.0067	0.003	0.021	4.1
-0.0053	0.006	0.003	0.012	4.1
-0.0075	0.003	0.0045	0.003	4.2
-0.0075	0.0007	0.0045	0.003	4.3
-0.0091	0	0.0052	0.0007	4.1
-0.0113	0.003	0.0052	0.003	4.1
-0.0128	0.0052	0.0045	0	4
-0.0128	0.0052	0.0022	-0.003	4.2
-0.012	0.0015	0.003	-0.0075	4.2
-0.015	-0.0015	0.0052	-0.0083	4
-0.0165	-0.0038	0.0037	-0.0053	4.2
-0.0181	-0.0091	0.0015	-0.006	4.1
-0.0181	-0.012	0	-0.0046	4.3
-0.0181	-0.0068	0.0007	-0.0046	4
-0.0195	-0.003	0.0007	-0.0053	4.3
-0.021	-0.0023	0	-0.0075	4
-0.0203	0	-0.0008	-0.0068	4.1
-0.0195	0.0015	0	-0.0053	4
-0.0203	0	0.0007	-0.0068	4.1
-0.0203	-0.0015	-0.0008	-0.0046	4.1
-0.0181	-0.0008	-0.0046	-0.0023	4
-0.0158	0.0007	-0.0068	-0.0008	4
-0.0158	0	-0.0075	0.0007	4
-0.0165	0.0015	-0.0091	-0.0008	4
-0.0143	0.0015	-0.0091	0.0007	4
-0.012	0.0007	-0.0091	0	4.1
-0.0098	-0.0015	-0.0105	-0.0008	4
-0.0098	-0.0046	-0.0098	0	4
-0.0083	-0.003	-0.0091	0	4.1
-0.0053	-0.0015	-0.0083	-0.0015	3.9
-0.0038	-0.0015	-0.0091	-0.0008	4.1
-0.003	0.003	-0.0091	0.0007	3.8
-0.0015	0.0045	-0.0091	0.0022	4
0.0015	0.009	-0.0091	0.0007	4.1
0.0007	0.012	-0.0098	0.0007	4.1
0.0007	0.0075	-0.0091	0.0007	3.9
-0.0008	0.0015	-0.0068	-0.0008	4
0	-0.0008	-0.0046	-0.0008	4.1
0.0015	-0.0008	-0.0038	-0.0015	4
0.0007	0.0007	-0.003	-0.0015	4
0.0007	0.0015	-0.0015	-0.0015	4
0	-0.0008	-0.0015	-0.0023	3.9
0.0007	-0.0008	0.0007	-0.0015	4.1
0.0015	-0.0008	0.0015	-0.0038	3.9
0	-0.003	0.0045	-0.0038	4.1
0	-0.0053	0.0052	-0.0046	3.9
-0.0015	-0.0046	0.0082	-0.0105	4.1
-0.0046	-0.0053	0.0142	-0.0098	3.9
-0.0053	-0.0068	0.0135	-0.0105	4.2
-0.0068	-0.0046	0.015	-0.0091	4
-0.0038	-0.0038	0.0142	-0.003	4.2
-0.0038	-0.0038	0.0127	-0.0015	3.9
-0.003	-0.0053	0.0135	-0.0015	4
-0.0008	-0.0053	0.0135	-0.0023	4.1
0.0007	-0.0038	0.0127	-0.0023	4
0.0022	-0.0008	0.0082	-0.0015	4.1
0.0045	0.0015	0.006	0.0022	4
0.0067	0.003	0.0075	0.0015	3.9
0.006	0.0022	0.0105	0.0007	4.1
0.0052	0.0007	0.0142	0.0007	3.8
0.0082	0.0007	0.0142	0.0007	4.1
0.012	0.0007	0.015	0.0045	3.8
0.0142	0.0007	0.012	0.0052	4.1
0.0172	0.0022	0.0105	0.0067	3.8
0.0217	0.0015	0.0097	0.0067	4.1
0.0247	0.0015	0.0067	0.0052	3.9
0.027	0.0007	0.0082	0.0015	4.1
0.0255	-0.0008	0.0082	-0.0008	3.8
0.0255	-0.0008	0.0075	-0.0008	3.8
0.0255	0	0.009	-0.0053	3.8
0.024	-0.0008	0.015	-0.0113	3.8
0.018	-0.0023	0.0217	-0.0165	4
0.0135	-0.003	0.024	-0.0143	3.8
0.0112	-0.0008	0.0232	-0.0113	4
0.0082	0.0022	0.0195	-0.0091	3.9
0.0067	0.003	0.0135	-0.0083	3.9
0.006	0.0007	0.0127	-0.0068	3.9
0.0052	-0.0046	0.0105	-0.003	3.9
0.0045	-0.012	0.0075	-0.0053	3.9
0.003	-0.0113	0.0075	-0.003	3.9
0.0007	-0.0053	0.0052	-0.0008	4
-0.0015	-0.0068	0.0037	-0.0015	3.7
-0.0023	-0.006	0.0015	-0.0008	3.9
-0.0053	0.0015	0.0007	0.0007	3.8
-0.0068	0.0015	-0.0008	-0.0008	3.9
-0.0046	0.003	-0.003	-0.0008	3.9
-0.0046	0.0045	-0.003	0.003	3.8
-0.006	0.0037	-0.0046	0.012	3.8
-0.0068	0.0045	-0.0046	0.018	3.9
-0.0083	0.003	-0.0046	0.0127	3.7
-0.0053	0.0045	-0.0046	-0.0008	3.8
-0.0083	0.0037	-0.0046	-0.0218	3.8
-0.0091	0.0022	-0.0046	-0.0361	3.8
-0.012	0.0015	-0.0068	-0.0203	3.8
-0.012	-0.0023	-0.0083	-0.0038	3.9
-0.0135	-0.0038	-0.0091	-0.003	3.7
-0.015	-0.0046	-0.0091	0.0015	3.9
-0.0143	-0.003	-0.0105	0.0022	3.7
-0.015	0.0007	-0.0105	0.0015	4.1
-0.0135	0.0007	-0.0105	0.0037	3.8
-0.0143	0.0022	-0.012	0.0015	3.7
-0.0143	0.003	-0.0128	-0.0008	3.6
-0.015	0.0015	-0.0135	-0.003	3.7
-0.0188	0.0015	-0.0128	-0.0015	3.8
-0.0181	-0.0015	-0.0128	-0.0008	3.7
-0.0188	-0.0053	-0.0128	-0.0008	3.8
-0.0195	-0.0068	-0.012	0.0022	3.8
-0.0203	-0.0053	-0.0113	0.0037	3.6
-0.0195	-0.0015	-0.0105	-0.0008	3.8
-0.0203	-0.0008	-0.0098	-0.0015	3.7
-0.0188	0.0022	-0.0091	-0.0008	3.8
-0.0181	0.003	-0.0075	-0.0008	3.6
-0.0195	0.0015	-0.0083	-0.003	3.9
-0.0188	-0.0015	-0.0091	-0.0053	3.6
-0.0181	-0.0015	-0.0091	-0.0068	3.8
-0.0165	-0.0008	-0.012	-0.0105	3.7
-0.0143	-0.003	-0.0135	-0.006	3.8
-0.015	-0.0053	-0.0113	-0.0015	3.7
-0.0158	-0.0068	-0.0083	0.0015	3.7
-0.0143	-0.0053	-0.0046	0.003	4
-0.0128	-0.0038	-0.003	0.0015	3.8
-0.0135	-0.0038	-0.003	-0.003	3.8
-0.0128	-0.0008	-0.0023	-0.0083	3.6
-0.0128	0.0045	-0.003	-0.0075	3.6
-0.0128	0.0045	-0.003	-0.0083	3.8
-0.012	0.0022	-0.003	-0.006	3.7
-0.0113	0.0022	0	-0.006	3.7
-0.012	0.003	0.0015	-0.0023	3.6
-0.0128	0	0.0015	0.0015	3.7
-0.0098	-0.003	-0.0008	0.003	3.8
-0.0105	-0.0008	-0.0015	0.0022	3.8
-0.0105	0.0067	-0.0008	-0.0015	3.6
-0.0098	0.0037	0	-0.0053	3.6
-0.0091	-0.003	0.003	-0.0083	3.7
-0.0068	-0.0008	0.0015	-0.0038	3.6
-0.0046	-0.0008	-0.0008	-0.0015	3.7
-0.0053	-0.0008	-0.0008	-0.0008	3.6
-0.0046	0	-0.0008	-0.0008	3.6
-0.0046	-0.0008	0.0007	-0.0008	3.6
-0.0046	0.0015	0.0007	0.0007	3.6
-0.0053	0	0.0007	0.003	3.8
-0.0046	0.0007	-0.0008	0.0052	3.6
-0.0038	0.0015	-0.0015	0.0022	3.9
-0.0015	0	-0.0008	0.0015	3.6
-0.003	0.0007	0	0.0015	3.7
-0.0053	-0.0015	0.003	-0.0015	3.5
-0.0068	-0.0015	0.009	-0.0068	3.6
-0.0091	-0.003	0.012	-0.0105	3.6
-0.0098	-0.0046	0.0105	-0.0128	3.6
-0.0083	-0.0053	0.0105	-0.012	3.6
-0.0098	-0.006	0.0112	-0.0105	3.6
-0.0105	-0.0015	0.009	-0.0083	3.6
-0.0068	-0.0008	0.0045	-0.0068	3.7
-0.0091	-0.003	0.0007	-0.0068	3.5
-0.0098	-0.0038	-0.0008	-0.0038	3.7
-0.0105	0.0007	-0.0023	-0.003	3.5
-0.0135	0.0015	-0.0023	-0.0046	3.6
-0.012	0.0037	-0.0015	-0.0008	3.5
-0.0091	0.0052	-0.003	0.0015	3.8
-0.0091	0.0045	-0.0053	0.0015	3.5
-0.0098	0.0045	-0.0046	0.0045	3.6
-0.0105	0.006	-0.0083	0.009	3.5
-0.0105	0.006	-0.0091	0.0135	3.6
-0.0128	0.003	-0.0091	0.0142	3.5
-0.0128	-0.0008	-0.0091	0.0142	3.5
-0.015	-0.0046	-0.0075	0.0105	3.4
-0.0165	-0.0098	-0.0046	-0.0053	3.6
-0.0165	-0.0068	-0.003	-0.0315	3.7
-0.015	0	-0.003	-0.0368	3.4
-0.0143	-0.0008	-0.0023	-0.0135	3.6
-0.0158	-0.0015	0	-0.0053	3.6
-0.0173	-0.0046	0	-0.0053	3.4
-0.0181	-0.0046	-0.0015	-0.0038	3.5
-0.015	-0.0015	-0.0008	-0.0068	3.3
-0.0158	0.0007	-0.0015	-0.0053	3.6
-0.0165	0.003	0	-0.0046	3.5
-0.0181	0.0015	0.0022	0.006	3.6
-0.0173	0.0067	0.0045	0.0345	3.5
-0.0173	0.0037	0.0037	0.069	3.6
-0.0181	-0.0068	0.0052	0.054	3.5
-0.0165	-0.0068	0.0067	0.012	3.6
-0.0158	-0.003	0.0082	-0.0398	3.4
-0.0181	-0.0023	0.0075	-0.0968	3.5
-0.0188	-0.0068	0.0052	-0.0788	3.4
-0.0181	-0.0091	0.0045	-0.039	3.4
-0.0165	-0.0053	0.003	-0.012	3.4
-0.015	-0.0038	0.0022	0.0127	3.7
-0.0158	0.0007	0.0045	0.009	3.4
-0.0165	0.009	0.0052	0.0112	3.7
-0.0173	0.0157	0.0067	0.009	3.5
-0.0195	0.0195	0.0082	0.0067	3.5
-0.0225	0.024	0.0097	0.0045	3.3
-0.027	0.0157	0.0157	0	3.6
-0.03	-0.003	0.0142	0.0015	3.5
-0.0315	-0.0053	0.0105	-0.003	3.6
-0.0315	-0.0038	0.0127	-0.0015	3.6
-0.0308	-0.0038	0.0135	-0.0015	3.6
-0.0293	-0.003	0.012	0.0007	3.6
-0.0315	-0.0068	0.009	0	3.5
-0.0278	-0.006	0.0082	0.0007	3.6
-0.024	-0.0046	0.0082	0.003	3.5
-0.0218	-0.003	0.009	0.0037	3.5
-0.0173	-0.003	0.0082	0.0052	3.5
-0.0143	-0.003	0.009	0.0045	3.6
-0.012	-0.0008	0.0082	0.0052	3.7
-0.0083	-0.0008	0.0067	0.006	3.5
-0.0053	0	0.0052	0.0067	3.6
-0.0038	0.0022	0.006	0.0052	3.4
0	0.0007	0.0052	0.0015	3.6
0.0015	-0.0008	0.0082	-0.0015	3.4
-0.0008	-0.0038	0.0112	-0.0046	3.6
-0.0008	-0.0046	0.0127	-0.0053	3.4
-0.0008	-0.0053	0.0105	-0.0053	3.6
0.0007	-0.0046	0.0052	-0.0023	3.6
0.0007	-0.0038	0.003	-0.003	3.6
0.0015	-0.0046	0.003	-0.0053	3.5
0.0007	-0.0046	0.003	-0.0046	3.6
0.0007	-0.0046	0.003	-0.0023	3.6
0.0015	-0.003	0.003	0.0007	3.5
0.0007	-0.0015	0.0015	0.0015	3.4
0.0015	-0.0008	-0.0008	0.0045	3.8
0.0015	0.0007	-0.0023	0.0067	3.4
0.0015	0.0007	-0.0068	0.0052	3.5
0	0.0015	-0.0083	0.0045	3.5
0	0.0015	-0.0083	0.0015	3.5
-0.0008	0.0007	-0.0053	-0.0008	3.7
-0.0053	-0.003	-0.0015	-0.003	3.6
-0.0053	-0.0068	-0.0008	-0.0105	3.5
-0.0053	-0.0046	0.0007	-0.0165	3.6
-0.0075	-0.0008	-0.003	-0.0135	3.6
-0.0046	0.0045	-0.0053	-0.0083	3.6
-0.003	0.0045	-0.0053	-0.006	3.4
-0.0038	0.0045	-0.0068	-0.0046	3.6
-0.0046	0.003	-0.0083	-0.0038	3.3
-0.0068	-0.0015	-0.0083	-0.0113	3.6
-0.0053	0.0022	-0.0083	-0.0181	3.4
-0.0053	0.0045	-0.0091	-0.0173	3.7
-0.006	0.0022	-0.0091	-0.012	3.4
-0.0083	0.0007	-0.0091	-0.003	3.6
-0.0083	0.0007	-0.0083	0.003	3.5
-0.0091	-0.0008	-0.0083	-0.0053	3.5
-0.0113	0.0015	-0.0098	-0.0143	3.6
-0.012	-0.0038	-0.012	-0.021	3.5
-0.012	-0.0165	-0.0128	-0.0165	3.6
-0.0128	-0.0158	-0.0091	0.0217	3.6
-0.0128	-0.0046	-0.0068	0.054	3.5
-0.0128	0.003	-0.003	0.0607	3.7
-0.012	0.009	0.0037	0.0345	3.4
-0.012	0.0112	0.0007	-0.0128	3.6
-0.0105	0.0097	-0.003	-0.0346	3.4
-0.0053	0.006	-0.0038	-0.024	3.7
-0.0053	0.0045	-0.0046	0.0007	3.4
-0.0046	0.0045	-0.0038	0.003	3.6
-0.0015	-0.003	-0.0053	-0.0068	3.3
-0.003	-0.0068	-0.0023	-0.0203	3.6
-0.0038	0	-0.0008	-0.0263	3.5
-0.0053	0.0067	0.0007	-0.0195	3.6
-0.0046	0.006	-0.0008	-0.0173	3.6
-0.0023	0.0082	-0.003	-0.0068	3.5
0.0015	0.0097	-0.0053	-0.0015	3.6
0.0045	0.0052	-0.0046	-0.006	3.5
0.0045	0.0007	-0.003	-0.015	3.7
0.006	-0.0008	-0.0015	-0.0165	3.6
0.0052	-0.0023	0	-0.0083	3.6
0.0067	-0.0046	0.0007	0.0007	3.6
0.0045	-0.0015	0.0022	0.018	3.4
0.0045	0.0022	0.003	0.0285	3.6
0.006	0.0007	0.0037	0.0202	3.5
0.006	0.009	0.0045	0.0015	3.7
0.0067	0.0352	0.0037	0.0022	3.6
0.0075	0.039	0.0045	-0.0008	3.5
0.0082	0.0037	0.0045	0.0007	3.5
0.006	-0.0218	0.0037	0.027	3.4
0.0067	-0.0443	0.0045	0.0555	3.6
0.0052	-0.0555	0.0052	0.0517	3.4
0.0045	-0.0428	0.0067	0.018	3.5
0.0037	-0.0383	0.0082	-0.039	3.5
0.0015	-0.0181	0.009	-0.1118	3.6
0.003	0.0202	0.0105	-0.0945	3.6
0.0045	0.024	0.0097	-0.03	3.4
0.006	0.0015	0.0097	-0.0105	3.6
0.0052	0.0045	0.009	0.0015	3.5
0.0015	0.0045	0.009	0.0075	3.7
0.003	0.003	0.0105	0.0045	3.5
0.0015	0.0067	0.0127	0.0052	3.7
0.0007	0.0007	0.0127	0.003	3.5
0	0.0037	0.012	0.0015	3.6
-0.0015	0.0007	0.009	0.003	3.6
-0.0023	0	0.0082	0.0022	3.5
-0.003	0.0015	0.0082	0.0015	3.7
-0.0015	0	0.0082	-0.0008	3.5
-0.003	-0.0015	0.0105	-0.003	3.4
-0.0046	-0.0046	0.012	-0.0046	3.4
-0.0053	-0.0046	0.0142	-0.0046	3.5
-0.0046	-0.0053	0.012	-0.0038	3.6
-0.0015	-0.0015	0.009	-0.0015	3.5
-0.0008	0.0007	0.0052	0.003	3.5
-0.0008	0.0007	0.0007	0.003	3.5
-0.0008	0.0015	0.0007	0.0022	3.6
-0.003	0.0015	0	0.0015	3.4
-0.0038	0.0015	-0.0008	0.0007	3.7
-0.003	0.0007	-0.0008	0.0015	3.3
-0.003	0.0007	0.0007	0.0022	3.6
-0.0023	0.0022	0.0007	-0.0008	3.5
-0.0023	0.0007	0.0007	-0.0015	3.6
-0.0038	-0.0015	0.0015	-0.0023	3.4
-0.0068	-0.0008	0.0007	-0.003	3.4
-0.0068	0.0007	0.0015	-0.0008	3.6
-0.006	0	0.0022	0	3.6
-0.0046	0.0007	0.0015	-0.0008	3.6
-0.0046	0	0.0015	-0.0023	3.6
-0.0083	0	0.0015	-0.0023	3.4
-0.0105	-0.0008	0.003	-0.0008	3.6
-0.0098	-0.0008	0.0045	-0.0023	3.3
-0.0083	0.0007	0.0052	-0.0015	3.6
-0.0083	0.0015	0.0007	0.0015	3.4
-0.006	0.0015	-0.0023	0.0037	3.6
-0.0053	0.0015	-0.0008	0.003	3.6
-0.0053	0.003	-0.0015	0.003	3.5
-0.006	0.0045	-0.0015	0.003	3.6
-0.0083	0.0045	-0.0023	0.0015	3.5
-0.0083	0.003	-0.0008	-0.0008	3.6
-0.0128	0.0015	0.0052	-0.0083	3.4
-0.0165	-0.0023	0.012	-0.0128	3.6
-0.0181	-0.0068	0.0142	-0.0143	3.5
-0.0181	-0.0083	0.0127	-0.0158	3.5
-0.0173	-0.0075	0.009	-0.012	3.6
-0.0143	-0.003	0.0045	-0.0105	3.6
-0.0105	-0.0015	0.003	-0.0105	3.7
-0.0098	-0.0023	0.003	-0.0083	3.5
-0.0083	-0.0015	0.0007	-0.0075	3.6
-0.006	-0.0008	0.0037	-0.0091	3.4
-0.0053	-0.0046	0.0045	-0.0068	3.5
-0.0046	-0.0038	0.0022	-0.0046	3.6
-0.0015	-0.0008	-0.0008	0.0007	3.7
-0.0015	0.0015	-0.003	0.003	3.6
0	0.0037	-0.0023	0.003	3.6
0.0022	0.0022	0.0007	0.0052	3.7
0.0015	0.003	0.0037	0.0067	3.5
0.0037	0.0082	0.0045	0.0067	3.6
0.003	0.012	0.0067	0.0075	3.7
0.0045	0.009	0.0082	0.009	3.6
0.0052	-0.0008	0.009	0.0082	3.6
0.0015	-0.0053	0.0105	0.0052	3.6
0	-0.0105	0.0105	0.0022	3.6
-0.0008	-0.0083	0.0142	0.003	3.4
-0.0015	-0.0008	0.015	0.0007	3.9
-0.003	-0.0008	0.015	-0.0008	3.4
-0.0046	-0.0023	0.0165	-0.0046	3.6
-0.0053	-0.0046	0.0195	-0.0113	3.6
-0.0053	-0.0075	0.021	-0.0105	3.6
-0.0075	-0.0068	0.0217	-0.0113	3.6
-0.0098	-0.0053	0.0217	-0.0143	3.6
-0.0091	-0.0046	0.018	-0.0143	3.6
-0.0083	-0.0015	0.012	-0.0105	3.6
-0.0083	-0.0008	0.0127	-0.0075	3.6
-0.0068	-0.0008	0.0142	-0.0046	3.6
-0.0083	-0.0008	0.0135	-0.0046	3.7
-0.006	0.0007	0.0135	-0.003	3.7
-0.006	0.0007	0.0127	-0.0015	3.6
-0.0083	0.0015	0.0105	0	3.7
-0.0091	0.0015	0.0067	0.0007	3.6
-0.012	0.0015	0.0067	0.0007	3.7
-0.0135	0.0045	0.0067	-0.0015	3.7
-0.015	0.0037	0.0052	-0.003	3.8
-0.0173	0.0007	0.0037	-0.003	3.6
-0.0158	-0.0015	0.0007	-0.0015	3.8
-0.0158	-0.0015	-0.0008	-0.0015	3.6
-0.0181	-0.003	-0.003	-0.0038	3.6
-0.0195	-0.0008	-0.0046	-0.003	3.7
-0.0195	0.0015	-0.006	-0.0015	3.5
-0.0181	0.0022	-0.0091	-0.0053	3.6
-0.0173	0.0007	-0.0098	-0.0091	3.6
-0.0195	0.0015	-0.0098	-0.0046	3.6
-0.0195	-0.0008	-0.0105	0.0015	3.6
-0.0188	-0.0046	-0.0113	0.0105	3.5
-0.0195	-0.003	-0.012	0.0157	3.7
-0.0195	-0.0015	-0.0128	0.012	3.6
-0.0188	-0.0015	-0.0143	0.003	3.6
-0.0165	-0.0015	-0.0158	0.0015	3.5
-0.0181	0.0015	-0.0158	-0.0008	3.8
-0.0165	0.0052	-0.0143	-0.0008	3.6
-0.0165	0.0097	-0.015	0.0015	3.5
-0.0158	0.0075	-0.0143	0.003	3.8
-0.0143	0.003	-0.0113	0.0007	3.6
-0.0158	0.003	-0.0083	-0.003	3.8
-0.0195	0.0007	-0.0068	-0.0083	3.6
-0.0218	-0.0015	-0.0075	-0.0165	3.6
-0.024	-0.0023	-0.0098	-0.0143	3.6
-0.024	0	-0.0143	-0.0068	3.6
-0.0233	0.0007	-0.0158	-0.0053	3.8
-0.0203	-0.0015	-0.0143	-0.0068	3.6
-0.021	-0.0038	-0.0143	-0.0091	3.8
-0.024	-0.006	-0.0113	-0.0091	3.5
-0.0233	-0.0091	-0.012	-0.0098	3.8
-0.0203	-0.0083	-0.0135	-0.006	3.6
-0.0195	-0.0046	-0.0181	-0.0015	3.8
-0.0181	-0.0023	-0.0195	0	3.6
-0.0181	-0.0023	-0.0181	-0.0015	3.6
-0.0181	-0.0015	-0.0181	0	3.6
-0.0181	0	-0.0195	0.0015	3.7
-0.0165	-0.0008	-0.0188	0.0022	3.8
-0.015	0.0007	-0.0181	0.0015	3.6
-0.0143	-0.0008	-0.0181	0.0007	3.7
-0.0158	0	-0.0181	0	3.7
-0.0143	0.0007	-0.0173	0.0007	3.8
-0.012	0.0007	-0.0143	0.0007	3.6
-0.012	0.0015	-0.0128	0.0007	3.7
-0.0143	0.0015	-0.0128	0.0007	3.7
-0.0158	0.0022	-0.0128	-0.0008	3.7
-0.0143	0.0022	-0.0105	-0.0015	3.8
-0.0128	0.0015	-0.0091	-0.0015	3.6
-0.0135	0.0015	-0.0083	-0.0023	3.8
-0.0128	0.0015	-0.0083	-0.0008	3.6
-0.012	0	-0.0068	-0.0023	3.6
-0.0091	-0.0015	-0.0046	-0.0015	3.8
-0.0091	-0.0008	-0.0038	-0.0015	3.6
-0.0098	0.0007	-0.0008	0.0007	4
-0.006	0	0	-0.0008	3.7
-0.0068	-0.0008	0	-0.0023	3.8
-0.0075	0.0007	0.0015	-0.0015	3.8
-0.0091	0.0015	0.0022	-0.0008	3.7
-0.0083	0.003	0.003	0	3.8
-0.0068	0.003	0.0045	0.0007	3.6
-0.0083	0.003	0.0052	0	3.9
-0.0075	0.003	0.0052	-0.0015	3.7
-0.0068	0.0007	0.0067	-0.0015	3.8
-0.0053	0.0007	0.0082	-0.003	3.7
-0.0075	-0.0015	0.0082	-0.003	3.9
-0.0075	-0.003	0.0082	-0.0046	3.8
-0.0098	-0.003	0.0082	-0.006	3.8
-0.0113	-0.003	0.009	-0.0075	3.8
-0.0105	-0.0038	0.0105	-0.0083	3.8
-0.0143	-0.006	0.0112	-0.0091	3.9
-0.0128	-0.0046	0.0105	-0.0068	3.7
-0.0068	-0.0008	0.0067	-0.0015	3.9
-0.0046	0.0015	0.0067	-0.0015	4
-0.0053	0.0022	0.0067	-0.0008	3.9
-0.0091	0.0022	0.0045	-0.0008	3.8
-0.0083	0.0015	0.0007	-0.0008	3.7
-0.0053	0.0015	0.0007	-0.0008	4.1
-0.0053	0.0007	0.006	-0.003	3.8
-0.0068	-0.0015	0.009	-0.0015	3.9
-0.0068	-0.0015	0.0067	-0.0023	3.8
-0.0075	-0.0053	0.0075	-0.0046	4
-0.0091	-0.0068	0.0067	-0.006	4
-0.012	-0.006	0.009	-0.0098	3.8
-0.0105	-0.0053	0.012	-0.0091	4
-0.0091	-0.003	0.009	-0.0083	3.9
-0.0098	-0.003	0.0105	-0.0068	3.9
-0.0091	0	0.0105	-0.0068	3.8
-0.0091	0.0045	0.015	-0.0098	3.8
-0.0105	0.0052	0.018	-0.0083	3.9
-0.0113	-0.0008	0.0165	-0.0068	4
-0.0083	-0.0046	0.0127	-0.003	4
-0.006	-0.0023	0.0075	0	3.9
-0.003	-0.0053	0	0.003	4
-0.0015	-0.003	-0.0053	0.0045	3.7
-0.0015	0	-0.0083	0.0045	4
-0.0023	0	-0.0098	0.0045	3.9
-0.0015	-0.0008	-0.0105	0.0052	4
-0.003	-0.0008	-0.012	0.0052	3.8
-0.0008	0.0015	-0.0128	0.0052	3.9
0.0015	0.0045	-0.0143	0.0082	3.9
0.0015	0.006	-0.0158	0.0105	3.8
0.0045	0.0067	-0.0143	0.0105	4.1
0.0067	0.0067	-0.0105	0.0105	3.8
0.0045	0.006	-0.0083	0.0082	3.9
0.0052	0.0037	-0.0053	0.003	4
0.0037	0.003	-0.0053	0.0007	4.1
-0.0008	0.0015	-0.0015	-0.003	4
-0.0015	-0.0008	0.0015	-0.0068	3.9
-0.0046	-0.0023	0.0045	-0.0098	4.1
-0.0091	-0.0068	0.0067	-0.0158	3.9
-0.0113	-0.0091	0.0097	-0.0188	4
-0.0113	-0.0053	0.012	-0.0195	3.8
-0.0083	-0.0046	0.0082	-0.0165	4.1
-0.0053	-0.0075	0.0052	-0.0195	4
-0.0015	-0.0098	0.0037	-0.021	4
-0.003	-0.006	-0.0015	-0.0143	4.1
-0.0008	-0.0008	-0.0046	-0.0053	4
0.0022	-0.0015	-0.0038	-0.0015	4.2
0.0022	-0.0023	-0.003	-0.0008	3.9
0.0052	-0.0023	-0.003	0.003	4.1
0.0067	-0.0046	-0.0038	0.0045	4
0.009	-0.0023	-0.0046	0.003	4
0.0105	0.0007	-0.0046	0	4.1
0.0105	0.0052	-0.0053	0.0052	3.9
0.0097	0.009	-0.0046	0.0082	4.2
0.009	0.0045	-0.0053	0.0015	4
0.0097	0.0045	-0.0053	-0.0038	4.2
0.009	0.0067	-0.0053	-0.0083	3.9
0.0082	0.0082	-0.006	-0.0038	4.1
0.009	0.003	-0.006	0.0015	4
0.0097	-0.0008	-0.0075	0.006	4.1
0.009	0.0007	-0.0091	0.006	4.2
0.0067	-0.0038	-0.0083	0.0045	4
0.0082	-0.0023	-0.0053	0.0037	4.3
0.0067	-0.0015	-0.0053	0.0015	3.8
0.0052	0	-0.0068	0.0052	4.1
0.0067	0.0007	-0.0046	0.0075	4
0.0067	-0.0008	-0.0053	0.0052	4.1
0.0045	0.0015	-0.006	0.006	4.1
0.003	0.0015	-0.006	0.0052	4.1
0.0022	0.0015	-0.006	0.0052	4.1
0.0015	0.0007	-0.0046	0.0052	4.1
0	-0.0015	-0.0038	0.0007	4.2
-0.0008	-0.0038	-0.0015	-0.0038	4.3
-0.003	-0.0053	0.0015	-0.0105	4.2
-0.0083	-0.0053	0.0045	-0.0233	4.4
-0.0083	-0.0053	0.009	-0.0263	4.1
-0.0091	-0.006	0.009	-0.0188	4.3
-0.0098	-0.0046	0.0082	-0.0173	4.2
-0.0075	-0.003	0.009	-0.012	4.3
-0.0075	-0.0023	0.0067	-0.006	4.2
-0.0068	-0.0008	0.0045	-0.0083	4.4
-0.0068	0.0015	0.0037	-0.0113	4.1
-0.0083	0.0015	0.0037	-0.0105	4.2
-0.0083	0	0.0052	-0.0053	4.3
-0.0075	-0.0015	0.006	-0.0023	4.1
-0.0105	0	0.0075	0.0007	4.3
-0.0098	0.0007	0.006	0.0022	4.2
-0.0075	0.0015	0.0045	0.0052	4.1
-0.0068	0.0007	0.0045	0.0067	4.3
-0.0091	-0.0008	0.0045	0.006	4.2
-0.0091	-0.0008	0.0082	0.0052	4.3
-0.0091	0.0015	0.0097	0.0052	4.2
-0.0105	0.0015	0.0082	0.0067	4.4
-0.0113	0.0015	0.0082	0.0067	4.1
-0.0105	0.003	0.0097	0.0067	4.4
-0.0113	0.0022	0.0105	0.0075	4.1
-0.0098	0.003	0.0105	0.0067	4.3
-0.0091	0.0052	0.012	0.0052	4.4
-0.0105	0.003	0.012	0.0045	4.5
-0.0105	0.0007	0.0142	0.0015	4.4
-0.0128	-0.0015	0.018	-0.0015	4.3
-0.0143	-0.0053	0.0217	-0.0075	4.5
-0.0195	-0.0075	0.027	-0.0135	4.4
-0.0218	-0.0068	0.0277	-0.015	4.4
-0.0218	-0.0038	0.0255	-0.0128	4.3
-0.0218	-0.003	0.0232	-0.015	4.3
-0.0218	-0.0008	0.0217	-0.0188	4.5
-0.0256	-0.0008	0.0165	-0.015	4.2
-0.0248	-0.0038	0.0105	-0.012	4.5
-0.0203	-0.0023	0.0097	-0.0091	4.2
-0.0195	-0.0008	0.0112	-0.0083	4.4
-0.0143	-0.0008	0.0135	-0.0068	4.5
-0.012	0.0007	0.0127	-0.003	4.5
-0.012	0.0007	0.009	-0.0008	4.4
-0.0105	0.003	0.009	0.003	4.4
-0.0068	0.006	0.0052	0.0037	4.5
-0.0046	0.0052	0.003	0.0037	4.3
-0.003	0.0052	0.0007	0.006	4.5
-0.003	0.0045	-0.0023	0.0082	4.5
-0.0053	0	-0.0023	0.0112	4.4
-0.0053	-0.0015	-0.0015	0.0127	4.5
-0.0053	0	-0.0008	0.0105	4.5
-0.0068	-0.0008	-0.0008	0.003	4.7
-0.0098	-0.0038	0.003	-0.0053	4.3
-0.0128	-0.0075	0.009	-0.0143	4.7
-0.0181	-0.0113	0.0127	-0.0195	4.5
-0.0203	-0.0105	0.0105	-0.0128	4.7
-0.0158	-0.0038	0.0022	-0.0068	4.5
-0.0128	0.0007	-0.0046	-0.0053	4.5
-0.0128	-0.0008	-0.0053	-0.0053	4.6
-0.0105	-0.0008	-0.0053	-0.006	4.4
-0.0128	0.0007	-0.0068	-0.0046	4.5
-0.0105	0	-0.0083	-0.0008	4.5
-0.0091	0	-0.0068	-0.0008	4.5
-0.0091	0.0007	-0.0068	0	4.6
-0.0083	0.003	-0.0075	0	4.4
-0.0083	0.0015	-0.0083	-0.0008	4.7
-0.0098	0.0007	-0.0083	0	4.4
-0.0091	0.0015	-0.0098	-0.0008	4.7
-0.0091	0	-0.0105	0	4.5
-0.0091	0.0015	-0.012	0.0015	4.7
-0.0075	0.0022	-0.0128	0.0007	4.5
-0.0083	0.0007	-0.0135	-0.0008	4.7
-0.0091	0.003	-0.0135	0	4.4
-0.0091	0.003	-0.0128	0.0007	4.7
-0.0091	0.0045	-0.012	-0.0015	4.7
-0.0075	0.003	-0.0091	-0.0015	4.7
-0.0075	0.0015	-0.0091	0.0007	4.8
-0.0091	0.0022	-0.0091	0.0007	4.7
-0.0113	0.0007	-0.0083	-0.0008	4.8
-0.012	0	-0.0068	-0.0046	4.8
-0.0128	-0.0015	-0.0053	-0.003	4.8
-0.0128	-0.0015	-0.006	-0.0008	4.8
-0.0135	-0.0023	-0.0075	-0.0015	4.8
-0.012	-0.0046	-0.0046	0.0007	4.9
-0.0098	-0.003	-0.0038	0.0067	4.8
-0.0091	-0.003	-0.003	0.012	4.9
-0.0091	-0.0038	-0.0015	0.0097	4.7
-0.012	-0.0015	0.0007	-0.0143	4.9
-0.0105	0.0007	0	-0.0405	4.8
-0.0091	-0.0008	-0.0015	-0.024	4.9
-0.0091	-0.0015	-0.0008	-0.0046	4.9
-0.0098	-0.003	0.0022	-0.0105	4.9
-0.012	-0.0023	0.0067	-0.0098	4.9
-0.0105	-0.0008	0.006	-0.012	4.9
-0.0098	-0.0008	0.0067	-0.0188	4.9
-0.012	-0.0015	0.009	-0.015	5.2
-0.012	-0.0038	0.0105	-0.0068	4.9
-0.0091	-0.0046	0.009	0.0082	5
-0.0075	-0.0046	0.0082	0.0255	4.9
-0.0075	-0.0023	0.0067	0.0345	5.1
-0.0083	0.003	0.0067	0.0127	4.9
-0.0083	0.0052	0.0082	-0.0053	5.1
-0.0068	0.0052	0.006	-0.0015	5.2
-0.0053	0.0037	0.0067	-0.0038	5.1
-0.0053	0.003	0.006	0.0007	5.1
-0.0068	0.0052	0.0045	0.0067	5.3
-0.0053	0.003	0.0052	0.0052	5.2
-0.006	-0.0038	0.0052	0.0015	5.2
-0.0083	-0.0023	0.0082	-0.003	5.2
-0.0091	0.0015	0.0105	0	5.3
-0.012	0	0.0127	-0.0068	5.2
-0.0113	-0.0015	0.015	-0.0105	5.3
-0.012	-0.0046	0.0142	-0.0113	5.3
-0.012	-0.0023	0.012	-0.0091	5.3
-0.0105	-0.0008	0.009	-0.0068	5.3
-0.0083	-0.0008	0.0067	-0.003	5.4
-0.0083	-0.0008	0.0045	0	5.3
-0.0053	-0.003	0.003	-0.003	5.4
-0.0053	-0.0053	0.0015	-0.0046	5.3
-0.0053	-0.003	0.0007	-0.006	5.5
-0.0038	0.0007	0.0007	-0.0038	5.4
-0.006	-0.0008	0.0007	0.0007	5.5
-0.006	0.0022	-0.0015	0.003	5.5
-0.0053	0.003	-0.0038	0.003	5.5
-0.0053	0.003	-0.0038	-0.0015	5.5
-0.006	0.0022	-0.003	-0.0046	5.5
-0.006	0	-0.003	-0.0046	5.5
-0.0075	-0.003	-0.0053	0.003	5.5
-0.0083	-0.006	-0.0053	0.0037	5.4
-0.0075	-0.0053	-0.0068	0.003	5.6
-0.0083	-0.0038	-0.0075	0.003	5.3
-0.0091	-0.0008	-0.006	-0.0023	5.5
-0.0091	0	-0.0046	-0.0091	5.5
-0.0105	-0.0015	-0.0038	-0.012	5.6
-0.0098	-0.0008	-0.0068	-0.0068	5.5
-0.0091	-0.0023	-0.0075	0	5.5
-0.0105	-0.0038	-0.0068	0.0015	5.5
-0.0091	-0.0015	-0.0075	0.0015	5.6
-0.0068	-0.003	-0.0068	-0.0008	5.6
-0.0105	-0.0046	-0.006	-0.0046	5.5
-0.012	-0.0038	-0.0068	-0.0075	5.6
-0.0105	-0.0038	-0.0068	-0.012	5.8
-0.0098	-0.003	-0.0068	-0.0135	5.5
-0.0105	-0.0008	-0.0091	-0.0091	5.8
-0.0091	0.003	-0.012	-0.003	5.5
-0.0083	0.0067	-0.0158	-0.0008	5.8
-0.006	0.0082	-0.0158	-0.0068	5.8
-0.0046	0.0097	-0.0105	-0.0068	5.8
-0.0046	0.009	-0.0075	0.0255	5.7
-0.0053	0.006	-0.0068	0.0555	5.8
-0.0046	0	-0.0083	0.0532	6
-0.0068	-0.0075	-0.0091	0.0427	5.8
-0.0068	-0.0091	-0.0075	-0.0368	5.9
-0.006	-0.0075	-0.0008	-0.1178	5.8
-0.0091	0.0007	0.009	-0.0525	5.9
-0.0143	0.0007	0.0165	0.012	6.1
-0.0181	-0.0075	0.0217	-0.0053	5.9
-0.0158	-0.0068	0.0157	0.0165	6.1
-0.0105	-0.0023	0.0082	0.0217	5.8
-0.0083	-0.003	0.0067	0.012	6.3
-0.0091	-0.0015	0.0045	-0.0158	5.9
-0.0128	0	0.003	-0.0458	6.2
-0.0135	-0.0023	0.0052	-0.021	6
-0.012	-0.0015	0.0045	-0.012	6.2
-0.0105	0	0.0045	-0.0068	6.1
-0.0083	0.0007	0.003	-0.0015	6.1
-0.0068	0.0007	-0.0015	-0.0023	6.2
-0.0053	-0.0008	-0.0053	0.003	6.2
-0.006	-0.0023	-0.0053	0.0015	6.3
-0.0046	-0.003	-0.003	0	6.1
-0.006	-0.0023	-0.003	0	6.2
-0.0068	0	-0.0046	0	6.2
-0.0038	0.0052	-0.0053	-0.0008	6.1
-0.0015	0.009	-0.0068	0.0037	6.3
-0.0015	0.0112	-0.006	0.012	6.2
-0.0008	0.0082	-0.0053	0.0225	6.4
-0.003	-0.003	-0.003	0.0412	6.3
-0.0038	-0.0083	-0.003	0.0727	6.6
-0.0046	-0.0113	-0.0038	0.0862	6.2
-0.0068	-0.0075	-0.003	0.0465	6.6
-0.0068	0.0045	0.0007	-0.0083	6.4
-0.0098	0.006	0.0052	-0.0758	6.3
-0.0091	0.009	0.0052	-0.1433	6.5
-0.0105	0.0127	0.0045	-0.1013	6.5
-0.0083	0.009	0.0052	-0.0293	6.7
-0.0091	0.0045	0.0067	-0.0195	6.6
-0.0098	0.006	0.0045	-0.0046	6.5
-0.0068	0.0052	-0.0008	0.0007	6.8
-0.0075	0.0007	-0.0015	-0.0046	6.6
-0.0046	-0.0008	-0.0046	-0.0023	6.7
-0.0053	-0.0075	-0.0053	-0.0068	6.5
-0.0046	-0.0083	-0.0053	0.0015	6.7
-0.0046	-0.0098	-0.0075	0.0082	6.5
-0.0053	-0.0143	-0.0053	0.009	7
-0.0053	-0.0068	-0.003	0.0105	6.7
-0.0068	-0.0053	0	0.012	6.7
-0.0098	-0.0046	0.003	0.0112	6.8
-0.0105	0.0007	0.0007	0.0082	6.7
-0.0105	0.0045	-0.0008	0.0075	6.8
-0.0105	0.0037	-0.0015	0.006	6.7
-0.0113	0.0015	-0.0038	0.0015	6.9
-0.0113	0.0045	-0.003	0.003	6.9
-0.0098	0.0097	-0.003	0.0127	7
-0.0105	0.0045	-0.0046	0.015	6.9
-0.0113	0.003	-0.0053	0.021	7
-0.0098	0.0082	-0.0046	0.0345	7.2
-0.0091	0.006	-0.0038	0.027	6.9
-0.0083	-0.0015	-0.0023	0.003	7.2
-0.0083	-0.0068	-0.0008	0.0007	7
-0.0105	-0.0091	0.0007	-0.0091	7.2
-0.012	-0.0113	0.0052	-0.0218	7
-0.0128	-0.0091	0.0105	-0.0225	7.2
-0.0158	-0.0015	0.0157	-0.0195	7.3
-0.0165	-0.0008	0.018	-0.0105	7.2
-0.0165	0.0007	0.0142	-0.012	7.2
-0.0128	0.0015	0.0142	-0.003	7.2
-0.0113	0.0045	0.0127	0.0067	7.4
-0.0098	0.0232	0.0142	-0.0105	7.2
-0.0105	0.0382	0.0165	-0.033	7.3
-0.0091	0.0307	0.018	-0.0135	7.2
-0.0068	0.0187	0.0217	-0.0128	7.3
-0.0075	0.015	0.0255	-0.027	7.3
-0.0075	-0.0015	0.0277	-0.0143	7.5
-0.0083	-0.0218	0.0277	-0.0015	7.6
-0.0046	-0.033	0.03	0.018	7.4
-0.0015	-0.042	0.0307	0.0097	7.4
-0.0008	-0.0465	0.0292	0.0052	7.4
0.0015	-0.0428	0.0315	-0.0008	7.4
0.0007	-0.0436	0.03	-0.0053	7.7
0.0007	-0.0375	0.0307	0.0015	7.5
0.0015	-0.021	0.027	0.0217	7.7
0.0037	-0.021	0.024	0.0525	7.5
0.0052	-0.0218	0.0232	0.0232	7.7
0.0052	-0.0046	0.0232	0.0052	7.6
0.0045	0.0142	0.0225	0.0187	7.7
0.003	0.024	0.0202	-0.0158	7.6
0.0022	0.0292	0.0202	-0.0758	7.7
0.0015	0.027	0.0202	-0.078	7.7
0.003	0.0195	0.0217	-0.0308	7.6
0.0022	0.0112	0.0262	-0.0038	8
-0.0015	0.0045	0.03	-0.0375	7.9
-0.0015	0.0082	0.0277	-0.0893	7.8
-0.0023	0.012	0.0255	-0.081	7.9
-0.006	0.0127	0.024	-0.0278	7.8
-0.0068	0.006	0.021	-0.003	8.1
-0.0068	-0.0105	0.0157	0.0165	8
-0.006	-0.0053	0.0127	0.0892	8.1
-0.0053	0.0112	0.0157	0.096	7.9
-0.0038	0.0195	0.0142	-0.0046	8.2
-0.0046	0.0187	0.012	0.0195	8
-0.0038	0.0037	0.0045	0.0547	8.1
0	-0.0075	-0.0046	0.0067	8.1
0.0015	-0.012	-0.0075	0.0157	8.1
0.0045	-0.0023	-0.0083	-0.003	8.1
0.0067	0.0067	-0.0068	-0.0008	8.1
0.0075	0.003	-0.0083	0.0052	8.2
0.006	0.003	-0.0113	0.0067	8.3
0.0082	0.0037	-0.0158	0.0157	8.4
0.0082	0.0052	-0.0158	0.012	8.3
0.0067	0.0067	-0.0158	0.0502	8.3
0.0067	0.0045	-0.0173	0.057	8.5
0.0045	-0.0008	-0.0188	0.0292	8.5
0.003	-0.0105	-0.0203	-0.0015	8.6
-0.0008	-0.0165	-0.0188	-0.0773	8.5
-0.0053	-0.0203	-0.012	-0.1313	8.5
-0.0091	-0.0173	-0.0053	-0.042	8.6
-0.012	-0.0128	0	0.0405	8.6
-0.0128	-0.0083	-0.0023	0.0172	8.7
-0.012	0.0007	-0.0128	0.024	8.6
-0.012	0.0097	-0.0188	0.0112	8.7
-0.0128	0.0105	-0.0181	-0.0015	8.7
-0.0091	0.0105	-0.0195	-0.0053	8.7
-0.0105	0.0202	-0.0203	-0.0308	8.8
-0.0098	0.018	-0.0181	-0.0346	8.7
-0.0091	0.0142	-0.0158	-0.0375	8.9
-0.0105	0.0157	-0.0143	-0.027	8.6
-0.0105	0.009	-0.015	-0.0248	9.1
-0.0113	0.0067	-0.0165	-0.024	8.9
-0.0098	0.0007	-0.0165	-0.0308	9
-0.0083	-0.012	-0.0158	-0.042	9
-0.0083	-0.0195	-0.0158	-0.0165	9.1
-0.0075	-0.0173	-0.0128	0.0172	9
-0.0068	-0.0113	-0.012	0.0352	9
-0.006	-0.0075	-0.0105	0.0277	9.3
-0.0046	-0.015	-0.0083	-0.0015	9.2
-0.006	-0.0158	-0.0091	-0.0135	9
-0.0091	-0.003	-0.0083	-0.0046	9.3
-0.0091	0.0015	-0.0068	-0.0053	9.2
-0.0091	0.0007	-0.0068	0.0367	9.4
-0.0068	0.0052	-0.0046	0.0622	9.3
-0.0091	0.009	-0.003	0.0157	9.5
-0.012	0.0105	-0.0015	0.0135	9.3
-0.0098	0.006	-0.003	0.012	9.6
-0.0105	0.0015	-0.0038	-0.0091	9.4
-0.0091	-0.0015	-0.0046	-0.003	9.6
-0.0098	-0.0008	-0.0046	-0.0068	9.4
-0.0105	0.0015	-0.003	-0.0023	9.6
-0.0098	0.0022	-0.0023	-0.0091	9.6
-0.012	0.0015	-0.0015	-0.012	9.7
-0.012	0.0015	-0.0008	-0.0195	9.6
-0.0143	0	-0.0015	-0.0248	9.7
-0.0158	-0.0046	-0.0008	-0.0143	9.9
-0.0143	-0.006	-0.0008	-0.0128	9.9
-0.0165	-0.0105	-0.0008	-0.0023	9.7
-0.0165	-0.012	0.003	0.0217	9.8
-0.0188	-0.0068	0.0037	0.0382	9.9
-0.0188	-0.0015	0.003	0.0127	9.9
-0.0158	0.009	0.0015	0.0045	9.9
-0.0135	0.0157	-0.003	0.0135	9.9
-0.0135	0.0105	-0.0046	0.0067	9.9
-0.0143	0.003	-0.006	0.0112	10
-0.012	-0.0008	-0.0053	-0.0068	10.1
-0.012	-0.0068	-0.003	-0.0405	10.1
-0.0105	-0.012	-0.0046	-0.0443	10.1
-0.0105	-0.0143	-0.0046	-0.0188	10.2
-0.012	-0.0173	-0.0046	-0.012	10.3
-0.0091	-0.0203	-0.0038	-0.0053	10.4
-0.0105	-0.0203	-0.0046	0.0015	10.3
-0.0113	-0.015	-0.0046	-0.006	10.3
-0.0091	-0.0091	-0.0053	-0.0053	10.3
-0.0091	0.0007	-0.0053	-0.0053	10.5
-0.0091	0.0105	-0.0053	0.003	10.3
-0.0075	0.012	-0.0046	0.0045	10.7
-0.0068	0.0142	-0.003	0.0067	10.5
-0.0083	0.0112	-0.003	-0.0038	10.6
-0.0091	0.0052	-0.0015	-0.0165	10.7
-0.0098	0.0045	-0.0015	-0.0105	10.7
-0.0091	0.003	0.0007	-0.0113	10.7
-0.0098	0.0022	0.0015	-0.0091	10.6
-0.0068	0.0015	0.0007	0.0075	10.9
-0.0053	0.0015	0.0022	0.012	10.8
-0.0068	0.0052	0.003	0.0015	11
-0.0068	0.0052	0.003	-0.0218	11
-0.0091	0.006	0.0022	-0.0315	11
-0.0075	0.0067	0.0022	-0.0083	11.1
-0.0083	0.0052	0.003	-0.0015	11.2
-0.0083	0.0045	0.0015	0.0045	11.2
-0.0075	-0.0008	0.0007	0.009	11.2
-0.0083	-0.0015	0.0007	0.0015	11.3
-0.0083	0.0007	-0.0008	0.0015	11.2
-0.0105	0.0022	0.0007	0.0097	11.5
-0.012	0.0007	0.0015	0.0262	11.2
-0.0105	-0.0015	0.0015	0.0195	11.6
-0.0083	0.0022	0.003	0.0082	11.5
-0.0083	0.0015	0.0007	-0.0188	11.6
-0.0083	-0.0083	-0.0015	-0.0495	11.6
-0.0083	-0.0105	0	-0.033	11.7
-0.0091	-0.0091	-0.0008	-0.0143	11.7
-0.0091	-0.0165	0	-0.0105	11.9
-0.0068	-0.0195	-0.003	-0.0015	11.7
-0.0053	-0.0128	-0.006	-0.0015	11.8
-0.006	-0.003	-0.0068	-0.003	11.8
-0.006	0.0082	-0.0068	-0.0038	12
-0.0053	0.0142	-0.0068	-0.0015	11.8
-0.0038	0.0105	-0.0075	0.003	12
-0.0023	0.0052	-0.0083	0.0022	12.1
-0.0038	0.0015	-0.0083	0.003	12.4
-0.0038	-0.0023	-0.0083	0.0015	12.1
-0.0046	-0.0053	-0.0075	0.003	12.4
-0.0046	-0.006	-0.0075	0.0015	12.6
-0.0053	-0.0053	-0.006	0.0007	12.4
-0.006	-0.0046	-0.0046	0.0022	12.6
-0.0091	-0.006	-0.0015	0.0075	12.8
-0.0105	-0.0068	0.0015	0.0262	12.7
-0.0091	-0.0008	0.003	0.054	12.8
-0.0091	0.0082	0.0015	0.0705	12.7
-0.0091	0.0067	0.0015	0.0547	12.9
-0.012	0.0015	0.0052	-0.0091	12.8
-0.0105	-0.0038	0.0105	-0.0691	13
-0.0098	-0.003	0.0142	-0.0585	12.8
-0.0091	-0.0015	0.015	-0.024	13.2
-0.0091	-0.0023	0.0135	-0.0203	13
-0.0091	-0.0046	0.0165	-0.0278	13.3
-0.0083	-0.0053	0.018	-0.0293	13.2
-0.0068	0.0045	0.018	-0.0188	13.3
-0.0053	0.0112	0.018	-0.0173	13.3
-0.0053	0.009	0.0195	-0.0195	13.4
-0.0046	0.009	0.0195	-0.0195	13.5
-0.0046	0.0052	0.0195	-0.0091	13.5
-0.0038	0.0037	0.0195	0.0075	13.6
-0.0015	0.0037	0.0187	0.0067	13.6
0	0.0022	0.018	0.009	13.6
-0.0008	0.0022	0.0187	0.0082	13.8
-0.0038	-0.0008	0.018	0.0067	13.6
-0.006	-0.0015	0.0157	0.0075	13.9
-0.0068	0	0.0142	0.0075	13.7
-0.006	0.0037	0.0142	0.0105	14.1
-0.0083	0.015	0.012	0.0082	13.9
-0.0083	0.0187	0.0075	0.0105	14.1
-0.0075	0.0127	0.0045	0.0067	14
-0.0083	0.0082	0.0015	0.0007	14.2
-0.0075	0.0007	-0.0015	0.0052	14.3
-0.0053	-0.0105	-0.003	0.0217	14.3
-0.0068	-0.015	-0.0053	0.0307	14.4
-0.0091	-0.0165	-0.0098	0.0442	14.4
-0.0075	-0.0195	-0.0128	0.0502	14.4
-0.0053	-0.0143	-0.015	-0.0233	14.3
-0.0068	-0.0135	-0.0128	-0.0863	14.5
-0.0053	-0.0173	-0.0105	-0.0615	14.6
-0.0046	-0.0053	-0.0105	-0.0488	14.5
-0.0038	-0.0023	-0.0143	-0.0495	14.7
-0.0053	-0.003	-0.0173	-0.0248	14.7
-0.0053	0.0037	-0.0181	-0.0008	14.9
-0.0068	-0.0068	-0.0218	0.0045	14.7
-0.0068	-0.024	-0.0233	0.003	15
-0.0083	-0.0263	-0.0248	0.0052	14.9
-0.0091	-0.0158	-0.0293	0.0045	15
-0.0105	-0.0128	-0.0308	0.033	15.3
-0.0113	-0.0091	-0.0315	0.0615	15.3
-0.0091	-0.0015	-0.0346	0.0577	15.4
-0.0105	0.012	-0.0338	0.0255	15.3
-0.0128	0.0307	-0.0338	-0.057	15.5
-0.0128	0.0382	-0.0308	-0.0968	15.5
-0.0128	0.0367	-0.0293	-0.0083	15.5
-0.0128	0.039	-0.0293	0.0465	15.7
-0.0135	0.0375	-0.0278	0.0352	15.6
-0.0158	0.0127	-0.0293	0.0382	15.8
-0.0135	-0.0053	-0.0263	-0.0563	15.6
-0.0135	0.0007	-0.0248	-0.1058	16
-0.0165	-0.0046	-0.0195	-0.0218	15.9
-0.0173	-0.0053	-0.0143	0.018	16.1
-0.0165	-0.0091	-0.015	0.0082	16.1
-0.0158	-0.0338	-0.0128	0.0097	16.2
-0.0158	-0.0436	-0.0128	-0.0015	16.3
-0.0158	-0.0338	-0.0128	-0.0083	16.2
-0.0158	-0.0256	-0.012	-0.0135	16.4
-0.015	-0.0135	-0.0075	-0.024	16.4
-0.0165	0.0142	-0.0015	-0.012	16.5
-0.0165	0.0285	0.003	0.0345	16.6
-0.0165	0.0165	0.0067	0.0637	16.6
-0.0158	0.0127	0.009	0.039	16.8
-0.0165	0.0127	0.012	0.024	16.5
-0.0143	0.0022	0.0135	-0.0346	16.7
-0.0165	-0.0068	0.0165	-0.123	16.8
-0.0165	-0.003	0.018	-0.0788	17.1
-0.015	-0.003	0.0195	-0.0015	16.7
-0.015	-0.012	0.0217	0.0202	17.3
-0.0143	-0.0083	0.0307	0.0675	17
-0.0181	0.0052	0.0375	0.0615	17.4
-0.0173	0.0217	0.0367	0.027	17.3
-0.0158	0.0195	0.0375	0.0637	17.3
-0.0143	0.003	0.0352	0.0802	17.5
-0.012	-0.012	0.033	0.0045	17.5
-0.0091	-0.003	0.0345	-0.0691	17.5
-0.0091	0.027	0.0345	-0.081	17.6
-0.0075	0.0202	0.033	-0.0608	17.5
-0.0053	0.003	0.0345	-0.024	17.8
-0.0053	-0.015	0.0382	0.0052	17.7
-0.0053	-0.0105	0.036	0	17.9
-0.0046	0.0022	0.0315	-0.0105	17.7
-0.0046	-0.021	0.0285	0.0045	18
-0.003	-0.0293	0.021	0.039	18.1
-0.003	-0.0203	0.0165	0.0322	18.1
-0.0023	-0.0015	0.0202	-0.0068	18.2
-0.0023	0.006	0.0195	-0.027	18
0.0007	-0.0105	0.018	-0.0608	18.4
0.0022	-0.003	0.0165	-0.0856	18.1
-0.0008	-0.0038	0.0165	-0.0608	18.6
-0.0008	-0.0091	0.015	-0.024	18.4
-0.0015	-0.0046	0.015	-0.003	18.5
-0.0015	0.0022	0.0142	0.015	18.7
-0.0023	0.009	0.0142	0.0195	18.7
-0.0038	0.006	0.015	0.018	18.9
-0.0053	0.012	0.0172	0.0187	18.8
-0.006	0.0105	0.0195	0.0172	19
-0.006	0.0015	0.0195	0.0202	18.8
-0.0053	0.0067	0.0157	0.0142	19
-0.006	0.0217	0.012	0.0127	19
-0.006	0.0247	0.0082	0.0105	19.3
-0.0053	0.0142	0.003	0.012	19.2
-0.003	0.0112	0.0022	0.015	19.2
0	-0.0015	0.0015	0.0157	19.4
0.0007	-0.0113	-0.0015	0.0105	19.4
-0.0008	0.0007	-0.0015	-0.0083	19.7
-0.0046	0.0105	-0.0053	-0.0143	19.4
-0.003	0.0082	-0.0091	0.0015	19.6
0	0.0007	-0.0091	0.048	19.7
0	-0.0165	-0.0083	0.0712	19.6
-0.0008	-0.0315	-0.0038	0.0502	19.9
-0.0008	-0.03	-0.0008	0.0345	19.7
0	-0.033	0.0015	-0.0405	20
0	-0.0398	0.0015	-0.1163	19.8
0.0007	-0.042	-0.003	-0.0615	20.2
0.0015	-0.045	-0.0053	0.0105	20.2
0.003	-0.0428	-0.0038	0.0232	20.2
0.0037	-0.012	-0.003	0.0082	20.4
0.0022	0.0337	-0.0015	-0.0398	20.4
0.0015	0.0495	0.0007	-0.0458	20.4
0.0045	0.075	0	-0.0181	20.4
0.0052	0.1042	-0.0023	-0.0068	20.7
0.0037	0.078	-0.003	-0.0068	20.7
0.0022	0.0367	-0.0015	-0.0248	20.7
0.0015	-0.0008	0.0007	-0.0383	20.7
0.0015	-0.0353	0.0007	-0.0218	20.9
0.0007	-0.0555	0.0015	0.0015	21.1
0.0007	-0.063	0.0037	0.0157	21
-0.0008	-0.0615	0.0037	0.0825	21.2
-0.003	-0.0488	0.0037	0.1597	21.1
-0.0015	-0.0181	0.0007	0.1732	21.3
-0.0023	-0.0135	0.0007	0.1365	21.3
-0.003	-0.0091	0.0015	0.0157	21.2
-0.0046	0.0157	0.0015	-0.1853	21.4
-0.0038	0.0232	0.0015	-0.1726	21.4
-0.0046	0.009	0.003	-0.0181	21.6
-0.0091	0.0007	0.0075	-0.066	21.5
-0.0091	0.012	0.0067	-0.066	21.8
-0.006	0	0.0045	-0.0405	21.9
-0.006	-0.0046	0.0022	-0.0383	21.9
-0.0083	0.0105	-0.0023	0.0015	21.9
-0.0083	0.0067	-0.0015	-0.033	21.9
-0.0091	0.0052	-0.0015	-0.03	22.1
-0.0083	0.0217	-0.0046	-0.0368	22
-0.0068	0.0142	-0.0053	-0.0428	22.1
-0.0105	-0.0338	-0.0068	-0.0533	22
-0.0083	-0.0428	-0.0098	-0.0383	22.2
-0.0083	-0.0091	-0.012	-0.0128	22.2
-0.0105	0.0082	-0.0128	-0.0308	22.2
-0.0105	0.0247	-0.0128	-0.0263	22.6
-0.012	0.0315	-0.0165	-0.0195	22.5
-0.012	0.0082	-0.0195	0.0097	22.7
-0.0135	-0.0218	-0.021	0.0405	22.5
-0.0135	-0.0413	-0.021	0.0127	22.9
-0.0143	-0.0195	-0.0203	-0.0315	22.7
-0.0158	0.0127	-0.021	0.0337	22.9
-0.0165	0.0442	-0.0203	0.0615	23
-0.0181	0.0727	-0.0181	0.03	23
-0.0195	0.0712	-0.0143	0.0487	23.2
-0.0203	0.0667	-0.0091	0.0202	23
-0.021	0.0525	-0.0068	0.0105	23.4
-0.0218	0.0172	-0.0053	-0.0091	23.2
-0.0233	-0.003	-0.0075	0.0052	23.4
-0.0218	-0.0046	-0.0068	0.0465	23.5
-0.0218	-0.021	-0.0075	0.0652	23.6
-0.0195	-0.0315	-0.0068	0.0795	23.7
-0.0188	-0.0308	-0.0083	0.0472	23.5
-0.0181	-0.0338	-0.006	-0.0443	23.8
-0.0188	-0.0195	-0.003	-0.105	23.8
-0.0195	-0.0158	-0.0015	-0.0368	24
-0.0188	-0.0165	0.0015	-0.0113	23.9
-0.0143	-0.0105	0.0007	-0.0083	24.1
-0.012	-0.0143	-0.003	0.0045	24.1
-0.012	-0.0113	-0.0038	-0.0023	24.1
-0.0091	-0.0091	-0.003	0.0187	24.3
-0.0113	-0.0083	0.0007	0.0172	24.3
-0.0113	-0.0091	0.0052	0.0142	24.3
-0.0128	-0.0195	0.006	0.012	24.4
-0.0135	-0.0195	0.006	0.0135	24.4
-0.0113	-0.0008	0.0067	0.021	24.7
-0.0105	0.0127	0.0075	0.0285	24.7
-0.0083	0.003	0.0075	0.027	24.8
-0.0068	0.0015	0.009	0.0247	24.7
-0.0098	-0.0015	0.0105	0.0277	25
-0.0091	-0.0195	0.0105	0.0195	25
-0.0091	-0.027	0.009	0.018	25
-0.0083	-0.0195	0.0082	0.0015	25.1
-0.0091	0.0007	0.0082	-0.0091	25.3
-0.0098	0.0247	0.0097	-0.024	25.2
-0.0091	0.0442	0.012	-0.0743	25.3
-0.0075	0.0525	0.0127	-0.1103	25.3
-0.006	0.0277	0.0142	-0.0863	25.3
-0.006	-0.0278	0.018	-0.0465	25.6
-0.0091	-0.0615	0.0195	-0.003	25.6
-0.0091	-0.0353	0.0202	0.0637	25.6
-0.0091	0.009	0.0195	0.0607	25.6
-0.0091	0.0427	0.0202	0.0367	25.9
-0.012	0.033	0.018	0.048	26.1
-0.0158	-0.0053	0.0157	0.042	25.8
-0.0143	-0.0158	0.015	0.0495	26.1
-0.0083	-0.039	0.0097	0.0262	25.9
-0.0053	-0.0743	0.0075	-0.0323	26.2
-0.0068	-0.1178	0.009	-0.0856	26.1
-0.0083	-0.105	0.0105	-0.0856	26.3
-0.0105	-0.0046	0.0097	-0.0533	26.5
-0.012	0.0532	0.0037	-0.0278	26.5
-0.0105	0.048	0.0015	-0.0083	26.7
-0.0068	0.0517	0.0015	-0.0368	26.5
-0.0046	0.0352	-0.0008	-0.0353	26.8
-0.0015	0.0037	-0.003	-0.0203	26.7
-0.0015	0.0165	-0.0068	-0.0135	26.8
-0.0046	0.0105	-0.0046	-0.0181	26.8
-0.0046	0.0015	-0.0083	-0.0233	26.8
-0.0046	0.0315	-0.0105	-0.0105	27
-0.0053	0.0375	-0.0128	0.0015	27
-0.0068	0.012	-0.0143	0.0292	27.1
-0.006	-0.003	-0.0165	0.0382	27
-0.0023	0.0082	-0.0188	0.0412	27.2
-0.003	0.0142	-0.0173	0.0262	27.1
-0.0023	0.0082	-0.0165	-0.0023	27.3
-0.0046	0.0052	-0.0158	-0.0256	27.4
-0.0046	0.0052	-0.0195	-0.0218	27.3
-0.0008	0.0007	-0.0225	0.0135	27.4
-0.0008	-0.012	-0.0203	0.0135	27.5
0	-0.0105	-0.0188	0.0045	27.7
-0.0015	0.0142	-0.0143	-0.0218	27.8
-0.0023	0.0217	-0.0098	-0.0368	27.8
-0.0015	-0.0195	-0.0068	0.0442	27.9
0.0007	-0.0743	-0.0068	0.0892	27.9
0.0007	-0.0706	-0.0053	0.0517	28.1
-0.0015	-0.03	-0.0046	0.0165	27.9
-0.003	-0.006	-0.0015	-0.0443	28.2
-0.0046	0.003	0.0007	-0.0915	28.1
-0.0053	0.0225	0.0045	-0.096	28.4
-0.006	0.042	0.0075	-0.0713	28.3
-0.0068	0.0667	0.0045	-0.0645	28.4
-0.0046	0.078	0.003	-0.0728	28.5
-0.003	0.0472	0.0045	-0.063	28.5
-0.0046	0.0495	0.0045	-0.0563	28.7
-0.0053	0.054	0.0015	-0.033	28.5
-0.0068	0.0217	0.0022	0.0007	28.8
-0.0053	0.0127	0.003	0.0277	28.8
-0.0046	0.003	0.0045	0.039	29.1
-0.0046	-0.006	0.0045	0.0427	29.2
-0.0038	-0.0015	0.0015	0.0345	29
-0.0038	-0.0046	0.003	0.027	29.2
-0.0023	-0.0128	-0.0008	0.0322	29.2
-0.0015	-0.0233	-0.003	0.0375	29.3
-0.0008	-0.024	-0.0046	0.057	29.2
0.0007	-0.0233	-0.0046	0.099	29.5
-0.0023	-0.021	-0.0046	0.1462	29.4
-0.003	-0.0158	-0.0023	0.1515	29.4
-0.003	-0.0143	-0.0015	0.117	29.6
-0.0023	-0.0315	-0.0015	-0.0293	29.7
-0.003	-0.0488	0.0015	-0.2348	29.7
-0.0075	-0.0443	0.0052	-0.1703	29.7
-0.0075	-0.042	0.0052	-0.0143	29.9
-0.0053	-0.0405	0.0082	-0.0308	30
-0.0075	-0.012	0.009	-0.0188	30.1
-0.0091	0.009	0.0105	-0.024	30.1
-0.0091	0.006	0.012	-0.015	30.2
-0.0105	0.0067	0.0127	0.012	30.2
-0.0098	0.0127	0.0105	0.0142	30.3
-0.0068	0.0052	0.0067	0.0352	30.5
-0.006	-0.0038	0.003	0.036	30.3
-0.006	0.0112	0.0007	0.0705	30.5
-0.006	0.0352	0.0037	0.075	30.5
-0.0053	0.0382	0.0007	0.0742	30.6
-0.006	0.0232	-0.0023	0.042	30.7
-0.0068	0.024	-0.0008	-0.0788	30.7
-0.006	0.0255	-0.0008	-0.099	30.7
-0.003	0.0172	0	0.012	30.8
-0.0068	0.012	0.003	0.048	30.9
-0.0083	-0.0105	0.0015	0.0555	31
-0.0046	-0.0495	-0.0015	0.0315	31
-0.0053	-0.0825	-0.0015	-0.0248	31.2
-0.003	-0.1013	-0.0008	-0.0368	31.1
-0.0023	-0.0713	-0.0015	-0.0181	31.3
-0.0023	-0.0098	-0.0038	-0.0256	31.1
-0.003	0.0217	-0.0046	-0.1763	31.3
-0.0083	0.0307	-0.0015	-0.1433	31.3
-0.0068	0.039	0.0037	0.0472	31.5
-0.0083	0.0435	0.0052	0.0772	31.5
-0.0113	0.0352	0.0045	0.0952	31.6
-0.0128	0.0277	0.0022	0.063	31.6
-0.0181	0.0165	0.0015	-0.039	31.7
-0.0203	-0.0008	0.0037	-0.078	31.9
-0.0203	-0.027	0.0067	-0.006	31.9
-0.0165	-0.0555	0.0082	0.0502	31.9
-0.0158	-0.0465	0.0082	-0.0068	31.9
-0.0181	-0.0428	0.009	-0.0323	32
-0.0203	-0.048	0.0097	-0.081	32
-0.0181	-0.0158	0.0105	-0.129	32
-0.0181	0.048	0.006	-0.108	32.1
-0.0181	0.078	0.0015	-0.0608	32.1
-0.0165	0.0457	-0.0046	-0.0038	32.4
-0.0165	0.0045	-0.012	0.048	32.4
-0.0165	-0.0458	-0.012	0.1087	32.5
-0.015	-0.0915	-0.0083	0.0907	32.4
-0.0135	-0.1268	0.0007	0.018	32.4
-0.0113	-0.1065	0.0052	-0.0203	32.5
-0.0128	0.0127	0.0067	-0.048	32.5
-0.0113	0.078	0.0067	-0.0698	32.8
-0.0083	0.0742	0.0007	-0.0375	32.7
-0.0068	0.105	-0.0023	-0.027	32.9
-0.0046	0.1207	-0.003	-0.0555	32.8
-0.0046	0.1185	-0.0046	-0.0525	32.9
-0.006	0.0802	-0.003	-0.0443	33.2
-0.0075	0.0442	-0.003	-0.0218	33
-0.0068	0.0135	-0.0023	0.015	33.2
-0.0068	-0.0218	-0.003	0.0802	33.1
-0.0053	-0.0023	-0.0015	0.1155	33.3
-0.0046	-0.0038	-0.0015	0.0772	33.4
-0.0068	-0.0181	-0.0023	0.0637	33.5
-0.0053	-0.0195	-0.0008	0.0495	33.5
-0.006	-0.0225	-0.0008	0.0172	33.5
-0.0075	-0.0091	0.0007	0.0105	33.5
-0.0083	0.0007	0.003	-0.0135	33.7
-0.006	0.0255	0.0045	-0.0256	33.7
-0.0053	0.0255	0.009	-0.0158	33.9
-0.0068	0.0067	0.0097	-0.0023	33.8
-0.0075	0.0195	0.0105	0.0007	34.1
-0.0068	0.0195	0.0127	-0.0278	33.8
-0.0083	-0.0346	0.0165	0.003	34.2
-0.0105	-0.1028	0.0187	0.0427	33.9
-0.0091	-0.1245	0.015	0.0495	34.2
-0.003	-0.1448	0.0112	0.078	34.2
0.0037	-0.1448	0.009	0.0645	34.5
0.0052	-0.063	0.0067	0.0217	34.3
0.0037	0.0232	0.006	-0.0353	34.5
0.003	0.0682	0.006	-0.0938	34.4
0.0007	0.069	0.0067	-0.1118	34.5
-0.003	0.0667	0.0067	-0.0908	34.7
-0.0053	0.0847	0.0037	-0.0465	34.7
-0.0075	0.0555	0.0015	-0.0143	34.6
-0.0091	0.0105	0.003	-0.0083	35
-0.0091	-0.027	0.003	0.0045	34.9
-0.012	-0.0293	0.003	0.0165	35.1
-0.0143	0.0135	0.0015	0.0127	34.9
-0.0158	0.0165	-0.0046	0.0322	35.2
-0.0128	0.0225	-0.0105	0.0337	34.7
-0.0113	0.0472	-0.0158	0.0292	35.3
-0.0143	0.0615	-0.0188	0.045	35.2
-0.0158	0.0457	-0.0165	0.0465	35.5
-0.012	-0.0315	-0.0165	0.0645	35.5
-0.0091	-0.108	-0.0165	0.0757	35.4
-0.0083	-0.1538	-0.0128	0.03	35.5
-0.0083	-0.1553	-0.0105	0.0067	35.6
-0.0091	-0.1298	-0.0083	0.0517	35.6
-0.0068	-0.0975	-0.0053	0.0247	35.7
-0.0046	-0.0308	-0.0023	-0.0143	35.8
-0.0038	0.0622	-0.0015	-0.0098	35.9
-0.0046	0.1447	0.003	-0.0443	35.9
-0.006	0.1815	0.0045	-0.1118	36
-0.0053	0.1537	0.003	-0.159	36
-0.0053	0.0945	0.003	-0.1418	36.1
-0.0053	0.0592	0.0037	-0.1381	36
-0.0053	0.042	0.006	-0.156	36.1
-0.0083	0.042	0.0082	-0.1613	36.2
-0.0068	0.0112	0.0075	-0.0923	36.3
-0.0046	-0.0503	0.006	-0.0068	36.4
-0.0046	-0.048	0.0037	0.0345	36.3
-0.0046	-0.0256	0.0015	0.0622	36.5
-0.003	-0.0083	0.0022	0.0547	36.5
-0.006	0.0142	0.0052	0.0405	36.6
-0.0083	0.0232	0.0067	0.0322	36.6
-0.0053	0.0292	0.0045	0.0322	36.5
-0.006	0.0127	0.0052	0.0345	36.8
-0.0068	-0.0248	0.009	0.0322	36.6
-0.0098	-0.054	0.0135	0.036	37
-0.0158	-0.0615	0.018	0.0502	36.9
-0.015	-0.045	0.0142	0.0562	37
-0.0128	-0.048	0.0135	0.0502	37
-0.0128	-0.0698	0.0165	0.0457	37
-0.012	-0.066	0.0105	0.033	37.3
-0.0105	-0.0383	0.0067	0.024	37.1
-0.0083	-0.0046	0.003	0.0255	37.3
-0.0075	0.0277	0.0007	0.0465	37.2
-0.0068	0.069	0	0.0705	37.5
-0.0053	0.0877	0.0015	0.0877	37.4
-0.0068	0.0787	0.009	0.0697	37.4
-0.0083	0.0802	0.0105	-0.006	37.5
-0.0053	0.0292	0.0112	-0.057	37.4
-0.0008	-0.045	0.0127	-0.0383	37.7
0.003	-0.042	0.009	0.006	37.6
0.003	-0.0315	0.0045	0.0067	37.9
-0.0008	-0.0668	0.003	-0.033	37.7
0.0015	-0.0735	0.003	-0.0308	37.9
0.0015	-0.0413	0.0022	0.0127	37.8
-0.0015	0.0067	0.0015	0.024	37.9
-0.003	0.06	-0.0008	-0.0353	37.9
-0.0046	0.09	-0.0008	-0.0825	38.1
-0.0038	0.0585	-0.003	-0.0256	38.1
-0.0053	0.0142	-0.006	-0.0953	37.9
-0.006	-0.0113	-0.0046	-0.165	38.4
-0.0053	-0.063	-0.0008	-0.0623	38.2
-0.0075	-0.1283	0.0007	-0.1103	38.3
-0.0105	-0.192	0.0015	-0.1193	38.3
-0.012	-0.093	0.0022	-0.0473	38.3
-0.0128	0.0232	0.0015	-0.0098	38.5
-0.0158	-0.0195	0.0015	0.0397	38.7
-0.0143	0.018	-0.0008	0.0277	38.6
-0.0098	0.036	-0.0008	0.0502	38.7
-0.0105	0.033	0.0007	0.042	38.7
-0.0091	0.0892	0.0007	0.009	38.9
-0.0105	0.1005	0.0007	-0.0046	38.6
-0.0105	0.1177	-0.0015	0.018	39
-0.0083	0.0787	-0.003	0.0562	38.9
-0.0068	0.0277	-0.006	0.0802	39.1
-0.0068	0.0015	-0.0046	0.1297	39
-0.0083	-0.0533	-0.0038	0.156	39.3
-0.0091	-0.0818	-0.003	0.1312	39.1
-0.0091	-0.0638	-0.0023	0.0142	39.1
-0.0098	-0.0353	0.0007	-0.0706	39.3
-0.0113	0.0045	-0.0015	-0.024	39.3
-0.0105	0.0375	-0.0075	-0.0068	39.4
-0.0068	0.0292	-0.0083	-0.0436	39.4
-0.0068	0.0517	-0.0046	-0.0953	39.3
-0.0105	0.0607	0.0015	-0.1463	39.6
-0.0143	0.0375	0.003	-0.1463	39.6
-0.0158	0.0465	-0.0008	-0.1193	39.7
-0.0158	0.018	-0.0015	-0.0465	39.6
-0.0158	-0.042	-0.0053	0.03	39.9
-0.0143	-0.0578	-0.0046	0.0472	39.7
-0.0165	-0.0525	-0.0053	0.0435	39.8
-0.0165	-0.045	-0.0091	0.0495	39.7
-0.0143	-0.027	-0.0105	0.0675	40
-0.015	-0.0113	-0.0105	0.1117	40.1
-0.0128	-0.0015	-0.0091	0.1402	40.1
-0.012	0.0142	-0.0083	0.099	40
-0.012	0.0405	-0.0046	0.042	40.2
-0.012	0.0592	-0.0015	0.0045	40.3
-0.0128	0.0405	-0.0015	-0.0278	40.3
-0.0105	-0.0143	-0.0008	-0.1088	40.4
-0.012	-0.0353	0.0007	-0.1613	40.5
-0.0128	0.0082	0.0015	-0.0046	40.4
-0.0091	0.0307	0	0.048	40.7
-0.0046	-0.0038	-0.0008	-0.0495	40.5
-0.0008	-0.0158	-0.0023	-0.0518	40.7
-0.0053	-0.0015	-0.0046	-0.054	40.5
-0.0083	-0.0458	-0.0015	-0.0158	40.8
-0.006	-0.078	0.003	-0.0165	40.8
-0.0068	-0.0623	0.0075	-0.0555	40.9
-0.0083	-0.0443	0.0105	-0.0758	40.9
-0.0083	-0.0098	0.0067	-0.0638	40.8
-0.0091	-0.0488	0.003	-0.0293	41
-0.0091	-0.0578	0.003	-0.0383	41.2
-0.0075	0.018	-0.0015	-0.0173	41
-0.0068	0.0217	-0.003	0.0427	41.4
-0.0091	0.0037	-0.0023	0.0757	41.2
-0.0098	0.0165	-0.0008	0.0802	41.4
-0.0113	0.0142	0.0007	0.1372	41.4
-0.0083	-0.0315	0	0.189	41.6
-0.0046	-0.033	-0.0023	0.1755	41.4
-0.0038	0.0375	-0.0038	0.132	41.6
-0.0046	0.0337	-0.0015	0.0615	41.7
-0.0068	-0.027	0.0015	-0.0525	41.6
-0.0075	-0.0346	0.0052	-0.1298	41.8
-0.0091	0.0082	0.0067	-0.0863	41.8
-0.0098	0.0157	0.009	-0.0675	41.8
-0.012	0.0015	0.012	-0.1125	41.9
-0.0143	0.0142	0.015	-0.1748	41.8
-0.0143	0.063	0.0157	-0.2138	42.1
-0.015	0.108	0.0135	-0.1065	42
-0.012	0.0555	0.012	0.009	42.2
-0.0075	0.0127	0.0082	0.027	41.9
-0.0053	0.0082	0.0045	0.0405	42.5
-0.0046	-0.0075	0.0037	0.018	42.2
-0.0046	0.027	0.0015	-0.0195	42.5
-0.0068	0.0525	-0.0008	-0.0293	42.3
-0.0075	0.0577	-0.0015	-0.0105	42.5
-0.0083	0.033	-0.0008	0.0127	42.6
-0.0083	0.033	-0.003	0.0052	42.5
-0.0068	0.099	-0.0046	-0.0015	42.8
-0.0075	0.105	-0.0008	0.0465	42.6
-0.0083	0.0495	0.0015	0.0967	42.8
-0.0091	-0.0188	0.003	0.0367	42.7
-0.0075	-0.0885	-0.0008	0.024	42.8
-0.0083	-0.1711	-0.0015	0.0502	43
-0.0091	-0.2063	0.0007	0.018	42.9
-0.0091	-0.0765	0.0015	0.0405	43.1
-0.012	0.0202	-0.0008	0.0615	43.1
-0.0135	-0.0668	-0.0023	0.0855	43.3
-0.0105	-0.078	-0.0008	0.0847	43.1
-0.0098	-0.0233	0.0015	0.036	43.3
-0.0128	0.024	0.003	-0.0436	43.3
-0.012	0.063	0.0075	-0.0713	43.4
-0.0083	0.0405	0.0052	0.0135	43.6
-0.0053	0.0442	0	0.0825	43.3
-0.0053	-0.0173	-0.0046	0.0742	43.7
-0.0008	-0.09	-0.0046	0.0127	43.6
-0.0008	-0.054	-0.0023	-0.0675	43.7
0.0007	-0.0361	-0.0023	-0.1163	43.6
-0.0008	-0.0263	-0.0008	-0.0691	43.9
-0.012	-0.0353	0.0022	-0.0248	43.9
-0.0158	-0.0773	0.0052	-0.0113	43.9
-0.0068	-0.0083	0.0075	-0.012	44
0.0037	0.1072	0.0067	-0.0383	44.1
0.0045	0.1387	0.0052	-0.0368	44.3
-0.0008	0.1102	0.003	-0.057	44.2
-0.0075	0.0442	0.0015	-0.093	44.1
-0.0165	0.006	0	-0.1155	44.4
-0.0165	-0.03	-0.0023	-0.0706	44.3
-0.0128	-0.0128	0	0.006	44.6
-0.0068	0.0435	0	0.0352	44.4
-0.0023	-0.0091	-0.0015	0.0142	44.7
0.0015	-0.0038	-0.0015	-0.048	44.6
0.0007	0.0202	-0.0023	-0.1058	44.8
-0.0015	-0.012	-0.003	-0.1073	44.8
-0.0046	-0.0068	-0.0015	-0.0675	44.9
-0.0053	-0.0203	-0.0015	-0.0046	45.1
-0.006	-0.0443	-0.0015	0.069	45
-0.0098	-0.0728	0	0.06	45.2
-0.012	-0.0675	-0.0015	0.0577	45.1
-0.0105	-0.0405	-0.0046	0.0742	45.3
-0.0083	-0.0188	-0.0105	0.0577	45
-0.0068	0.0337	-0.0113	0.0517	45.3
-0.0068	0.081	-0.0105	0.0292	45.4
-0.006	0.075	-0.0128	0.0285	45.4
-0.0053	0.0082	-0.012	0.0405	45.6
-0.0083	-0.045	-0.0105	0.0712	45.5
-0.0083	-0.042	-0.012	0.1155	45.9
-0.0068	0.0015	-0.0091	0.1207	45.6
-0.0091	0.03	-0.0075	0.0952	45.7
-0.0068	0.027	-0.0091	0.0727	45.7
-0.0053	0.012	-0.0098	0.0502	45.8
-0.0053	-0.027	-0.0075	0.018	45.9
-0.0046	-0.075	-0.0075	-0.033	45.8
-0.003	-0.0743	-0.0083	-0.1485	45.9
-0.0053	0.0052	-0.0068	-0.2378	46.1
-0.0053	0.0675	-0.0046	-0.2055	46
-0.0068	0.078	0	-0.126	46.5
-0.0113	0.0705	0.0045	-0.0885	46.2
-0.0135	0.0675	0.009	-0.0818	46.5
-0.0165	0.069	0.009	-0.0458	46.4
-0.0143	0.0225	0.0067	0.033	46.6
-0.0068	-0.0495	0.0045	0.0802	46.5
-0.0046	-0.0465	0.003	0.0675	46.6
-0.0075	-0.012	0.0022	0.0712	46.5
-0.0098	0.0007	-0.0008	0.0645	46.8
-0.006	0.0292	-0.003	0.0097	46.7
-0.0046	0.075	-0.0015	-0.0015	46.8
-0.0053	0.1252	0	0.0165	46.9
-0.0068	0.1027	0.0015	0.0187	47
-0.0053	0.0277	0.0015	0.0457	47
-0.0023	-0.0458	0.0007	0.084	47.1
-0.0015	-0.0856	0.0007	0.1005	47.1
0.0007	-0.108	0.003	0.1237	47.3
-0.0023	-0.1875	0.0045	0.1515	47
-0.0046	-0.207	0.0067	0.1387	47.4
-0.0046	-0.1538	0.0112	0.114	47.1
-0.0068	-0.057	0.0142	0.069	47.6
-0.0083	0.0307	0.012	-0.057	47.3
-0.0083	0.0202	0.012	-0.1718	47.6
-0.003	-0.0256	0.0172	-0.294	47.4
-0.003	-0.0653	0.0165	-0.4178	47.4
-0.0068	-0.0585	0.012	-0.3255	47.6
-0.006	0.0135	0.0112	-0.1583	47.8
-0.0091	0.108	0.009	-0.0578	47.9
-0.0068	0.0922	0.0015	0.048	47.9
-0.006	0.066	0.0007	0.0817	48
-0.0068	0.0862	-0.0008	0.096	48.1
-0.0075	0.0765	-0.0008	0.1327	48.1
-0.0083	0.0705	-0.0015	0.1372	48.4
-0.0083	0.0202	0	0.1057	48.2
-0.0083	0.006	0.003	0.0667	48.5
-0.0091	0.0067	0.0045	0.0322	48.4
-0.0075	0.0232	0.0045	0.0157	48.5
-0.0053	0.0585	0.0007	0.0585	48.6
-0.0075	0.012	0.0015	0.0607	48.5
-0.0083	-0.0053	0.0052	-0.0203	48.7
-0.0105	-0.0008	0.0052	-0.0803	48.8
-0.0105	-0.0308	0.0052	-0.132	48.8
-0.0091	-0.057	0.0045	-0.1898	48.8
-0.0105	-0.033	0.0007	-0.1088	48.8
-0.0068	0.0202	-0.0015	0.0352	49.1
-0.006	0.012	-0.0046	0.0172	49
-0.0046	-0.0263	-0.0091	-0.042	49.1
-0.0038	-0.0443	-0.0113	-0.0443	48.9
-0.0091	-0.0398	-0.0128	-0.0038	49.3
-0.0083	-0.0495	-0.012	0.045	49.1
-0.003	-0.0375	-0.0098	0.0217	49.4
-0.0023	0.0045	-0.0068	0.0727	49.3
-0.006	0.0022	-0.0068	0.1365	49.5
-0.0046	-0.0008	-0.0068	0.129	49.5
-0.0008	0.0067	-0.0068	0.1125	49.6
-0.0008	0.024	-0.003	0.0622	49.9
-0.0046	0.015	0.0015	-0.0083	49.8
-0.0046	0.0127	0.0052	-0.0645	49.9
-0.003	0.033	0.0067	-0.081	49.8
-0.0046	-0.0128	0.0067	-0.0638	49.9
-0.0068	0.0015	0.0082	-0.0645	50.2
-0.0105	0.0382	0.0097	-0.12	49.9
-0.0135	0.0112	0.0105	-0.1155	50.2
-0.015	-0.0023	0.0105	-0.0413	50
-0.012	0.0105	0.0082	-0.0256	50.3
-0.0143	0.063	0.0067	-0.0135	50
-0.0158	0.0765	0.0082	0.0217	50.4
-0.0158	0.0495	0.009	0.039	50.5
-0.0158	0.0255	0.0082	0.0352	50.5
-0.0158	0.0157	0.0045	0.0172	50.4
-0.0143	0.0172	0.003	0.027	50.5
-0.0105	0.0292	0.003	0.069	50.8
-0.0105	0.0412	0.0022	0.1207	50.6
-0.012	-0.033	0.0045	0.1155	50.6
-0.0128	-0.0953	0.003	0.0577	50.7
-0.0105	-0.0975	-0.003	0.0382	50.8
-0.0091	-0.0825	-0.003	0.0382	50.8
-0.0105	-0.042	-0.0053	0.0255	50.7
-0.0068	-0.0203	-0.0083	0.0772	50.9
-0.0046	-0.0555	-0.0091	0.1117	50.9
-0.003	-0.1238	-0.0098	0.0165	51
-0.0023	-0.06	-0.0083	-0.1785	50.8
-0.0038	0.0517	-0.0075	-0.216	51.1
0	0.0817	-0.012	-0.0383	51.1
0.003	0.057	-0.0105	0.0052	51
0.003	-0.0248	-0.0098	0.0427	51.1
0.0007	-0.0788	-0.0098	0.0442	51.2
-0.003	-0.0706	-0.006	-0.057	51.4
-0.006	0.0262	-0.0015	-0.1133	51.4
-0.0091	0.078	0.003	-0.1328	51.5
-0.0083	0.0667	0.0007	-0.1088	51.5
-0.0068	0.0945	0.0015	-0.0915	51.5
-0.006	0.0255	0.0075	-0.0158	51.8
-0.0038	-0.0503	0.0097	-0.012	51.5
-0.0083	-0.0203	0.0105	-0.0691	52
-0.0135	-0.0308	0.0105	-0.114	51.7
-0.0128	-0.0615	0.009	-0.063	52.1
-0.0075	-0.0203	0.0067	0.0705	52
-0.0083	0.0157	0.0045	0.0525	52.2
-0.0105	0.0457	0.0022	0.063	52.3
-0.0105	0.0547	0.0022	0.096	52.2
-0.0128	0.0465	0.0037	0.0787	52.2
-0.0143	0.0435	0.006	0.0855	52.1
-0.0143	0.012	0.0082	0.063	52.4
-0.0091	-0.0046	0.003	0.0457	52.5
-0.0075	-0.0218	0.0045	0.027	52.5
-0.0083	-0.0413	0.0067	0.0915	52.6
-0.0068	-0.0743	0.006	0.1785	52.6
-0.0083	-0.0765	0.006	0.15	52.7
-0.003	-0.0218	0.0067	0.0607	52.5
-0.0008	0.0292	0.0067	0.0015	52.8
0.0037	0.0877	0.0037	0.012	52.8
0.0082	0.09	0.0007	-0.0015	52.8
0.0052	0.0262	-0.0015	-0.1088	52.8
0.003	-0.0368	0.0015	-0.2565	53.1
0	-0.0668	0.006	-0.2535	53
-0.0046	-0.0113	0.0067	-0.18	53.1
-0.0046	0.0495	0.0082	-0.15	53.3
-0.0046	0.0322	0.0112	-0.0638	53.2
-0.0068	0.039	0.0135	-0.0203	53.3
-0.012	0.0397	0.0127	-0.0518	53.3
-0.0113	0.0157	0.012	-0.084	53.5
-0.0105	0.0277	0.012	-0.0503	53.5
-0.0105	0.024	0.0105	0.0232	53.5
-0.0083	0.042	0.0105	0.0532	53.6
-0.0083	0.0165	0.0082	0.069	53.7
-0.0068	-0.0368	0.0045	0.0802	53.7
-0.0091	-0.0555	0.0015	0.0802	53.8
-0.0128	-0.1133	0.0007	0.0877	53.9
-0.0105	-0.1313	0.0022	0.1155	54
-0.0091	-0.066	0.003	0.1485	54
-0.0105	0.0052	0.006	0.1335	54.1
-0.0113	0.0157	0.009	0.0967	54
-0.0083	0.033	0.0052	0.0757	54.1
-0.0083	0.0195	0.0022	0.0427	54
-0.0083	-0.0015	0.0075	-0.0315	54.2
-0.0083	0.0135	0.012	-0.0915	54.2
-0.0105	-0.0083	0.0127	-0.0765	54.2
-0.0135	-0.024	0.0135	-0.111	54.3
-0.0105	-0.0615	0.009	-0.147	54.4
-0.0046	-0.0863	0.0045	-0.057	54.5
-0.0046	-0.105	0.0022	0.0397	54.4
-0.0053	-0.1013	0.003	0.0352	54.5
-0.0083	0.0075	0.0067	-0.0285	54.6
-0.0128	0.0847	0.0075	-0.0173	54.5
-0.0083	0.087	0.0052	0.0405	54.8
-0.0038	0.0817	0.0097	0.0367	54.5
-0.0038	0.0525	0.012	0.0015	54.8
-0.0053	0.0607	0.0097	-0.0458	54.5
-0.0068	0.1072	0.0067	-0.0818	54.8
-0.006	0.1042	0.0022	-0.0878	54.9
-0.0075	0.0832	-0.0008	-0.0721	55
-0.0083	0.0592	-0.0015	-0.0248	55.1
-0.0105	0.0255	-0.0008	-0.0008	55
-0.0091	-0.0143	-0.003	-0.0278	55.1
-0.0075	-0.0375	-0.0053	-0.0248	55.1
-0.0075	-0.0728	-0.0075	0.009	55.2
-0.0068	-0.1065	-0.0053	0.048	55.3
-0.0105	-0.0511	-0.0015	0.0967	55.4
-0.0158	-0.021	-0.0015	0.12	55.4
-0.0165	-0.0458	-0.0053	0.135	55.4
-0.0181	-0.1021	-0.0098	0.0877	55.5
-0.0188	-0.2175	-0.0091	0.0172	55.5
-0.0143	-0.2595	-0.0091	0.0405	55.7
-0.015	-0.1665	-0.0083	0.0787	55.6
-0.0143	-0.0608	-0.006	0.0712	55.7
-0.0075	0.0532	-0.0068	0.0652	55.8
-0.0068	0.1822	-0.0068	0.075	55.7
-0.0091	0.15	-0.0023	0.051	55.9
-0.0098	0.0667	-0.0015	-0.0128	55.9
-0.0068	0.1057	-0.0068	-0.0818	56
-0.0023	0.1485	-0.006	-0.1441	56.1
-0.0038	0.1747	-0.003	-0.231	55.9
-0.003	0.2025	-0.003	-0.255	56.2
-0.003	0.1897	-0.0075	-0.2078	55.9
-0.0008	0.1875	-0.0128	-0.1448	56.3
-0.0008	0.1627	-0.0181	-0.0158	56.2
-0.0015	0.048	-0.0181	0.0247	56.5
0.0007	-0.0645	-0.0158	-0.039	56.3
0.0015	-0.1605	-0.0173	0.0045	56.5
0.0045	-0.2325	-0.0173	0.0787	56.5
0.003	-0.2205	-0.0158	0.0405	56.6
0.0022	-0.1696	-0.0113	-0.0495	56.7
0.0007	-0.084	-0.0098	-0.1283	56.5
-0.0038	0.0097	-0.0068	-0.1193	56.7
-0.0075	0.057	-0.0015	-0.0615	56.8
-0.012	0.0255	-0.0023	-0.0046	56.9
-0.012	-0.0038	-0.0015	0.0367	56.9
-0.0128	0.0315	-0.0008	0.048	56.9
-0.0165	0.0165	0.003	0.0562	57.1
-0.0188	0.0067	0.0037	0.0435	56.9
-0.0181	0.0202	-0.0008	0.0457	57.4
-0.0143	0.0007	-0.0053	0.057	57.1
-0.0105	0	-0.0083	0.0607	57.2
-0.0091	-0.0105	-0.0091	0.0885	57.1
-0.0083	-0.0458	-0.0113	0.108	57.5
-0.006	-0.078	-0.0128	0.1072	57.4
-0.0046	-0.0413	-0.0135	0.1072	57.5
-0.0053	0.0127	-0.0113	0.105	57.6
-0.0053	-0.0135	-0.0098	0.0945	57.5
-0.003	-0.027	-0.0091	0.0742	57.6
-0.003	0.036	-0.0083	0.0547	57.7
-0.0015	0.0825	-0.012	0.0487	57.7
-0.003	0.024	-0.0091	0.021	57.8
-0.0068	-0.0173	-0.0053	-0.0375	57.9
-0.0083	-0.0023	-0.006	-0.0285	58
-0.012	-0.024	-0.0015	-0.0256	58
-0.0158	-0.0383	-0.0008	-0.0533	58
-0.0158	-0.0008	0.0007	-0.084	58
-0.0135	0.0105	0.006	-0.084	58.1
-0.012	-0.0368	0.0045	0.0375	58.2
-0.0113	-0.039	0.0045	0.057	58.4
-0.0046	-0.042	0.003	-0.0098	58.3
0	-0.0495	0	-0.0436	58.4
0.0015	-0.039	0.0045	-0.093	58.5
0.0022	-0.0533	0.0067	-0.1155	58.4
0.0015	-0.0038	0.0045	-0.1118	58.5
-0.0015	0.0705	0.006	-0.111	58.6
-0.0015	0.0855	0.0127	-0.1426	58.6
-0.0015	0.0727	0.0157	-0.1275	58.6
-0.0068	0.0555	0.0135	-0.054	58.6
-0.0091	0.0165	0.0195	-0.0015	58.9
-0.0128	-0.021	0.024	0.018	58.9
-0.0135	-0.012	0.0247	0.0217	59.1
-0.0143	0	0.0232	0.0277	59
-0.015	0.0172	0.0217	0.03	59.1
-0.0135	0.0285	0.0217	0.0315	59.1
-0.0135	0.0307	0.0142	0.0315	59.1
-0.0128	0.0622	0.0112	0.0315	59.3
-0.0143	0.093	0.0105	0.054	59
-0.0143	0.105	0.0105	0.102	59.4
-0.0173	0.003	0.009	0.1522	59.3
-0.0181	-0.1726	0.0082	0.2085	59.6
-0.0165	-0.2543	0.0052	0.231	59.5
-0.0143	-0.2648	0.0045	0.1755	59.5
-0.0053	-0.2011	0.0052	0.1065	59.6
0.0022	-0.1088	0.0127	0.072	59.5
0.003	0.0157	0.021	0.0547	59.8
0.0015	0.1125	0.0157	-0.0998	59.4
0.003	0.054	0.0135	-0.3878	59.7
0.0037	0.108	0.0157	-0.5123	59.6
0	0.2002	0.0142	-0.4463	59.9
-0.003	0.1552	0.012	-0.2993	59.9
-0.003	0.099	0.0082	-0.123	59.9
-0.0053	0.0427	0.0052	-0.0098	60.2
-0.0083	0.0382	0.0052	0.0705	60.1
-0.012	0.018	0.0037	0.1035	60.3
-0.012	0.0075	0.0007	0.1005	60.2
-0.012	0.0067	0	0.0975	60.3
-0.0128	-0.0158	0.0022	0.0727	60.3
-0.0098	-0.0128	0.0015	0.0705	60.4
-0.0113	-0.0293	0.0015	0.0705	60.3
-0.0143	-0.0285	0.0022	0.0817	60.4
-0.0158	-0.0233	0.0052	0.0945	60.5
-0.0158	-0.021	0.0052	0.0817	60.5
-0.0135	-0.0105	0.0045	0.0105	60.6
-0.0173	0.0232	0.0037	-0.0608	60.8
-0.0143	0.0187	0.0007	0.0045	60.7
-0.0083	-0.0233	-0.0008	0.0667	61
-0.006	-0.0195	-0.0023	0.1057	60.7
-0.0053	-0.042	-0.0038	0.1515	61.1
-0.0068	-0.0338	-0.0015	0.1342	60.9
-0.0038	-0.033	-0.0008	0.1065	61.2
-0.0023	-0.0608	-0.003	0.0315	60.9
-0.0023	-0.0008	-0.0046	0.0412	61.2
-0.0053	0.039	-0.0083	0.09	61.1
-0.0053	0.0195	-0.0091	-0.0368	61.1
-0.0046	0.042	-0.0053	-0.1823	61.1
-0.0053	0.0937	-0.0046	-0.1485	61.2
-0.0046	0.0825	-0.0068	-0.0458	61.4
-0.0053	0.042	-0.012	0.0427	61.3
-0.0046	0.0105	-0.0128	0.1215	61.5
-0.0053	-0.0015	-0.012	0.0105	61.6
-0.0083	-0.0083	-0.0105	-0.228	61.4
-0.0083	-0.0383	-0.0068	-0.2798	61.7
-0.0046	-0.078	-0.0091	-0.1103	61.5
-0.0038	-0.1058	-0.0046	-0.042	61.9
-0.0068	-0.1043	-0.0015	-0.0608	61.6
-0.0105	-0.0638	0.0015	-0.0578	62
-0.0143	0.0157	0.009	-0.123	61.8
-0.0203	0.054	0.0127	-0.168	61.8
-0.0203	0.0795	0.0112	-0.1245	62
-0.0195	0.0982	0.0015	-0.0181	62.1
-0.0181	0.0352	-0.003	0.0442	62.1
-0.0135	0.0082	-0.0105	0.0967	62.1
-0.0113	0.0112	-0.012	0.114	62.2
-0.012	-0.0053	-0.012	0.1027	62.2
-0.0135	-0.027	-0.012	0.1222	62.3
-0.0113	-0.1185	-0.0105	0.1372	62.5
-0.0105	-0.1733	-0.012	0.1837	62.3
-0.0098	-0.1381	-0.0091	0.18	62.4
-0.0068	-0.093	-0.012	0.1762	62.5
0.0015	-0.045	-0.0143	0.1837	62.6
0.0082	0.006	-0.0135	0.126	62.5
0.009	0.0885	-0.0128	0.0525	62.5
0.0067	0.192	-0.0083	-0.1163	62.6
0.003	0.174	-0.0015	-0.3885	62.7
0	0.0682	0.0022	-0.4935	62.7
-0.0046	0.0015	0.0045	-0.3368	62.6
-0.0091	-0.0256	0.0045	-0.1853	62.9
-0.0143	0.006	0.0045	-0.0473	62.9
-0.0165	0.048	0.0082	0.0667	63
-0.0165	0.0397	0.009	0.0862	63
-0.0165	0.0112	0.0067	0.1087	63.1
-0.015	0.0187	0.0007	0.0855	63.1
-0.0135	0.0007	-0.0015	0.0675	63
-0.012	-0.066	0	0.0645	63.4
-0.0128	-0.1125	0.0007	0.084	63.1
-0.0165	-0.1365	0.0007	0.1305	63.5
-0.0165	-0.1185	-0.0015	0.1485	63.1
-0.0105	-0.093	0.003	0.1447	63.5
-0.0075	-0.0706	0.0067	0.099	63.4
-0.0091	0.0067	0.0052	0.0555	63.4
-0.0113	0.0577	0.003	0.0127	63.3
-0.0098	0.093	0.003	-0.0008	63.4
-0.0046	0.1762	0.0022	-0.0278	63.3
0	0.1672	0.0045	-0.1313	63.2
0.0007	0.123	0.0075	-0.216	63.3
-0.0008	0.129	0.0037	-0.2026	63.4
-0.0015	0.0615	-0.0053	-0.1021	63.3
-0.0015	-0.0375	-0.0068	-0.0653	63.4
-0.0046	-0.1013	-0.006	-0.123	63.4
-0.0053	-0.135	-0.0068	-0.1133	63.6
-0.0068	-0.1095	-0.006	0.045	63.4
-0.003	-0.0788	-0.0075	0.201	63.8
-0.0023	-0.042	-0.0068	0.216	63.6
-0.0053	0.063	-0.0046	0.168	63.9
-0.0075	0.1747	-0.0008	0.12	63.9
-0.0075	0.237	0.003	0.0457	63.9
-0.0068	0.1485	0.0052	-0.0346	63.9
-0.0105	0.0225	0.0052	-0.0353	64
-0.0128	0.0165	0.0067	-0.0158	64
-0.0105	-0.0533	0.0082	-0.0278	64.1
-0.0105	-0.1448	0.0082	0	64.2
-0.0091	-0.1875	0.0105	0.0517	64.1
-0.0083	-0.2318	0.0142	0.0225	64.3
-0.0083	-0.2213	0.012	0.0015	64.3
-0.0046	-0.15	0.0082	-0.0503	64.3
-0.0046	-0.0503	0.009	-0.1403	64.3
-0.0046	-0.0083	0.003	-0.1103	64.3
-0.0015	0.0015	-0.0038	-0.1343	64.4
-0.0015	0.033	-0.0046	-0.1103	64.5
-0.0023	0.0495	-0.0046	0.0105	64.6
-0.0008	0.09	-0.003	0.0427	64.6
-0.003	0.1237	0.0007	-0.039	64.6
-0.0068	0.1312	0.0022	-0.1223	64.6
-0.0083	0.1237	0.0052	-0.0691	64.8
-0.0068	0.0322	0.0082	0.0165	64.8
-0.0008	-0.027	0.009	0.0772	64.6
-0.006	-0.012	0.0105	0.0742	64.8
-0.0128	-0.0353	0.0105	0.0082	64.9
-0.0143	-0.0308	0.0097	-0.0323	65
-0.012	0.0105	0.0112	-0.021	65.2
-0.012	-0.0173	0.0082	0.0225	65.1
-0.0158	-0.0923	0.0007	0.0615	65.4
-0.0165	-0.1283	-0.0023	0.1125	65.1
-0.0188	-0.1718	-0.003	0.1417	65.4
-0.0195	-0.1898	0.0015	0.168	65.2
-0.0165	-0.063	0.0067	0.186	65.4
-0.0143	0.0405	0.0127	0.1762	65.2
-0.0105	0.0502	0.0127	0.1612	65.5
-0.0068	0.135	0.006	0.081	65.4
-0.0008	0.2107	0.0045	0.0165	65.5
0.0022	0.2025	0.0105	-0.0713	65.4
-0.0046	0.1402	0.0225	-0.2693	65.4
-0.0068	0.0577	0.024	-0.444	65.4
-0.0053	0.0907	0.018	-0.4005	65.6
-0.0053	0.0877	0.0127	-0.1785	65.7
-0.003	0.0165	0.0052	-0.1238	65.7
-0.0046	0.0195	0.0007	-0.1245	65.7
-0.0053	-0.003	-0.0046	-0.0285	65.8
-0.003	-0.0203	-0.0068	0.012	65.7
-0.0038	-0.0278	-0.0091	0.0487	66.1
-0.0053	-0.033	-0.0158	0.0742	65.8
-0.003	-0.021	-0.0158	0.0937	66.1
-0.003	-0.0195	-0.0165	0.099	65.9
-0.003	-0.0091	-0.0165	0.0847	66.2
-0.0038	-0.0218	-0.0158	0.0727	66.1
-0.0053	-0.0256	-0.0158	0.0645	66.1
-0.0105	-0.0218	-0.0128	0.0712	66.2
-0.0113	-0.0375	-0.0091	0.0682	66.1
-0.0105	-0.0623	-0.0075	0.0495	66.4
-0.0143	-0.0765	-0.0053	0.039	66.4
-0.0195	-0.0563	-0.0015	0.0637	66.6
-0.0278	-0.0615	0.0045	0.0667	66.6
-0.0256	-0.084	0.0105	0.042	66.5
-0.0158	-0.0375	0.009	0.0142	66.6
-0.0128	0.0682	0.009	0.0045	66.6
-0.0135	0.114	0.0127	0.0232	66.7
-0.012	0.0967	0.0105	0.0277	66.7
-0.0091	0.0952	0.0067	-0.0008	66.9
-0.0135	0.057	0.0015	-0.027	66.9
-0.0165	-0.0256	0.0007	0.003	67
-0.0105	-0.1148	-0.0015	0.0172	66.9
-0.003	-0.1575	-0.0068	0	67
0.0015	-0.1411	-0.0091	-0.0293	67
-0.0008	-0.1343	-0.0083	-0.0555	67
-0.0015	-0.0488	-0.0075	-0.123	67.1
0.0015	0.0405	-0.003	-0.249	67.2
0.0045	0.0592	0.0007	-0.2618	67.1
0.0052	0.0645	0.003	-0.183	67.4
0.0045	0.0705	0.0007	-0.0773	67.1
0.0045	0.084	-0.0046	0.0352	67.5
0.0022	0.018	-0.0046	0.0697	67.4
-0.0008	0.0067	-0.0068	0.0667	67.6
-0.0023	0.018	-0.0068	0.066	67.5
-0.0046	-0.012	-0.0068	0.0645	67.7
-0.0053	-0.0008	-0.0046	0.0622	67.7
-0.0053	-0.0068	-0.0008	0.0457	67.8
-0.0053	0.0097	0.0015	0.0435	67.7
-0.0113	0.0255	0.0037	0.042	67.8
-0.012	0.0495	0.0045	0.0442	67.9
-0.012	0.0742	0.003	0.0577	68
-0.0143	0.0517	0.0022	0.0757	68
-0.0165	0.0232	0.0015	0.111	68.1
-0.0158	-0.0188	0.0007	0.1372	68.1
-0.012	-0.081	0.0045	0.153	68.3
-0.0135	-0.1073	0.0037	0.1792	68
-0.012	-0.099	0.0052	0.1762	68.3
-0.0091	-0.1553	0.0105	0.0975	68.1
-0.0091	-0.1433	0.0127	-0.0158	68.4
-0.0105	-0.0188	0.0127	-0.078	68.3
-0.012	0.0045	0.0187	-0.1448	68.3
-0.0113	-0.0578	0.021	-0.306	68.3
-0.0105	0.0007	0.0157	-0.3308	68.5
-0.0083	0.108	0.0075	-0.1913	68.5
-0.0046	0.1672	0.0045	-0.2011	68.6
-0.0046	0.2182	0.0007	-0.2303	68.6
-0.0068	0.1395	-0.0015	-0.1598	68.6
-0.0038	0.081	-0.003	-0.0773	68.8
-0.0038	0.0742	-0.0068	0.0202	68.7
-0.003	-0.0765	-0.0143	0.078	68.7
-0.003	-0.1703	-0.0173	0.1215	68.8
-0.0068	-0.1365	-0.0113	0.1192	68.8
-0.0075	-0.0503	-0.0046	0.06	69.1
-0.0105	0.027	0.0045	0.015	68.9
-0.015	0.0615	0.0067	0.0772	69.1
-0.0165	0.0637	0.0045	0.1237	69.1
-0.0143	0.0577	0.0007	0.0862	69
-0.0143	0.1215	0.0022	0.039	69.3
-0.0181	0.1012	0.0105	-0.0495	69.2
-0.0188	-0.0105	0.0127	0.0352	69.2
-0.0128	-0.1058	0.006	0.1725	69.3
-0.0105	-0.1665	-0.0023	0.1695	69.3
-0.0075	-0.126	-0.0046	0.1245	69.4
-0.0068	-0.0856	-0.0015	0.0225	69.3
-0.0083	-0.0713	0.0022	-0.048	69.5
-0.0053	-0.0293	0	-0.135	69.4
0.0007	0.0292	-0.0075	-0.2003	69.5
0.0037	0.0585	-0.0105	-0.2498	69.4
0.0022	0.0555	-0.0105	-0.2895	69.7
-0.0023	0.0472	-0.0091	-0.1935	69.6
-0.0023	0.0322	-0.0091	-0.0518	69.7
0	0.057	-0.0068	0.0405	69.8
-0.0023	0.0765	-0.0083	0.039	69.8
-0.003	0.042	-0.015	0.0555	69.9
-0.0008	0.0195	-0.0181	0.0742	70
0	0.0367	-0.0165	0.054	69.8
-0.0008	0.0292	-0.0158	0.054	69.9
-0.0046	0.0105	-0.0113	0.0592	70.1
-0.0091	0.0082	-0.0075	0.0802	70.2
-0.0105	-0.0046	-0.0075	0.0862	70
-0.0105	-0.0293	-0.012	0.0847	70.2
-0.0128	-0.0293	-0.0083	0.078	70.2
-0.0113	-0.024	-0.0046	0.042	70.5
-0.0098	-0.0323	-0.0046	0.0015	70.2
-0.0053	-0.0346	-0.0015	0.0097	70.4
-0.0046	-0.0473	0	0.0142	70.4
-0.0098	-0.0488	0.006	-0.0098	70.5
-0.0135	-0.0533	0.012	-0.045	70.4
-0.0128	-0.054	0.012	-0.0743	70.4
-0.012	-0.03	0.0112	-0.0143	70.6
-0.012	-0.0278	0.0127	0.0247	70.7
-0.0083	-0.0068	0.009	0.0202	70.8
-0.0068	0.0472	0.0052	0.0157	70.6
-0.0068	0.0742	0.0037	-0.0315	70.8
-0.0068	0.078	0.003	-0.0443	70.8
-0.0046	0.093	0.0022	-0.0256	70.8
-0.0053	0.075	0.0007	0.042	70.8
-0.003	-0.0091	-0.0015	0.12	70.9
-0.003	-0.0443	-0.003	0.1297	71
-0.0023	-0.0511	-0.0038	0.1297	71
0.003	-0.0465	-0.0068	0.0915	71.1
0.0045	0.0427	-0.0075	0.075	71
0.0045	0.0082	-0.0046	0.0375	71.1
0.0045	-0.1553	0.0007	-0.0923	71.1
-0.0008	-0.2026	0.009	-0.2288	71
-0.0068	-0.1538	0.0135	-0.2685	71.2
-0.0075	-0.1043	0.0165	-0.1523	71.2
-0.0091	-0.0578	0.0202	-0.0218	71.3
-0.0068	0.0337	0.018	0.0412	71.3
-0.0046	0.1162	0.0135	0.0105	71.4
-0.0046	0.1612	0.012	-0.0593	71.5
-0.0105	0.2077	0.0142	-0.1178	71.4
-0.0158	0.1785	0.0135	-0.1463	71.6
-0.015	0.1365	0.0112	-0.09	71.4
-0.0165	0.105	0.0105	0.0097	71.6
-0.0165	0.0157	0.0075	0.0952	71.5
-0.0128	-0.0405	0.0052	0.1155	71.7
-0.0091	-0.0938	0.0082	0.1567	71.8
-0.012	-0.15	0.0165	0.174	71.7
-0.0181	-0.1815	0.0255	0.1327	72
-0.0173	-0.1575	0.027	0.1095	71.9
-0.0158	-0.0638	0.0202	0.06	72
-0.0068	-0.0728	0.0127	0.0277	71.9
-0.0015	-0.021	0.0105	-0.0878	72
-0.0015	0.156	0.0067	-0.2018	72
-0.003	0.141	0.0045	-0.1478	72
-0.0068	0.0532	0.0067	-0.1711	72.2
-0.0068	0.0727	0.009	-0.2505	72
-0.0105	0.0682	0.0127	-0.1965	72.1
-0.0098	0.021	0.0142	-0.0383	72.1
-0.0046	-0.0585	0.009	0.066	72.3
-0.003	-0.1103	0.0045	0.063	72.3
-0.0053	-0.1058	-0.0008	0.0892	72.3
-0.0075	-0.1073	-0.0053	0.045	72.3
-0.0083	-0.0458	-0.0075	-0.0075	72.3
-0.0075	0.042	-0.0068	0.0052	72.4
-0.0023	0.075	-0.0105	0.0592	72.3
-0.0038	0.0892	-0.0128	0.1702	72.5
-0.0098	0.1387	-0.0128	0.144	72.4
-0.0143	0.177	-0.0075	0.0412	72.5
-0.0113	0.0945	-0.0046	0.0052	72.6
-0.0075	0.0315	-0.0053	0.0315	72.6
-0.006	0.0465	-0.0038	0.0675	72.7
-0.0008	-0.0225	-0.0046	0.0802	72.7
0.0022	-0.108	-0.0053	0.0105	72.7
-0.0068	-0.0518	-0.0015	-0.2063	72.7
-0.0105	0.0352	-0.0008	-0.2648	72.7
-0.0053	0.0315	0.0015	-0.096	72.8
-0.0075	-0.0105	0.0015	-0.0091	72.8
-0.0098	-0.0188	-0.003	-0.0428	72.9
-0.006	-0.0218	-0.0053	-0.0368	72.8
-0.0046	-0.0893	-0.0083	0.0187	73
-0.0053	-0.1103	-0.0158	0.0405	72.8
-0.0053	-0.0893	-0.0173	0.0757	73.1
-0.0068	-0.0998	-0.0203	0.1147	72.9
-0.006	-0.0668	-0.0203	0.1117	73.1
-0.0083	-0.0548	-0.0195	0.111	73.1
-0.0053	-0.0428	-0.0203	0.09	73.2
-0.003	0.033	-0.0173	0.057	73.2
-0.0053	0.093	-0.0128	0.0097	73.1
-0.0053	0.1237	-0.0105	-0.075	73.3
-0.0053	0.12	-0.0105	-0.1343	73.3
-0.0068	0.0585	-0.0105	-0.1103	73.3
-0.0068	0.0015	-0.0143	-0.0638	73.4
-0.0098	0.0015	-0.0135	-0.0233	73.3
-0.0083	-0.0083	-0.0113	0.0157	73.5
-0.0075	-0.0225	-0.012	0.0112	73.4
-0.0091	-0.006	-0.0113	0.003	73.8
-0.0068	-0.003	-0.0135	-0.0181	73.4
-0.0053	-0.0315	-0.015	-0.0195	73.8
-0.0046	-0.0436	-0.0128	-0.003	73.7
-0.0038	-0.0315	-0.0105	0.003	73.7
-0.006	-0.0315	-0.0098	0.0142	73.7
-0.0075	-0.0023	-0.0091	0.006	73.8
-0.0068	0.0052	-0.0083	0.0127	73.9
-0.0053	-0.0091	-0.0068	0.0112	73.7
-0.0075	0.0157	-0.0053	0.0022	74
-0.0075	0.0082	-0.0008	0.0105	74
-0.0105	0.0015	0.0022	0.0217	74
-0.0128	-0.0181	0.0015	0.042	74.2
-0.0158	-0.0645	0.0015	0.054	74.2
-0.0143	-0.1013	0.0007	0.078	74.3
-0.0091	-0.1575	0.0037	0.0975	74.3
-0.0083	-0.1613	0.0082	0.0817	74.4
-0.0091	-0.0458	0.012	0.0787	74.3
-0.0091	0.0307	0.0157	0.1252	74.3
-0.0083	0.0157	0.0232	0.108	74.4
-0.0091	0.0735	0.03	-0.033	74.4
-0.0083	0.183	0.0307	-0.1215	74.5
-0.0068	0.189	0.027	-0.1478	74.5
-0.0113	0.1627	0.0285	-0.2828	74.4
-0.0098	0.1837	0.0307	-0.318	74.6
-0.0105	0.0915	0.0292	-0.1418	74.6
-0.0105	-0.0256	0.0292	-0.1118	74.7
-0.0083	-0.0233	0.0277	-0.156	74.5
-0.0083	0.0037	0.0255	-0.0908	74.9
-0.0083	0.0217	0.0225	-0.0308	74.7
-0.0083	-0.0068	0.0225	0.0307	75
-0.0113	-0.045	0.0217	0.054	74.7
-0.012	-0.0548	0.0195	0.0637	75.1
-0.0135	-0.0233	0.018	0.0952	74.9
-0.0143	-0.0158	0.0165	0.102	75
-0.0158	-0.0743	0.0157	0.1117	75.1
-0.0143	-0.0923	0.0157	0.1462	75.1
-0.0105	-0.1095	0.0157	0.177	75.1
-0.0075	-0.1538	0.0165	0.162	75.2
-0.0015	-0.1711	0.0157	0.12	75.1
0.0007	-0.108	0.0142	0.0945	75.2
-0.0015	-0.0533	0.018	0.0937	75.3
-0.003	-0.0068	0.0225	0.0142	75.2
-0.0098	0.1552	0.0202	-0.1928	75.1
-0.0135	0.273	0.0157	-0.3428	75.3
-0.0143	0.2385	0.009	-0.2821	75.1
-0.0181	0.1312	0.0067	-0.156	75.5
-0.0195	0.1117	0.0045	-0.0653	75.4
-0.0203	0.1087	0.0015	0.0532	75.6
-0.0181	0.0637	-0.0008	0.1222	75.6
-0.0105	0.0352	-0.0046	0.1365	75.6
-0.0053	-0.0083	-0.0068	0.0975	75.6
-0.0023	-0.0263	-0.0098	0.0082	75.6
0.003	-0.156	-0.0075	-0.0015	75.7
-0.0015	-0.2213	-0.0068	-0.0263	75.6
-0.0038	-0.123	-0.0098	-0.0863	75.6
-0.0015	-0.09	-0.0105	-0.0608	75.7
-0.0038	-0.0871	-0.0098	-0.0263	75.7
-0.0046	-0.0473	-0.0105	-0.0323	75.7
-0.0083	0.006	-0.012	-0.0518	75.6
-0.0068	0.0277	-0.0113	-0.0165	75.9
-0.0068	0.0382	-0.0091	-0.0128	75.8
-0.0105	0.042	-0.0083	-0.0608	75.8
-0.0091	0.0727	-0.0143	-0.0143	76
-0.0068	0.0705	-0.0195	0.0457	76
-0.003	0.0045	-0.0233	0.0585	76
-0.0046	0.0112	-0.024	0.0697	75.8
-0.0083	-0.024	-0.021	0.0705	76.2
-0.0075	-0.093	-0.0195	0.081	76.2
-0.0083	-0.0691	-0.0233	0.1192	76
-0.0091	-0.0518	-0.0233	0.1792	76.2
-0.0091	-0.0608	-0.0256	0.1747	76.1
-0.0083	-0.1178	-0.021	0.0952	76.3
-0.003	-0.225	-0.0091	0.093	76.1
0.006	-0.1875	-0.0053	0.087	76.4
0.0037	0.027	-0.0008	0.0472	76.2
-0.003	0.2152	-0.003	-0.045	76.4
-0.0023	0.2557	-0.0091	-0.1125	76.3
-0.0015	0.1575	-0.0113	-0.15	76.3
-0.003	0.141	-0.012	-0.3368	76.2
-0.0053	0.1327	-0.0143	-0.3915	76.3
-0.0068	0.0255	-0.0165	-0.237	76.6
-0.0068	0.0345	-0.0181	-0.0578	76.4
-0.0068	0.0202	-0.0181	0.0352	76.6
-0.0068	-0.0105	-0.0195	0.0615	76.6
-0.0053	0.009	-0.0188	0.0435	76.6
-0.003	0.0075	-0.0188	0.0165	76.6
-0.003	0.0517	-0.0181	0.0412	76.7
-0.0053	0.0292	-0.0195	0.0727	76.7
-0.0046	-0.0315	-0.0158	0.0577	76.6
-0.0015	-0.0158	-0.0105	0.0037	76.8
-0.0015	-0.0173	-0.0091	-0.006	76.6
-0.0038	-0.0706	-0.0068	-0.0315	76.9
-0.0098	-0.045	-0.0053	-0.0405	76.9
-0.0135	0.0217	-0.0046	0.0135	76.8
-0.0143	-0.0293	-0.0038	0.0615	77.1
-0.0091	-0.0578	-0.0008	0.0607	77
-0.0053	-0.0008	0.0022	0.072	77.2
-0.0038	-0.0346	0.003	0.1417	76.9
-0.003	-0.0788	0.0082	0.1057	77.1
-0.0083	-0.057	0.0142	-0.1253	76.9
-0.0098	-0.0315	0.0157	-0.237	77.1
-0.0113	-0.0256	0.0112	-0.1381	77.2
-0.0091	-0.0233	0.0052	-0.0593	77.2
-0.0068	0.0045	0.0045	0.0202	77.3
-0.0083	0.0097	0.0052	0.0262	77.3
-0.0091	0.0172	0.0052	0.0337	77.4
-0.0105	0.0202	0.006	0.0442	77.3
-0.0068	0.0127	0.0082	0.0285	77.3
-0.0068	0.018	0.012	0.042	77.6
-0.0105	0.0157	0.0157	0.0255	77.4
-0.0128	0.0142	0.0165	0.027	77.5
-0.0128	-0.0083	0.0202	0.003	77.4
-0.0135	-0.0195	0.0225	-0.006	77.7
-0.0181	-0.0158	0.0202	0.0045	77.4
-0.0158	-0.0248	0.0172	0.03	77.5
-0.015	-0.0225	0.021	0.06	77.6
-0.0158	-0.0091	0.0247	0.0712	77.7
-0.0165	-0.0083	0.027	0.072	77.7
-0.012	-0.0256	0.0292	0.0555	77.8
-0.0083	0.0217	0.0262	0.0645	77.7
-0.0075	0.105	0.0262	0.0562	77.7
-0.0053	0.0817	0.027	-0.027	77.7
-0.0068	0.0307	0.0232	-0.1343	77.7
-0.0068	-0.024	0.018	-0.1448	77.7
-0.006	-0.0818	0.0135	-0.0803	78
-0.0068	-0.0593	0.012	-0.0203	77.8
-0.0053	-0.0728	0.0142	0.0277	78.1
-0.0046	-0.0578	0.0157	0.0292	77.8
-0.0068	0.03	0.0157	0.018	78
-0.0068	0.0442	0.0165	0.0052	77.8
-0.006	0.078	0.0172	-0.0248	78.1
-0.0068	0.1275	0.0127	-0.0525	78
-0.0068	0.078	0.0112	-0.0346	78.1
-0.0068	0.0217	0.012	0.0127	78
-0.006	0.039	0.0082	0.039	78.2
-0.006	0.054	0.009	0.039	78.3
-0.012	0.0367	0.012	-0.0023	78.1
-0.0158	-0.0008	0.0172	-0.0608	78.3
-0.0195	-0.0315	0.0202	-0.0608	78.3
-0.0218	-0.054	0.0195	-0.0285	78.3
-0.0218	-0.1103	0.0157	-0.0368	78.5
-0.0233	-0.1275	0.015	-0.0353	78.3
-0.021	-0.1058	0.012	0.0367	78.6
-0.0173	-0.0615	0.0015	0.1395	78.3
-0.0098	-0.0181	0.0007	0.168	78.5
0	-0.0188	0	0.1402	78.6
-0.0015	0.0285	0.0015	0.0967	78.6
-0.0091	0.075	0.006	-0.0098	78.6
-0.0075	0.0495	0.0052	-0.09	78.8
0.0022	-0.0128	0	-0.0465	78.8
0.006	0.0172	-0.0075	-0.0233	78.6
0.003	0.0772	-0.0091	-0.0608	78.6
0.003	-0.0706	-0.0083	-0.123	78.7
0.0007	-0.09	-0.0053	-0.2978	78.6
-0.0053	0.0757	-0.0068	-0.3128	78.9
-0.0068	0.0862	-0.0075	-0.1463	78.6
-0.0053	0.0652	-0.0068	-0.1006	79
-0.0015	0.0045	-0.0105	-0.0503	78.8
0.0007	-0.0346	-0.0158	0.0007	79.1
-0.0023	0.0202	-0.0181	0.0495	79
-0.0038	0.0142	-0.0195	0.09	79.1
-0.0053	-0.0143	-0.0203	0.0502	79.2
-0.0068	-0.0533	-0.0181	0.0517	79.2
-0.0091	-0.0518	-0.0181	0.051	79.1
-0.0128	-0.0135	-0.021	0.0622	79.1
-0.0158	-0.0091	-0.0173	0.1005	79.2
-0.0195	0.0442	-0.0091	0.1477	79.4
-0.0218	0.0427	-0.0038	0.1417	79.3
-0.0158	-0.063	-0.003	0.06	79.4
-0.0105	-0.1118	-0.0068	0.0915	79.2
-0.012	-0.1163	-0.0091	0.1642	79.4
-0.0105	-0.1598	-0.0105	0.105	79.3
-0.0105	-0.1718	-0.0158	-0.039	79.6
-0.0046	-0.0795	-0.0195	-0.1095	79.4
0.0015	0.0292	-0.0233	0.0435	79.6
0.003	0.2175	-0.027	0.1072	79.5
0.003	0.351	-0.0256	0.0045	79.5
-0.0008	0.2445	-0.0263	-0.1426	79.5
-0.0015	0.1447	-0.0233	-0.2783	79.4
0.0007	0.0472	-0.0203	-0.1411	79.7
0	-0.0495	-0.0218	-0.03	79.6
-0.0046	-0.0488	-0.0203	-0.096	79.7
-0.0015	-0.048	-0.0188	-0.0233	79.7
-0.0015	-0.0465	-0.0195	0.0585	79.8
-0.006	-0.0218	-0.0181	0.0367	80
-0.0046	-0.0188	-0.0158	0.003	79.8
-0.0053	-0.0315	-0.0165	-0.063	80
-0.0023	0.0127	-0.0188	-0.0518	79.8
-0.0008	0.0577	-0.0218	-0.0293	80
0.0007	0.039	-0.0233	0.0045	80.1
0.0007	-0.0008	-0.021	0.0697	80
-0.0038	-0.0233	-0.0195	0.0142	80.1
-0.0038	-0.0375	-0.0195	-0.0015	80.1
-0.0053	-0.0585	-0.0195	0.0292	80.2
-0.006	-0.0555	-0.0181	0.0532	80.1
-0.0053	-0.0256	-0.0158	0.0682	80.3
-0.0068	0.0067	-0.0128	0.0555	80.3
-0.0083	0.003	-0.0091	0.0487	80.2
-0.0083	-0.0173	-0.0038	0.033	80.5
-0.012	-0.015	0.0045	0.0195	80.4
-0.0181	-0.0083	0.012	-0.039	80.5
-0.0195	0.0007	0.0127	-0.1035	80.5
-0.0195	0.0097	0.0097	-0.1028	80.5
-0.0195	0.0007	0.0105	-0.0443	80.6
-0.021	0.015	0.012	-0.0105	80.6
-0.0195	0.0352	0.012	0.009	80.6
-0.0181	0.0052	0.0142	0.0405	80.6
-0.0181	0.003	0.018	0.054	80.8
-0.015	-0.0091	0.0217	0.087	80.7
-0.0098	-0.1485	0.027	0.0975	80.7
-0.0068	-0.219	0.0315	0.0757	81
-0.0046	-0.1148	0.0352	0.0607	81
0.0007	-0.0458	0.0367	0.0862	80.9
0.0015	-0.0323	0.0405	0.0937	80.9
0	0.012	0.0465	-0.0653	80.9
0.003	0.1267	0.051	-0.2558	80.9
0.0015	0.2332	0.0457	-0.2543	81
0.0015	0.1567	0.0405	-0.1568	81
0.0007	0.0757	0.0382	-0.0721	81.1
-0.0008	0.0735	0.0375	-0.0053	81
-0.003	0.0352	0.0367	0.021	81.2
-0.003	0.0352	0.0352	0.0142	81.2
-0.003	0.0127	0.0352	0.0217	81.2
-0.006	-0.0278	0.039	0.036	81.3
-0.0098	-0.063	0.045	0.0457	81.1
-0.0135	-0.1043	0.0435	0.018	81.4
-0.0165	-0.0578	0.0367	-0.0473	81.4
-0.0181	0.0165	0.0285	-0.0653	81.4
-0.0195	0.033	0.0187	-0.012	81.4
-0.0181	-0.012	0.0105	0.0615	81.4
-0.0203	-0.0473	0.0045	0.1057	81.5
-0.0188	-0.0691	0.003	0.1147	81.5
-0.0075	-0.153	0.0052	0.114	81.5
0.0007	-0.1988	0.0015	0.1387	81.8
-0.0008	-0.0893	-0.003	0.1545	81.7
-0.0038	0.0105	-0.003	0.1477	81.8
-0.0083	0.0157	-0.0015	-0.0338	81.5
-0.0158	0.114	-0.0038	-0.2843	81.6
-0.0128	0.1762	-0.0091	-0.2093	81.6
-0.0105	0.0915	-0.0143	0.0007	81.6
-0.0091	0.0907	-0.015	0.027	81.7
-0.0075	0.093	-0.0165	-0.0128	81.8
-0.0083	0.0427	-0.0158	-0.039	81.8
-0.0105	0.0172	-0.0135	-0.0743	81.7
-0.0128	0.0097	-0.0135	-0.1148	81.8
-0.0105	0.039	-0.0128	-0.114	81.9
-0.0105	0.0412	-0.0113	-0.06	82
-0.0105	0.018	-0.0128	-0.0105	81.8
-0.0068	-0.0046	-0.0165	0.0142	82
-0.0038	-0.0135	-0.0165	-0.0068	81.9
-0.003	-0.012	-0.0181	-0.0278	82
-0.003	-0.0233	-0.0181	-0.0181	82
-0.006	-0.0338	-0.0135	-0.0083	82.2
-0.0091	-0.0375	-0.0091	-0.0128	82.2
-0.0105	-0.0195	-0.0053	-0.0098	82.3
-0.0135	0.006	-0.0038	0.009	82.2
-0.0165	0.0307	-0.0046	0.0262	82.3
-0.0181	0.0262	-0.0053	0.054	82.1
-0.0181	-0.0195	-0.0098	0.123	82.3
-0.0165	-0.0585	-0.0165	0.1732	82.3
-0.0105	-0.1043	-0.0218	0.156	82.3
0.0015	-0.147	-0.024	0.1537	82.3
0.0007	-0.1223	-0.0233	0.1027	82.5
-0.0046	-0.012	-0.0181	-0.0195	82.4
-0.0068	0.078	-0.012	-0.0533	82.3
-0.012	0.0052	-0.0091	-0.0968	82.6
-0.0158	-0.0495	-0.0091	-0.2363	82.4
-0.0158	-0.0046	-0.0128	-0.195	82.7
-0.0165	0.0217	-0.0158	-0.0458	82.4
-0.015	0.0675	-0.0158	-0.0368	82.8
-0.0165	0.0652	-0.0128	-0.0458	82.6
-0.021	0.0382	-0.0068	-0.0495	82.8
-0.0203	0.027	-0.0053	-0.0218	82.7
-0.0143	0.0075	-0.0068	0.0165	82.9
-0.015	0.018	-0.0083	0.021	82.9
-0.0135	0.0202	-0.0105	0.0382	82.8
-0.0091	0.0217	-0.0105	0.045	82.9
-0.0091	-0.0053	-0.0083	0.0502	82.8
-0.0098	-0.0518	-0.0068	0.024	82.9
-0.0091	-0.0398	-0.0038	-0.0143	83.1
-0.0075	-0.015	-0.0053	-0.0068	83.1
-0.003	-0.0503	-0.0053	-0.0181	83
-0.003	-0.0803	-0.0038	-0.054	83.2
-0.0038	-0.0346	-0.0053	-0.0158	83
-0.003	-0.0233	-0.0053	0.0487	83.3
-0.0038	-0.0443	-0.0038	0.0757	83.1
-0.006	-0.0165	0	0.0757	83.3
0	-0.0338	0.0052	0.078	83.2
0.0097	0	0.0045	0.0945	83.4
0.0142	0.0547	0.0067	0.1425	83.3
0.012	0.0022	0.0105	0.1867	83.4
0.0037	0.0645	0.0082	-0.0143	83.5
0.003	0.1957	0.0082	-0.1756	83.4
-0.0008	0.222	0.0082	-0.0856	83.4
0	0.1687	0.0067	-0.0615	83.5
0.003	0.1215	0.012	-0.024	83.4
0.003	0.0772	0.0165	-0.0915	83.6
0.0052	-0.0015	0.0165	-0.186	83.4
0.0037	-0.0788	0.0202	-0.1155	83.4
-0.0008	-0.1335	0.024	-0.0743	83.7
-0.0068	-0.0938	0.021	-0.0645	83.7
-0.0075	-0.057	0.0172	-0.0668	83.8
-0.0053	-0.0436	0.0157	-0.0256	83.8
-0.0083	-0.033	0.0165	0.0187	83.8
-0.0083	-0.0533	0.0202	0.0225	83.8
-0.012	-0.0383	0.0247	0.0255	83.9
-0.0158	-0.0338	0.024	0.0277	83.8
-0.0128	-0.0383	0.0202	0.0255	83.9
-0.0135	-0.033	0.018	0.0217	83.9
-0.0158	-0.03	0.0157	0.0225	84
-0.0165	-0.0218	0.0157	0.0127	84.1
-0.0165	0.0045	0.0157	0.006	84.1
-0.0173	0.0442	0.0165	0.0165	84
-0.0181	0.0742	0.012	0.0577	84.1
-0.0173	0.0825	0.0082	0.081	84.1
-0.0143	-0.0015	0.0052	0.0877	84.1
-0.0128	-0.075	0.0015	0.0682	84.1
-0.0128	-0.0248	0.0007	0.042	84.2
-0.0143	-0.0188	0.0015	0.0592	84.3
-0.0143	-0.0998	0.003	0.0105	84.3
-0.0083	-0.123	-0.0015	-0.0803	84.3
-0.0008	-0.0615	-0.0068	-0.0503	84.1
0.0022	-0.003	-0.0075	0.0292	84.3
0.0007	-0.0181	-0.003	0.039	84.4
-0.003	-0.0653	0.0007	-0.0383	84.2
-0.0083	0.0157	-0.0008	-0.1485	84.3
-0.0105	0.126	-0.0053	-0.126	84.2
-0.0105	0.0997	-0.0083	-0.0488	84.2
-0.0098	0.0975	-0.012	-0.0188	84.6
-0.0098	0.102	-0.0128	-0.0098	84.3
-0.0091	0.0697	-0.0135	-0.0308	84.6
-0.0091	0.0382	-0.0143	-0.0195	84.4
-0.0135	0.0075	-0.012	0.0082	84.6
-0.012	0.0037	-0.0105	0.018	84.4
-0.012	-0.0105	-0.012	0.0217	84.6
-0.0143	-0.0128	-0.0128	0.018	84.5
-0.0135	-0.012	-0.0105	0.0082	84.6
-0.0158	-0.012	-0.0053	-0.0008	84.6
-0.0173	-0.0015	-0.0015	-0.0008	84.6
-0.0158	-0.0046	-0.003	-0.006	84.6
-0.0143	-0.033	-0.0046	-0.0038	84.7
-0.0113	-0.0668	-0.0053	0.027	84.7
-0.0135	-0.0675	-0.0053	0.0652	84.7
-0.0143	-0.078	-0.0075	0.084	84.9
-0.0113	-0.0555	-0.0083	0.093	84.6
-0.0008	-0.003	-0.0068	0.0967	85
0.009	-0.0256	-0.0015	0.1237	84.8
0.0052	-0.0135	0.0045	0.1072	85
0.0082	0.0292	0.0067	-0.021	84.8
0.0105	0.0097	0.0067	-0.0968	85
0.0067	0.0187	0.0045	-0.1028	84.9
0.0037	0.0307	0.0037	-0.1538	85
-0.0008	0.0352	0.003	-0.1118	84.9
-0.0008	0.0532	0.006	-0.0743	85.1
-0.0023	0.0802	0.0097	-0.1373	84.9
-0.0046	0.09	0.0112	-0.0885	85
-0.0053	0.021	0.012	-0.03	85
-0.0053	-0.0098	0.012	-0.0428	85.1
-0.0053	0.0045	0.0105	-0.0158	85.2
-0.0068	-0.024	0.0067	0.0135	84.9
-0.003	-0.042	0.0052	0.0315	85.2
-0.0015	-0.0346	0.0037	0.0277	85.1
-0.0015	-0.0188	0.003	0.0232	85.4
-0.0015	-0.012	0.0045	0.0157	85
-0.003	-0.027	0.0037	-0.0053	85.2
-0.0046	-0.0473	0.0037	0.003	85
-0.0053	-0.0443	0.003	0.009	85.5
-0.0053	-0.0593	0.0022	0.0195	85.2
-0.0053	-0.0668	0.0007	0.063	85.5
-0.0053	-0.0135	-0.0008	0.1447	85.2
-0.006	-0.012	0.0007	0.1882	85.5
-0.003	-0.0218	0.0067	0.129	85.4
0.0007	0.0082	0.0082	0.0765	85.4
0.0052	0.0577	0.0082	0.0952	85.5
0.0052	0.1005	0.009	0.081	85.2
0.003	0.117	0.0075	-0.0135	85.5
0.0015	0.0862	0.0082	-0.1103	85.2
-0.0038	0.0172	0.009	-0.2115	85.6
-0.0075	0.0277	0.0082	-0.2678	85.2
-0.0046	0.0195	0.0052	-0.2333	85.5
-0.0008	0.0225	0	-0.135	85.5
-0.0008	0.0577	-0.006	-0.0443	85.5
-0.0008	0.0067	-0.0068	0.033	85.2
-0.003	-0.0615	-0.0015	0.084	85.6
-0.0068	-0.0953	0.0015	0.0202	85.3
-0.0105	-0.0405	0.003	-0.0113	85.6
-0.0135	0.0127	0.0007	0.0007	85.5
-0.0143	0.018	-0.0038	-0.0225	85.5
-0.0143	0.0127	-0.0038	-0.0263	85.5
-0.0158	-0.0143	-0.0053	-0.033	85.5
-0.0173	-0.033	-0.0098	0.009	85.5
-0.0165	-0.0668	-0.0158	0.06	85.5
-0.0173	-0.0983	-0.0165	0.072	85.6
-0.015	-0.1275	-0.0143	0.1005	85.5
-0.0091	-0.1125	-0.015	0.1207	85.7
-0.0053	-0.0353	-0.015	0.126	85.6
-0.0023	0.0502	-0.0113	0.156	85.9
0.0037	0.1035	-0.0023	0.1402	85.7
0.0097	0.0937	-0.0023	0.018	85.9
0.0082	0.102	-0.0068	-0.1125	85.5
0.0015	0.0555	-0.0098	-0.1021	85.8
-0.0008	0.0202	-0.0143	-0.0458	85.7
-0.0046	0.012	-0.0105	-0.1043	85.9
-0.0075	-0.0188	-0.0075	-0.1403	85.6
-0.0083	0.0172	-0.006	-0.0803	85.8
-0.0105	-0.0053	0	-0.0375	85.8
-0.015	-0.0091	0.0045	-0.0548	85.7
-0.0173	0.0045	0.003	-0.0443	85.9
-0.0143	-0.0105	0.0007	-0.0218	85.8
-0.0143	-0.0008	0.0007	-0.0173	86
-0.0135	-0.0158	-0.0008	-0.0091	85.7
-0.0113	-0.0165	-0.003	-0.0046	85.9
-0.012	-0.027	-0.0015	0.0067	85.7
-0.0128	-0.0218	-0.003	0.003	86.1
-0.0128	-0.0091	-0.003	0.0052	85.8
-0.0128	0.0022	-0.0038	-0.0038	86.1
-0.0128	0.015	-0.0098	-0.0083	85.8
-0.0128	-0.0143	-0.012	0.0315	86.2
-0.0128	-0.0443	-0.0105	0.0667	85.7
-0.0038	-0.099	-0.0098	0.057	85.9
0.0052	-0.09	-0.0128	0.0652	86
0.0022	0.0045	-0.0158	0.1087	86.1
0.0007	0.063	-0.0158	0.1102	86.1
0.0037	0.1102	-0.0165	0.1027	86.1
0.0015	0.1162	-0.0128	0.0195	86
-0.003	0.075	-0.0091	-0.1148	85.9
-0.0038	0.0112	-0.0038	-0.0878	86.1
-0.0015	-0.0368	0.003	-0.0173	86.1
-0.0053	0.0172	0.0052	-0.0203	86.1
-0.0098	0.0697	0.0105	-0.0248	86.1
-0.012	0.0697	0.0157	-0.0413	86.3
-0.0128	0.0292	0.0232	-0.0683	86.3
-0.0143	-0.0413	0.0225	-0.0825	86.3
-0.0143	-0.0713	0.0172	-0.0743	86
-0.0165	-0.0675	0.0142	-0.084	86.3
-0.0173	-0.0533	0.0157	-0.12	86.3
-0.0165	-0.0706	0.0172	-0.0585	86.3
-0.0165	-0.0968	0.015	0.0255	86.3
-0.0173	-0.0818	0.0157	0.0082	86.1
-0.0188	-0.0675	0.0165	0.0315	86.3
-0.0128	-0.0608	0.0217	0.0465	86.3
-0.0083	-0.006	0.018	0.0487	86.3
-0.0113	0.0742	0.015	0.0675	86.3
-0.0128	0.0855	0.018	-0.0135	86.3
-0.0128	0.063	0.0172	-0.0675	86.3
-0.0105	0.0502	0.0142	-0.0465	86.4
-0.0053	0.0052	0.0097	-0.0338	86.2
-0.0015	-0.0473	0.0127	-0.003	86.6
-0.0038	-0.0533	0.0195	0.0652	86.3
-0.006	-0.0675	0.0217	0.1365	86.6
-0.0053	-0.0503	0.0217	0.1612	86.3
-0.0083	-0.0203	0.0195	0.1635	86.4
-0.0105	0.0142	0.0172	0.1485	86.5
-0.0083	0.153	0.0142	0.0427	86.5
-0.006	0.219	0.0127	-0.0908	86.5
-0.0068	0.1702	0.0082	-0.1538	86.4
-0.0075	0.0697	0.0052	-0.1275	86.5
-0.0083	0.0075	0.0022	-0.0495	86.5
-0.0091	0.018	-0.0008	-0.0165	86.4
-0.0083	-0.0405	-0.003	-0.015	86.6
-0.0091	-0.0653	-0.0046	-0.0443	86.7
-0.0128	-0.0803	-0.006	-0.0765	86.4
-0.0165	-0.1215	-0.0105	-0.0555	86.5
-0.021	-0.1268	-0.0113	0.0277	86.3
-0.0278	-0.0623	-0.0068	0.1312	86.6
-0.0278	0.0202	0.0045	0.144	86.5
-0.0091	-0.0008	0.0105	0.1027	86.8
0.0015	0.0217	0.0082	0.135	86.7
0.0015	0.0877	0.0052	0.2145	86.6
0.003	0.0285	0.0052	0.1275	86.6
0.0022	-0.0083	0.0022	-0.1726	86.3
-0.0008	0.0592	-0.0046	-0.3353	86.3
-0.0023	0.0142	-0.0083	-0.2453	86.1
-0.0023	-0.0233	-0.015	-0.1726	86.3
-0.0038	0.0052	-0.0195	-0.0436	86.3
-0.0046	-0.0218	-0.015	0.0142	86.4
-0.0046	0.0022	-0.0158	-0.0008	86.2
-0.0046	0.0165	-0.0203	0.027	86.4
-0.0046	0.015	-0.0218	0.003	86.3
-0.0053	0.0067	-0.0225	0.0105	86.6
-0.0053	0	-0.024	-0.0173	86.3
-0.0083	0	-0.0256	-0.0195	86.5
-0.0113	-0.0173	-0.0233	-0.0203	86.3
-0.0098	-0.0046	-0.0188	-0.027	86.3
-0.0128	-0.006	-0.0165	-0.0158	86.3
-0.015	0.003	-0.0128	-0.0195	86.3
-0.0143	0.0142	-0.0128	-0.006	86.5
-0.012	0.024	-0.0158	0.0045	86.5
-0.012	0.033	-0.0158	0.0292	86.5
-0.015	0.0142	-0.0165	0.0472	86.5
-0.015	-0.0248	-0.0181	0.0442	86.5
-0.0098	-0.0803	-0.0203	0.0217	86.5
-0.0068	-0.0555	-0.0218	0.0457	86.6
-0.006	-0.0645	-0.0181	0.0952	86.4
-0.0053	-0.1538	-0.0143	0.0442	86.4
-0.0075	-0.1028	-0.012	-0.0548	86.4
-0.0053	-0.024	-0.0083	-0.0218	86.6
0	-0.0368	-0.0053	0.0292	86.4
0	-0.0083	-0.0008	0.0247	86.7
0.0007	0.0352	0.0015	0.0405	86.6
-0.0008	0.0667	0.0007	-0.0165	86.6
-0.0023	0.099	0	-0.042	86.6
-0.0008	0.0742	-0.0015	-0.039	86.6
-0.0008	0.0375	-0.0038	-0.0713	86.6
-0.0023	0.0405	-0.0008	-0.06	86.6
-0.0008	0.0307	0.0015	-0.0158	86.6
-0.0046	0.0082	0.0045	0.0022	86.7
-0.0083	0.0045	0.0097	-0.0068	86.6
-0.0098	-0.027	0.0127	0.003	86.8
-0.0083	-0.0728	0.0135	0.003	86.6
-0.0053	-0.0825	0.0165	0.0082	86.7
-0.0091	-0.0443	0.021	0.024	86.7
-0.012	-0.012	0.0255	0.027	86.7
-0.0091	0.006	0.027	0.0397	86.8
-0.0113	0.0367	0.0292	0.0435	86.7
-0.0165	0.0157	0.0322	0.0367	86.8
-0.0143	0.0345	0.0337	0.0015	86.7
-0.0091	0.0945	0.0315	-0.0361	86.7
-0.0046	0.0855	0.033	-0.0046	86.7
-0.0068	0.063	0.0337	0.0165	87
-0.0135	0.0015	0.033	0.0202	86.7
-0.0083	-0.0698	0.03	0.054	86.9
-0.0023	-0.0278	0.0292	0.006	86.8
-0.0015	0.0105	0.0307	-0.012	86.9
-0.0068	-0.0585	0.033	0.012	86.6
-0.0091	-0.0443	0.03	-0.0458	86.9
-0.0091	0.0682	0.0277	-0.0743	86.6
-0.0091	0.0382	0.027	-0.0443	86.9
-0.0105	-0.0083	0.0232	-0.0233	86.9
-0.0128	0.0727	0.0255	-0.0135	86.9
-0.012	0.0562	0.0232	0.048	86.9
-0.0075	-0.0668	0.0172	0.0427	86.9
-0.0008	-0.1065	0.0142	0.048	87
0.003	-0.0533	0.0052	0.1672	86.9
0.0007	-0.0046	0.0022	0.1777	87.1
-0.003	0.0697	-0.0015	-0.0165	86.8
-0.0038	0.1402	-0.003	-0.1905	86.9
-0.003	0.0705	-0.0023	-0.2648	86.6
-0.0053	0.018	-0.0023	-0.2985	87.1
-0.0091	-0.0181	-0.0068	-0.1215	86.8
-0.0091	-0.048	-0.0083	-0.0465	87.1
-0.0068	-0.0105	-0.012	-0.0533	86.8
-0.0068	-0.0195	-0.015	0.0345	87.2
-0.0113	-0.0158	-0.0195	0.0262	86.8
-0.0113	-0.0285	-0.0248	0.0427	87.1
-0.012	-0.015	-0.0263	-0.0023	87
-0.0143	0.0075	-0.0256	-0.0203	87.2
-0.0173	-0.0165	-0.0181	-0.0135	87.1
-0.0203	0.0007	-0.0143	-0.0105	87
-0.021	-0.0113	-0.0173	0.0367	86.9
-0.0203	-0.033	-0.0195	0.0585	87.2
-0.0143	-0.0563	-0.0233	0.0817	87.2
-0.0068	-0.1013	-0.0256	0.0892	87
-0.0008	-0.1365	-0.0285	0.135	87.2
-0.0015	-0.1088	-0.0278	0.1237	87
0.0007	-0.057	-0.0256	0.1012	87.2
0.0015	-0.0188	-0.024	0.093	86.9
-0.0008	0.0937	-0.0195	-0.015	87.2
-0.003	0.1927	-0.0158	-0.1088	87
-0.0053	0.1522	-0.0128	-0.1013	87.2
-0.0053	0.0675	-0.0195	-0.0788	87.1
-0.0046	0.048	-0.0248	-0.084	87.3
-0.0046	0.0277	-0.0263	-0.0548	87.2
-0.0053	0.009	-0.027	-0.0293	87.1
-0.0068	-0.0046	-0.0225	0.0105	87.2
-0.0091	-0.039	-0.021	0.0225	87.1
-0.0158	-0.0458	-0.0165	-0.0105	87.3
-0.0165	-0.0608	-0.0128	-0.027	87.1
-0.0181	-0.0683	-0.0098	-0.0263	87.3
-0.0195	-0.0593	-0.0105	-0.0091	87.1
-0.0135	-0.0383	-0.0113	0.0165	87.4
-0.012	0.0097	-0.0083	0.0585	87.2
-0.0105	0.009	-0.0046	0.0862	87.3
-0.0083	-0.003	0.0052	0.0825	87.2
-0.0091	0.0592	0.0112	0.0217	87.5
-0.0075	0.0945	0.0105	-0.0143	87.2
-0.0038	-0.0015	0.009	0.003	87.4
-0.0083	-0.0871	0.0045	-0.0218	87.2
-0.0083	-0.0706	0.0007	0.009	87.5
-0.0068	-0.0473	-0.0015	0.0637	87.4
-0.0053	-0.0195	0.0007	0.0502	87.4
-0.0008	0.0495	0.0052	0.0097	87.5
0	0.1402	0.012	0.0075	87.4
-0.0008	0.144	0.0187	0.021	87.4
-0.0053	0.081	0.024	-0.0765	87.4
-0.0046	0.0105	0.0315	-0.1193	87.6
-0.0053	-0.0825	0.0375	-0.0878	87.4
-0.0075	-0.1035	0.0382	-0.1208	87.5
-0.0068	-0.048	0.0337	-0.0495	87.5
-0.006	-0.0091	0.0337	0.018	87.7
-0.0083	0.0225	0.033	-0.0346	87.6
-0.0098	0.0705	0.0285	-0.0233	87.7
-0.0083	0.0705	0.0277	0.0007	87.5
-0.0083	0.0232	0.0262	-0.0128	87.7
-0.0083	-0.0038	0.0277	-0.003	87.5
-0.0105	-0.0038	0.0315	0.0045	87.7
-0.0128	-0.012	0.0322	0.0007	87.6
-0.0135	-0.0023	0.033	-0.0023	87.6
-0.0188	0.0352	0.033	0.0022	87.7
-0.0181	0.0322	0.0292	0.0075	87.5
-0.0143	0.0172	0.0277	0.0202	87.7
-0.0113	-0.0233	0.0225	0.0577	87.6
-0.012	-0.0728	0.0202	0.105	87.7
-0.0113	-0.0765	0.0195	0.1297	87.7
-0.0083	-0.0878	0.0195	0.1027	87.7
-0.0046	-0.1178	0.018	0.0262	87.5
-0.0008	-0.1006	0.0105	-0.012	87.9
-0.0008	-0.027	0.0045	0.0247	87.7
-0.0015	-0.0638	0	0.0075	87.9
-0.003	-0.1305	-0.0015	-0.0555	87.7
-0.0046	-0.0968	-0.0015	-0.0353	88
-0.0053	-0.0848	-0.0008	0.021	87.8
-0.0046	-0.0473	0.0045	0.0517	87.8
-0.0046	0.0675	0.003	-0.0135	87.9
-0.0053	0.174	-0.003	-0.0735	87.7
-0.0083	0.1695	-0.0038	-0.042	87.9
-0.012	0.1612	-0.0046	-0.1215	87.9
-0.012	0.1995	-0.0083	-0.186	87.8
-0.0143	0.1597	-0.0135	-0.183	87.9
-0.0128	0.1177	-0.0188	-0.1711	87.7
-0.0143	0.057	-0.024	-0.0795	87.9
-0.0165	0.0255	-0.0293	-0.042	88
-0.0165	0.0015	-0.0293	-0.0158	87.9
-0.0158	-0.0555	-0.03	0.0277	87.9
-0.012	-0.0765	-0.0278	0.0615	87.7
-0.012	-0.108	-0.0225	0.0975	88.1
-0.012	-0.057	-0.0188	0.1132	87.8
-0.006	-0.0503	-0.0188	0.1815	88
-0.003	-0.1013	-0.0188	0.2542	88.1
-0.0046	-0.0346	-0.0165	0.162	88
-0.0083	0.0525	-0.0091	-0.0195	88
-0.0105	0.0502	-0.0105	-0.0608	88
-0.0143	-0.0353	-0.0173	-0.0398	87.9
-0.0128	-0.0053	-0.0181	-0.027	87.8
-0.0068	0.0495	-0.021	-0.078	87.8
-0.003	0.015	-0.0203	-0.1298	87.8
-0.0015	0.006	-0.0158	-0.114	87.9
-0.003	-0.0361	-0.0158	-0.078	87.8
-0.0023	-0.0668	-0.0165	0.012	87.9
-0.003	-0.0353	-0.0165	0.0067	87.8
-0.0053	-0.0053	-0.0165	-0.0068	88.2
-0.0046	-0.0075	-0.0143	0.0067	87.8
-0.0083	-0.006	-0.012	0.0067	88.1
-0.0091	-0.0046	-0.012	0.012	88.1
-0.0075	-0.0218	-0.0098	0.0015	88
-0.0091	-0.0165	-0.0098	0.0082	88
-0.0091	-0.0053	-0.0091	0.0015	88
-0.012	0.0232	-0.0083	0.0052	88.1
-0.015	0.042	-0.0083	-0.0008	88.1
-0.0165	0.0712	-0.0023	-0.0046	88.2
-0.0158	0.1155	-0.0008	-0.0015	88.1
-0.0105	0.0592	-0.0008	-0.0105	88.2
-0.0053	-0.0225	0	0.0045	88.3
-0.003	-0.0713	-0.003	0.057	88.3
-0.0038	-0.1328	-0.0015	0.096	88.2
-0.0015	-0.1403	0.0007	0.105	88.3
-0.003	-0.123	0.0015	0.1507	88.2
-0.0038	-0.1095	0.003	0.1365	88.4
-0.0046	-0.0046	0.0075	0.0082	88.3
-0.0098	0.0495	0.0127	-0.1253	88.2
-0.0143	-0.0278	0.0157	-0.1365	88.3
-0.0105	-0.0518	0.0157	-0.0443	88.2
-0.0068	-0.0181	0.0195	0.012	88.5
-0.0068	0.0765	0.0232	0.0382	88.5
-0.0083	0.1672	0.024	0.0712	88.4
-0.0083	0.1515	0.0232	0.0442	88.4
-0.0128	0.1155	0.0225	-0.1298	88.3
-0.0113	0.087	0.0217	-0.2026	88.4
-0.0053	0.0345	0.0157	-0.1088	88.4
-0.0015	-0.0068	0.0142	-0.0728	88.5
-0.0046	0.015	0.0142	-0.0225	88.6
-0.006	-0.0278	0.0127	-0.0285	88.4
-0.0068	-0.0548	0.0157	-0.0675	88.6
-0.0105	-0.015	0.0172	-0.0458	88.4
-0.0113	-0.0285	0.0172	-0.0278	88.6
-0.0128	-0.0256	0.0142	-0.0256	88.5
-0.015	-0.0608	0.0105	-0.0233	88.6
-0.0173	-0.1006	0.0045	0.0262	88.6
-0.0195	-0.1028	0.0037	0.0877	88.6
-0.0195	-0.114	0.0022	0.1447	88.5
-0.0143	-0.0953	0.0022	0.1725	88.7
-0.0053	-0.054	0.006	0.1792	88.6
0.0007	0.0172	0.0067	0.1965	88.7
0.006	0.1515	0.0067	0.1822	88.6
0.0067	0.1987	0.0082	0.051	88.6
0.006	0.1087	0.0112	-0.1568	88.4
-0.0015	0.1087	0.018	-0.3	88.6
-0.0098	0.108	0.0277	-0.294	88.7
-0.0083	0.015	0.0277	-0.1688	88.7
-0.0053	0.0082	0.0157	-0.0585	88.8
-0.0053	0.0195	0.006	-0.0091	88.7
-0.0068	0.0067	0.0045	0.0045	88.7
-0.0068	0.0052	0.003	0.0225	88.7
-0.0068	-0.0165	0.0007	0.0232	88.8
-0.0075	-0.0128	0	0.0045	88.7
-0.0091	-0.0188	0.0007	-0.0083	88.9
-0.0143	-0.027	0.0015	-0.0233	88.8
-0.0128	-0.0256	0.003	-0.0285	88.9
-0.012	-0.0293	0	-0.0203	88.7
-0.015	-0.0135	-0.0091	-0.012	88.9
-0.0158	0.0105	-0.0098	-0.0128	88.9
-0.0143	0.042	-0.0098	-0.003	88.9
-0.0091	0.0592	-0.0098	0.0322	88.9
-0.0128	0.0345	-0.0128	0.1057	88.8
-0.0105	-0.0263	-0.0158	0.1342	88.9
-0.0015	-0.0893	-0.0128	0.1102	88.9
-0.0008	-0.1358	-0.0091	0.0937	88.9
-0.0046	-0.1688	-0.0015	0.1035	89
-0.0091	-0.168	0.003	0.1477	89.1
-0.0098	-0.117	0	0.075	89
-0.0098	-0.0023	-0.0023	-0.105	88.9
-0.0068	0.0847	-0.0053	-0.1711	88.8
-0.0046	0.0765	-0.0091	-0.159	89.1
-0.0053	0.0045	-0.0083	-0.1335	88.8
-0.0091	-0.0068	-0.0068	-0.1013	89
-0.0083	0.0345	-0.0098	-0.0465	88.9
-0.0068	0.0255	-0.0105	0.0067	89.1
-0.0053	0.033	-0.0105	0.0157	89
-0.0015	0.0217	-0.012	0.0255	89.1
0	0.0202	-0.0158	0.015	89.1
0.003	0.0277	-0.0165	0.0165	89
0.0022	-0.0046	-0.0143	0.0165	89.1
0.0015	-0.0105	-0.0128	0.0135	89.1
-0.0008	0.0045	-0.0128	0.018	89.1
0.0015	0.027	-0.0083	0.0007	89.1
0.0015	0.0367	-0.0053	0.0007	89.1
-0.0008	0.0345	-0.0075	-0.0015	89.2
0.0007	0.024	-0.0068	-0.0181	89.1
-0.0008	0.0052	-0.0083	-0.0165	89.1
-0.0038	-0.0691	-0.0083	-0.0105	89.3
-0.0083	-0.159	-0.0091	-0.0023	89.2
-0.0075	-0.1396	-0.0113	0.0352	89.3
-0.0075	-0.0788	-0.0091	0.1005	89.2
-0.0105	-0.0428	-0.0046	0.1657	89.3
-0.0068	0.0015	0.0015	0.1447	89.4
0.0007	0.1065	0.0052	0.0442	89.4
0.0022	0.1852	0.0105	0.0195	89.5
-0.003	0.162	0.0127	0.0262	89.3
-0.0046	0.141	0.0105	0.0307	89.3
-0.0068	0.0577	0.0097	-0.0375	89.4
-0.0128	0.0067	0.0067	-0.2475	89.2
-0.0143	0.0105	0.0045	-0.2468	89.3
-0.0158	-0.015	0.0037	-0.1298	89.5
-0.0165	0.0172	0.003	-0.078	89.4
-0.0165	0	0.003	-0.0046	89.5
-0.0165	-0.0098	0.0052	-0.0053	89.4
-0.0195	-0.0083	0.0112	-0.0053	89.5
-0.0203	-0.0293	0.0142	-0.0046	89.6
-0.0195	-0.0203	0.018	-0.0091	89.5
-0.021	-0.0428	0.0232	0.0045	89.5
-0.024	-0.0495	0.021	0.0127	89.7
-0.0218	-0.0488	0.0172	0.0262	89.5
-0.0181	-0.0308	0.0187	0.0202	89.5
-0.0165	-0.0135	0.0202	0.0127	89.5
-0.0105	0.0097	0.0172	-0.0068	89.5
-0.0083	0.051	0.0127	0.0007	89.5
-0.0053	0.0405	0.0105	-0.0053	89.5
-0.0053	-0.0015	0.0052	-0.0353	89.5
-0.0008	-0.063	0.003	-0.054	89.5
0.0052	-0.105	0.0015	-0.0195	89.5
0.0067	-0.0818	0.0022	0.0667	89.5
0.0082	-0.024	0.0052	0.1005	89.7
0.0105	0.0532	0.0067	0.1005	89.4
0.0112	0.1027	0.0067	0.0757	89.6
0.0082	-0.0008	0.012	0.063	89.6
0.0067	-0.1163	0.0142	0.0405	89.5
0.006	-0.0608	0.0105	0.0015	89.5
0.0052	-0.0563	0.003	-0.0091	89.7
0.006	-0.114	-0.003	-0.0008	89.5
0.0037	-0.0518	-0.003	0.0052	89.8
0.0015	0.0382	-0.0046	-0.0608	89.5
-0.0015	0.0945	-0.006	-0.12	89.6
-0.0046	0.1027	-0.0053	-0.096	89.6
-0.0091	0.072	-0.0053	-0.0308	89.6
-0.0053	0.0975	-0.0091	-0.012	89.6
-0.0053	0.1095	-0.0105	-0.03	89.6
-0.0128	0.0772	-0.0113	-0.0203	89.8
-0.015	0.0367	-0.0113	-0.0083	89.8
-0.0105	-0.0091	-0.0091	-0.0353	89.7
-0.0038	-0.0488	-0.0068	-0.0338	89.7
-0.0015	-0.048	-0.0053	0.0427	89.8
-0.0046	0.0225	-0.0068	0.0742	89.7
-0.0046	0.054	-0.0068	0.1125	89.8
-0.0091	0.0877	-0.0053	0.0585	89.7
-0.0105	0.15	-0.0075	-0.048	90
-0.0053	0.0585	-0.0053	0.0652	89.8
-0.003	-0.1298	-0.0046	0.1342	90
-0.0015	-0.1883	-0.0046	0.0787	90
-0.0053	-0.1635	-0.0015	-0.0248	89.9
-0.0075	-0.1718	0.0015	-0.0743	89.8
-0.0105	-0.1426	0.0007	-0.0623	89.8
-0.015	-0.0548	-0.0015	-0.1245	89.8
-0.0173	0.0015	-0.0015	-0.1125	89.9
-0.0181	0.0412	-0.0023	-0.0825	90
-0.0173	0.0915	-0.0008	-0.0593	90
-0.0158	0.1177	0.0015	-0.0465	89.9
-0.015	0.0945	0.0007	-0.0668	90
-0.012	0.0232	-0.003	-0.0105	90
-0.0098	-0.0038	-0.003	0.0277	89.9
-0.0105	0.0007	-0.003	0.0045	90
-0.0068	0.0082	-0.0023	-0.0128	89.9
-0.0068	-0.003	-0.006	0.0045	90
-0.0075	0.0105	-0.0105	0.0105	89.9
-0.006	0.0555	-0.0098	-0.0533	89.8
-0.003	-0.0105	-0.0113	-0.0361	90
0.003	-0.0458	-0.0091	0.069	90
0.003	-0.0285	-0.003	0.1117	90.1
0	-0.0885	0.0015	0.1312	90.2
-0.0038	-0.1373	-0.0023	0.1027	90
-0.0038	-0.1418	-0.0038	0.042	90
-0.003	-0.0728	0.003	0.0495	90
-0.0091	0.0765	0.0037	-0.015	90.1
-0.012	0.1815	0.0015	-0.1013	90.2
-0.0068	0.1507	-0.0015	-0.0668	90.1
-0.0046	0.0765	0	-0.0165	90.1
-0.0053	0.0405	0.0037	0.0427	90.2
-0.0068	0.0105	0.0067	0.0187	90.3
-0.0053	0.0127	0.0022	-0.0091	90.3
-0.0046	0.024	-0.003	-0.0038	90.3
-0.0015	-0.0233	-0.0053	-0.063	90.1
-0.0008	-0.0968	-0.0083	-0.042	90.1
-0.0046	-0.1118	-0.0091	-0.0053	90.3
-0.0046	-0.0938	-0.0098	0.0202	90.3
-0.0038	-0.0593	-0.0083	0.0652	90.3
-0.0068	0.0127	-0.0068	0.0832	90.3
-0.006	0.0675	-0.0046	0.0645	90.4
-0.0091	0.1252	0.003	-0.003	90.3
-0.015	0.1582	0.015	-0.0983	90.3
-0.0181	0.1267	0.0217	-0.105	90.3
-0.0181	0.0982	0.0202	-0.0833	90.3
-0.0165	0.0637	0.015	-0.0878	90.4
-0.0181	0.0007	0.0105	-0.0428	90.4
-0.0188	-0.0181	0.012	-0.0368	90.4
-0.0181	-0.0308	0.0142	-0.0195	90.5
-0.015	-0.0803	0.0142	-0.0015	90.4
-0.0128	-0.0698	0.0157	0.0217	90.5
-0.0128	-0.0353	0.018	0.0457	90.5
-0.0135	-0.0218	0.0157	0.012	90.5
-0.0105	-0.0015	0.0097	0.024	90.5
-0.006	-0.0593	0.003	0.057	90.6
0.0007	-0.1065	-0.003	0.0885	90.4
0.0045	-0.1028	-0.003	0.1117	90.8
0.0052	-0.1553	-0.003	0.084	90.5
0.006	-0.123	-0.0015	0.0322	90.8
0.003	-0.0046	0.006	0.0075	90.6
0	0.0727	0.0105	-0.0165	90.7
-0.003	0.1215	0.0097	-0.0825	90.5
-0.0038	0.099	0.0097	-0.096	90.7
-0.003	0.045	0.0097	-0.0863	90.6
-0.006	0.009	0.012	-0.1028	90.6
-0.0105	0.0045	0.0142	-0.0856	90.7
-0.0165	0.0435	0.0135	-0.0645	90.6
-0.021	0.0607	0.0105	-0.0225	90.8
-0.0218	0.0442	0.015	0.0217	90.7
-0.0203	-0.0495	0.0202	0.0382	90.8
-0.0181	-0.1411	0.0172	0.0562	90.7
-0.0098	-0.1238	0.0157	0.1125	90.9
-0.003	-0.1163	0.0127	0.2085	90.9
-0.0023	-0.108	0.0082	0.24	90.9
-0.0046	-0.0158	0.0067	0.129	90.9
-0.006	0.0555	0.0052	-0.0968	90.9
-0.0053	0.1312	0.0015	-0.2498	90.8
-0.0053	0.1987	-0.0015	-0.2145	91
-0.0075	0.1087	-0.0038	-0.1208	90.8
-0.006	0.021	-0.0068	-0.0735	90.9
-0.0038	0.039	-0.0105	0.024	90.8
-0.006	0.0375	-0.0128	0.0915	90.8
-0.0053	-0.0091	-0.0135	-0.0008	90.9
-0.0038	-0.0143	-0.015	-0.0833	90.9
-0.0083	0.012	-0.0143	-0.1178	91
-0.0128	-0.006	-0.015	-0.0765	91
-0.0158	-0.081	-0.0181	0.0337	91.2
-0.0203	-0.1373	-0.0181	0.093	90.9
-0.021	-0.1575	-0.0165	0.0952	91.2
-0.0188	-0.1013	-0.0158	0.0517	90.9
-0.0181	0.033	-0.012	0.069	91.2
-0.0181	0.066	-0.0068	0.1447	91.1
-0.0091	0.0615	-0.0046	0.1635	91.2
-0.0038	0.0345	-0.0068	0.0832	91
-0.0015	-0.0015	-0.0105	-0.0046	91.4
0.0007	0.048	-0.0165	0.0442	91.1
0.0007	0.102	-0.0143	0.063	91.3
-0.0008	0.1635	-0.0053	-0.0533	91.2
-0.0023	0.123	0.0015	-0.2026	91.2
-0.0046	-0.0015	0.003	-0.2033	91.3
-0.0105	-0.0091	0.0015	-0.1575	91.2
-0.0105	0.042	-0.0008	-0.1965	91.3
-0.0083	0.039	-0.0046	-0.1358	91.1
-0.0091	0.009	-0.0083	-0.0698	91.3
-0.0091	0	-0.0098	-0.0338	91.2
-0.0091	-0.0315	-0.0068	0.0082	91.6
-0.0091	-0.0765	-0.0008	0.039	91.2
-0.0105	-0.057	0.0052	0.057	91.6
-0.0113	-0.0083	0.0052	0.0367	91.4
-0.012	-0.0143	0.0075	0.042	91.5
-0.0128	-0.0353	0.009	0.0345	91.3
-0.0135	-0.075	0.0082	0.045	91.7
-0.012	-0.1275	0.009	0.0375	91.5
-0.0113	-0.096	0.0037	0.0022	91.6
-0.0046	-0.0428	-0.0038	0.0367	91.5
0.003	-0.0053	-0.0068	0.0562	91.6
0.003	0.0105	-0.0046	0.06	91.5
0.0007	0.0157	-0.003	0.0615	91.6
-0.0015	0.051	-0.0038	0.0052	91.7
-0.003	0.039	-0.0046	-0.027	91.5
-0.0023	0.0105	-0.0046	-0.0075	91.7
0.0007	0.0285	-0.0053	-0.0015	91.5
0.0015	0.0405	-0.0038	0.003	91.8
-0.003	0.0307	0.0022	0.006	91.6
-0.0068	0.024	0.006	-0.006	91.9
-0.0091	0.0165	0.0082	-0.0158	91.6
-0.0105	-0.0068	0.009	-0.006	91.8
-0.0113	-0.0698	0.0112	0.024	91.8
-0.0128	-0.1028	0.0112	0.036	91.9
-0.0113	-0.0548	0.009	-0.006	91.7
-0.0128	-0.0825	0.0067	-0.0165	91.9
-0.0158	-0.1485	0.0045	-0.0015	91.9
-0.0158	-0.099	0.006	0.0015	91.9
-0.0143	-0.0653	0.0105	0.018	92
-0.0091	-0.0203	0.0127	-0.0233	91.8
-0.0046	0.1087	0.0142	0.0165	92
0	0.156	0.0157	0.1365	92
0.0007	0.1387	0.0157	0.0525	92.2
0.003	0.1447	0.0172	-0.0975	91.8
0	0.156	0.0165	-0.1021	92.1
-0.0053	0.1162	0.018	-0.0908	91.9
-0.0075	0.0127	0.0232	-0.0428	92.3
-0.012	-0.0683	0.0232	-0.0165	92
-0.0143	-0.0645	0.0195	-0.0578	92.2
-0.012	-0.0075	0.0157	-0.0585	92.1
-0.0105	0.0195	0.0142	-0.0323	92.3
-0.0113	0.0577	0.0142	0.018	92.2
-0.012	0.0352	0.009	0.021	92.2
-0.0083	-0.057	0.0067	0.0045	92.3
-0.0068	-0.0735	0.0067	-0.0158	92.3
-0.0068	-0.0533	0.0045	0.0157	92.3
-0.0083	-0.039	0.0015	0.075	92.3
-0.0105	-0.0203	-0.0015	0.0285	92.5
-0.0091	0.021	-0.0023	-0.0128	92.2
-0.0083	0.0247	-0.006	-0.0105	92.5
-0.0068	0.03	-0.0083	0.0052	92.3
-0.0083	0.0735	-0.0053	0.0337	92.6
-0.0083	0.0352	-0.0068	0.0352	92.2
-0.0015	-0.0495	-0.0075	0.048	92.5
0.0007	-0.1178	-0.0046	0.1005	92.3
-0.0053	-0.0945	-0.0046	0.0667	92.6
-0.0091	-0.0638	-0.0075	-0.0278	92.3
-0.0098	-0.0706	-0.0098	-0.0548	92.3
-0.012	-0.0038	-0.0105	-0.0691	92.5
-0.015	-0.0046	-0.0105	-0.09	92.5
-0.0195	0.006	-0.0083	-0.0638	92.6
-0.0195	0.0202	-0.0075	-0.048	92.3
-0.0195	-0.0428	-0.003	-0.0135	92.7
-0.0173	-0.0615	-0.0015	0.0555	92.6
-0.0135	-0.0548	-0.0053	0.069	92.8
-0.0083	0.018	-0.0075	0.0817	92.7
-0.0083	0.0585	-0.0068	0.078	92.7
-0.0075	0.0187	-0.0083	-0.0053	92.5
-0.0105	0.0052	-0.0128	-0.1006	92.8
