File Name: sentado.log
Channel 4: 'Recto Femoral', 14205 values, engineering units: mV, no filters.
Channel 5: 'Biceps Femoral', 14205 values, engineering units: mV, no filters.
Channel 6: 'Vasto Medial', 14205 values, engineering units: mV, no filters.
Channel 7: 'EMG Semitendinoso', 14205 values, engineering units: mV, no filters.
Channel 8: 'Flexo-Extension', 14205 values, engineering units: deg, no filters.

-0.0083	-0.0008	0.0015	-0.0015	72.3
-0.0098	0	-0.0023	-0.0015	72.1
-0.0075	0	-0.0015	-0.0015	72.2
-0.0068	0	-0.003	-0.0023	72.2
-0.006	0.0007	-0.003	-0.0008	72.1
-0.0046	0.0007	-0.0046	-0.0015	72.3
-0.0053	0	-0.0053	-0.0015	72
-0.0053	0.0007	-0.0068	-0.0015	72.2
-0.006	0.0015	-0.0068	-0.0015	72
-0.0046	0.0015	-0.0075	-0.0023	72.2
0.0007	0.0007	-0.0068	-0.0023	72.2
0.0007	-0.0008	-0.0068	-0.0023	72.1
-0.0015	-0.0008	-0.0038	-0.003	72.2
-0.003	-0.0008	-0.0023	-0.003	72.2
-0.006	-0.0008	-0.003	-0.0038	72.1
-0.0053	-0.0008	-0.0023	-0.0038	72.3
-0.0068	0	-0.0008	-0.003	72.1
-0.0068	0.0007	-0.0008	-0.0046	72.2
-0.0091	0.0007	0.0007	-0.0023	72.1
-0.0128	0.0007	0.0007	-0.0008	72.2
-0.015	-0.0008	0.0007	-0.0015	72.1
-0.0113	-0.0008	0.0015	-0.0015	72.1
-0.0068	-0.0008	0.0015	-0.0023	72.1
-0.0075	-0.0015	0.0045	-0.003	72
-0.0068	-0.0008	0.0052	-0.003	72.3
-0.006	-0.0008	0.0052	-0.003	72
-0.006	0.0015	0.0052	-0.0015	72.3
-0.0053	0.0015	0.0052	-0.0008	72
-0.0038	0.0015	0.0067	-0.0008	72.2
-0.003	0.0007	0.0082	-0.0015	72
-0.0053	0	0.0067	-0.003	72.4
-0.0046	0.0007	0.006	-0.0015	72.1
-0.0023	0	0.0075	-0.0008	72.1
-0.003	0	0.0067	-0.0015	72.2
-0.0068	-0.0008	0.0067	-0.0015	72.2
-0.0068	-0.0008	0.0067	0	72.1
-0.0053	-0.0008	0.006	0	72.1
-0.0046	-0.0015	0.0067	-0.0008	72.3
-0.0053	0	0.0067	-0.0023	72.1
-0.006	0.0007	0.0052	-0.0015	72.3
-0.0046	-0.0008	0.0052	-0.0023	72
-0.0053	-0.0015	0.0045	-0.0038	72.2
-0.0023	-0.003	0.006	-0.0046	72.2
-0.0053	-0.003	0.0075	-0.0046	72.2
-0.0068	-0.0038	0.0082	-0.0053	72.1
-0.0068	-0.003	0.006	-0.0046	72.3
-0.0068	-0.0008	0.003	-0.0038	72.1
-0.0068	-0.0015	0.0037	-0.003	72.2
-0.0098	-0.0015	0.003	-0.003	72.2
-0.012	0	0.0015	-0.003	72.1
-0.0158	0.0015	0.0015	-0.0023	72.2
-0.0158	0.0007	0.0007	-0.0038	72.2
-0.0188	0	0.0007	-0.0038	72.2
-0.0165	-0.0008	0	-0.0015	72.2
-0.0083	0.0007	-0.0008	-0.0008	72.1
-0.0068	0.0022	-0.003	0	72.2
-0.0046	0.0007	-0.0038	0.0007	72.1
-0.0015	0.0007	-0.0038	-0.0015	72.2
0	0.0007	-0.0046	0	72
0	-0.0008	-0.006	-0.0008	72.2
-0.0015	-0.0008	-0.0053	-0.0008	72
-0.0015	-0.0015	-0.0046	-0.0008	72.3
-0.0046	0	-0.003	-0.0023	72.1
-0.0046	-0.0008	-0.0023	-0.0015	72.3
-0.0038	0	-0.0015	-0.0015	72
-0.0015	0.0007	-0.0023	-0.0015	72.1
-0.0083	-0.0008	-0.003	-0.0015	72.2
-0.012	-0.0038	-0.0008	-0.0015	72.1
0.0007	-0.003	-0.0015	-0.003	72.3
0.0157	-0.0008	-0.0015	-0.0023	72.2
0.0225	-0.0015	0.0007	-0.0015	72.2
0.0157	0	0.0015	-0.0038	72.2
0.0052	-0.0008	0.0037	-0.003	72.2
-0.0053	-0.0015	0.006	-0.0023	72.1
-0.0143	-0.0015	0.0045	-0.0015	72.1
-0.0165	-0.0015	0.0037	-0.0008	72.1
-0.024	0.0007	0.0037	-0.0008	72
-0.042	0	0.0045	0.0007	72.1
-0.054	0.0007	0.0045	0.0007	72.3
-0.0533	0	0.0052	-0.0008	72.1
-0.039	-0.0008	0.006	-0.0015	72.1
-0.0188	0.0007	0.0052	0	72.1
-0.0083	0.0007	0.006	-0.0008	72
-0.0008	0.0007	0.0075	-0.0008	72
0.0045	0	0.0075	-0.0008	72.2
0.012	0.0015	0.0067	-0.0023	72.1
0.0165	0.0007	0.0067	-0.0038	72.3
0.0142	-0.0015	0.0112	-0.0091	72.2
0.0052	-0.003	0.0127	-0.0105	72.2
-0.0091	-0.003	0.0105	-0.0105	72
-0.0075	-0.0015	0.0097	-0.0091	72.2
-0.003	-0.0008	0.0075	-0.0038	72
-0.0068	-0.0008	0.0045	-0.0023	72.3
-0.0008	-0.0008	0.003	-0.003	72
0	-0.003	0.0007	-0.0046	72.2
-0.003	-0.003	0.0007	-0.0068	72
-0.0068	-0.003	0.0007	-0.0083	72.1
-0.0091	-0.003	-0.003	-0.006	72.1
-0.0083	-0.0015	-0.0053	-0.0046	72.1
-0.012	-0.0015	-0.0083	-0.0015	72
-0.012	0	-0.0091	-0.0008	72.1
-0.0158	-0.0008	-0.0113	-0.0008	72.1
-0.0158	-0.003	-0.0128	0.0022	72.2
-0.0158	-0.0015	-0.0128	0.0015	72
-0.0143	-0.0008	-0.012	-0.0008	72.1
-0.0091	-0.0008	-0.0135	-0.003	72
-0.0023	-0.0008	-0.0165	-0.0015	72.1
0.0105	-0.0008	-0.0158	0.0007	72.1
0.0067	0	-0.0143	0.0007	72.1
-0.0015	0.003	-0.0165	0.0015	72.2
-0.0023	0.003	-0.0181	0.0015	72
-0.0158	0.0022	-0.0195	0.0007	72.1
-0.024	0.0022	-0.0195	-0.0008	72.2
-0.0263	0.0022	-0.0195	-0.003	72.1
-0.0285	0.0037	-0.0173	-0.0046	72
-0.033	0.0037	-0.0143	-0.0068	72.1
-0.0353	0.0037	-0.0135	-0.0075	72
-0.0315	0.0052	-0.012	-0.0053	72.2
-0.0233	0.0037	-0.0083	-0.006	72
-0.0143	0.0015	-0.006	-0.0068	72.3
-0.0083	0.0015	-0.003	-0.0046	72.1
-0.0015	0.0022	0.0007	0	72.2
-0.0015	0.0007	0.003	0.0045	72.2
-0.0015	0	0.0067	0.0082	72.2
-0.0015	-0.0008	0.0112	0.012	72.1
-0.0038	-0.0068	0.0135	0.0082	72.3
-0.0046	-0.0091	0.0142	0.006	72.2
-0.0091	-0.0068	0.015	0.003	72.3
-0.012	-0.0046	0.0157	-0.0023	72.2
-0.0075	-0.0015	0.0157	-0.0091	72.3
-0.0046	-0.0015	0.0157	-0.0113	72.2
-0.0038	-0.0008	0.0127	-0.0053	72.2
0	0.0015	0.0142	-0.0046	72.3
0.0022	0.0022	0.0142	-0.0015	72.3
0.003	0.0015	0.0127	-0.0008	72.1
0.0045	-0.0008	0.012	-0.0015	72.4
0.003	-0.0068	0.0082	0.0052	72.1
0.0007	-0.0083	0.0045	0.012	72.2
-0.0046	-0.0053	0.0022	0.018	72.1
-0.0068	-0.003	0.003	0.0195	72.4
0.0015	-0.0008	0	0.0165	72.1
0.0142	-0.0015	-0.0008	0.0135	72.3
0.0217	-0.003	-0.0015	0.006	72.1
0.015	-0.0046	0.0007	0	72.3
0.0075	-0.0023	0.003	-0.0046	72.2
0.003	0.0007	0.0067	-0.0203	72.1
-0.006	0.0037	0.009	-0.027	72
-0.0113	0.009	0.0082	-0.0158	72.3
-0.0143	0.012	0.0075	-0.0278	72.2
-0.027	0.0097	0.0075	-0.0413	72.3
-0.0503	0.0015	0.009	-0.0308	72.2
-0.0585	0	0.009	-0.0173	72.2
-0.0458	-0.0015	0.0067	-0.0091	72.1
-0.033	-0.0046	0.0045	-0.0046	72.3
-0.0203	-0.0038	0.0045	-0.0046	72.1
-0.0083	-0.0053	0.0082	-0.0098	72.2
-0.0015	-0.006	0.0105	-0.0098	72.3
0.0007	-0.0068	0.0105	-0.0075	72.3
0.0045	-0.0053	0.0075	-0.0023	72.2
0.009	-0.0023	0.003	0.0067	72.1
0.0165	-0.003	0.0007	0.0142	72.1
0.0135	-0.0023	0.0022	0.018	72.1
0	-0.0015	0.0022	0.0157	72.2
-0.0023	0.0007	0.0015	0.0052	72.2
-0.0053	0	0.0022	-0.012	72.3
0.003	-0.0008	0.0022	-0.0285	72
0.0127	-0.0015	0.0007	-0.0368	72.3
-0.0068	-0.0008	-0.003	-0.0315	72
-0.0195	0.0022	-0.006	-0.0195	72.4
-0.0143	0.0097	-0.0046	-0.0083	72
-0.0135	0.018	-0.0046	-0.0023	72.4
0.0007	0.018	-0.0053	0.0067	72
0.024	0.015	-0.006	0.0082	72.3
0.0352	0.0112	-0.006	0.0067	72
0.0315	0.0127	-0.0083	0.0082	72.4
0.0412	0.0165	-0.0113	0.015	72
0.06	0.0142	-0.0143	0.0217	72.2
0.039	0.009	-0.012	0.0187	72.2
0.0112	-0.0008	-0.0113	0.0142	72
-0.0195	-0.012	-0.0091	0.009	72.1
-0.0593	-0.0218	-0.0046	0.0097	72.2
-0.0706	-0.0256	-0.0053	0.0202	72.1
-0.075	-0.0203	-0.0068	0.0315	72.2
-0.078	-0.027	-0.0053	0.0292	72
-0.0698	-0.0308	-0.0038	0.0082	72.4
-0.078	-0.0158	-0.003	0.0045	72.2
-0.0653	-0.0008	-0.0008	-0.0068	72.3
-0.0256	-0.003	0.0015	-0.0368	72.2
-0.0218	-0.003	0.0045	-0.0578	72.4
-0.0346	0.003	0.006	-0.0593	72.1
-0.024	0.006	0.0052	-0.0361	72.4
-0.0053	0.0082	0.0067	-0.0128	72.2
-0.0091	0.0052	0.006	-0.003	72.4
-0.0278	0.0045	0.006	0.0007	72.3
-0.0218	0.003	0.0037	0.0067	72.3
-0.0203	0	0.003	0.0067	72.1
-0.0165	-0.0015	0.0037	0.0097	72.3
0.012	0.003	0.0007	0.006	72.4
0.027	0.0082	0.0007	0.003	72.1
0.0427	0.0112	0.0037	-0.003	72.3
0.0607	0.012	0.0052	-0.0195	72.2
0.0577	0.0015	0.0052	-0.0278	72.3
0.0465	-0.0075	0.0045	-0.0181	72.3
0.0345	-0.0053	0.0052	0.009	72.3
0.0232	-0.0015	0.0052	0.0397	72.3
0.0105	0.0007	0.006	0.069	72.3
0.0082	0.0045	0.0105	0.09	72.4
0.0217	0.0037	0.009	0.1042	72.4
0.0187	-0.0038	0.0082	0.0967	72.3
0.003	-0.0173	0.0067	0.0472	72.4
-0.0053	-0.0165	0.0052	-0.0308	72.2
-0.0173	-0.0083	0.0052	-0.0915	72.4
-0.0203	-0.0098	0.0045	-0.1193	72.3
-0.0143	0.0015	0.003	-0.0885	72.4
-0.0195	0.0127	0.0022	-0.033	72.4
-0.0308	0.0015	0.0015	-0.0068	72.5
-0.0346	-0.0015	0.0015	0.0015	72.4
-0.033	0.006	-0.0023	-0.0135	72.6
-0.0285	0.0067	-0.003	-0.0308	72.5
-0.0248	0.0045	-0.0015	-0.0428	72.6
-0.0143	0.0045	0.0007	-0.0675	72.4
-0.003	0.0075	0.0015	-0.0743	72.5
0	0.0105	0.0022	-0.042	72.5
0	0.0082	-0.0015	-0.0105	72.5
-0.0113	0.0052	-0.0098	-0.0015	72.4
-0.0256	0.0067	-0.0128	0.0052	72.6
-0.0308	0.0067	-0.0165	0.015	72.6
-0.0233	0.0045	-0.0203	0.0285	72.6
-0.0046	0.0045	-0.0218	0.0315	72.5
-0.0098	0.0022	-0.0263	0.0135	72.8
-0.0135	0.003	-0.027	-0.0083	72.4
-0.0046	0.0015	-0.03	0.0007	72.8
-0.0008	-0.0046	-0.033	0.0172	72.5
0.0045	-0.0068	-0.0323	0.0195	72.8
0.0052	-0.0098	-0.0256	0.018	72.7
0.009	-0.0105	-0.0203	0.024	72.8
0.0127	-0.0053	-0.0173	0.0292	72.6
0.0232	-0.003	-0.0165	0.015	72.9
0.0307	-0.0008	-0.0143	0.0097	72.6
0.045	0	-0.0068	0.0292	72.8
0.0517	0	-0.0053	0.0405	72.8
0.0195	-0.0008	-0.0046	0.0157	72.9
-0.0225	-0.0015	0	-0.0068	72.8
-0.0653	-0.0015	0.0052	-0.0015	72.9
-0.099	-0.0023	0.0127	0.024	72.9
-0.1103	-0.0091	0.0195	0.0352	73
-0.1043	-0.0188	0.0255	0.012	72.9
-0.0938	-0.015	0.0292	-0.0428	73.1
-0.1103	-0.0068	0.0315	-0.0863	72.8
-0.114	-0.0105	0.0352	-0.0353	73.1
-0.0608	-0.012	0.042	-0.0195	73
-0.0091	-0.0053	0.0517	-0.0436	73.1
0.003	0.0097	0.0547	-0.033	72.9
0.0172	0.021	0.0555	-0.0518	73.2
0.024	0.0157	0.0487	-0.0436	72.9
0.0225	0.0112	0.0442	-0.0285	73.3
0.0202	0.009	0.0382	-0.0105	73.1
0.021	0.012	0.0307	0.0015	73.3
0.0427	0.009	0.0247	0.003	73.3
0.0592	0.0067	0.021	0.0165	73.2
0.0495	0.0022	0.0187	0.0157	73.3
0.0367	-0.0293	0.0135	0.0187	73.3
0.051	-0.0555	0.009	0.0202	73.4
0.054	-0.0465	0.0052	0.0285	73.5
0.0307	-0.0308	0.0037	0.0427	73.5
0.0172	-0.0248	0.0045	0.0457	73.3
-0.0083	-0.0195	0.0037	0.0405	73.6
-0.0203	-0.0075	0.0037	0.039	73.6
-0.0083	0.0045	0.0007	0.0315	73.5
-0.0098	0.0142	-0.0038	0.0202	73.5
-0.0465	0.0225	-0.0008	-0.0105	73.7
-0.0953	0.0315	0	-0.0488	73.7
-0.0728	0.042	-0.0023	-0.0675	73.6
-0.0361	0.0457	-0.0008	-0.0668	73.7
-0.0308	0.0465	-0.0008	-0.0428	73.7
-0.0195	0.039	-0.003	-0.0225	73.7
-0.0473	0.0187	-0.006	-0.012	73.9
-0.0593	0.003	-0.0068	-0.0083	73.7
-0.0293	-0.0038	-0.0068	-0.0113	73.8
-0.0263	-0.0053	-0.0075	-0.006	73.5
-0.006	-0.006	-0.0068	-0.0015	73.8
0.015	-0.0068	-0.0046	0.0022	73.8
0.0067	-0.0083	-0.003	0.003	73.9
0.0082	-0.0083	-0.0015	0.0037	73.8
0.0157	-0.0068	0	0.003	73.8
0.0367	-0.0053	-0.0023	0.0045	73.9
0.054	-0.0046	-0.0023	0.0045	74
0.0517	-0.0046	-0.0046	0.0067	74
0.0555	-0.0075	-0.0046	0.0105	73.9
0.0502	-0.0091	-0.0008	0.0082	74
0.027	-0.0068	-0.0008	0.0052	73.9
0.0015	-0.006	-0.0008	0.0015	74.1
-0.006	-0.0046	-0.0015	-0.0038	74
-0.0053	-0.0015	-0.0046	-0.006	74
-0.0165	-0.0008	-0.0075	-0.006	74.2
-0.0256	-0.0008	-0.0105	-0.0046	73.8
-0.0158	-0.0008	-0.0105	-0.0015	74.2
0.0067	-0.0008	-0.0075	0.0007	73.9
0.0705	0.0007	-0.0083	0.0022	74.2
0.1717	-0.0015	-0.0143	0.003	74
0.2025	-0.0046	-0.0158	0.0045	74.3
0.1462	-0.0053	-0.0135	0.0052	74
0.063	-0.0083	-0.0128	0.0067	74.2
-0.0091	-0.0091	-0.0143	0.0105	74
-0.0615	-0.0068	-0.0135	0.0067	74.2
-0.1583	-0.003	-0.0128	0.0015	74.2
-0.267	-0.0008	-0.0135	0.0007	74.1
-0.3308	0.0007	-0.0128	-0.0015	74.2
-0.3391	0.0015	-0.0105	-0.0053	74.3
-0.2881	0.003	-0.0091	-0.0135	74.3
-0.216	0.0015	-0.0083	-0.0195	74.4
-0.114	-0.0015	-0.0053	-0.0128	74.4
-0.0091	-0.0038	-0.0046	0.003	74.4
0.045	-0.0053	-0.0075	0.0217	74.3
0.0727	-0.0038	-0.0105	0.0382	74.5
0.1065	0.0007	-0.0135	0.054	74.3
0.1312	0.0037	-0.0173	0.0352	74.5
0.1372	0.0067	-0.0218	-0.0315	74.4
0.1275	0.009	-0.024	-0.0833	74.5
0.1072	0.0127	-0.027	-0.0518	74.5
0.09	0.0127	-0.0278	-0.0105	74.7
0.0682	0.0067	-0.0195	-0.0188	74.5
0.039	-0.0023	-0.0098	-0.0075	74.7
0.0142	-0.0105	-0.0083	-0.0083	74.7
-0.0038	-0.0135	-0.0075	-0.0113	74.6
-0.0143	-0.0135	-0.0038	-0.0098	74.8
-0.0165	-0.0053	-0.0008	-0.0023	74.6
-0.012	-0.0008	0.0052	0.003	74.9
-0.0008	-0.0038	0.0097	-0.0053	74.6
0.012	-0.003	0.0082	-0.0053	74.9
0.003	-0.0015	0.0097	-0.0075	74.8
-0.012	-0.0023	0.0082	-0.0068	75.1
-0.0128	-0.0023	0.0075	-0.0008	74.8
0.0067	-0.006	0.0067	0.003	75.1
0.0292	-0.012	0.0045	-0.003	74.7
0.033	-0.0143	0.0007	0.0067	75.1
0.0382	-0.0075	-0.0015	0.0097	74.9
0.0345	-0.0008	-0.0008	0.003	75
0.0142	0.0082	0.0007	-0.0023	75.1
-0.0015	0.0165	0.0045	-0.012	74.8
-0.0218	0.018	0.0037	0.0157	74.8
-0.0443	0.0142	0.0015	0.0195	75.2
-0.0593	0.0127	0.0007	0.024	74.9
-0.0458	0.015	0.0015	0.021	75.1
-0.0135	0.0135	0.0037	0.006	75
0.018	0.0135	0.0045	0.0195	75.1
0.0277	0.0045	0.009	0.0105	75
0.0217	-0.0083	0.0142	0.0007	75.1
0.018	-0.0053	0.0165	-0.0128	75
-0.0165	-0.0105	0.0165	-0.0368	75.1
-0.0436	-0.0143	0.0142	-0.0368	74.8
-0.0383	-0.015	0.012	-0.0218	75.1
-0.0533	-0.0233	0.0142	-0.0091	75
-0.0728	-0.012	0.0142	-0.0135	75.1
-0.0533	-0.0091	0.0142	-0.0248	75
-0.0128	-0.0181	0.018	-0.0225	75.1
0.0157	-0.0158	0.0172	-0.0135	75
0.0262	-0.0105	0.0172	-0.0068	75
0.021	-0.003	0.018	-0.0015	74.9
0.003	0.0007	0.0157	0.0015	75.1
-0.0203	0	0.012	0.0105	74.9
-0.0368	0.0067	0.012	0.0135	75.1
-0.0308	0.0157	0.012	0.0082	74.8
-0.021	0.0172	0.012	-0.0015	74.9
-0.021	0.0202	0.0105	-0.0135	75
-0.0068	0.0217	0.0097	-0.0173	74.8
0.0067	0.0142	0.009	-0.0143	74.8
0.0225	0.0127	0.006	0.0015	74.8
0.0435	0.0157	0.003	0.0082	74.8
0.036	0.0112	0.0015	0	74.8
0.0127	0.0082	0.0007	0.0097	74.9
-0.0158	0.0007	-0.003	0.0217	74.8
-0.012	-0.0053	-0.0038	0.0157	74.8
-0.0143	-0.0038	-0.0046	0.0105	74.7
-0.0578	0.0007	-0.0023	0.0075	74.8
-0.0765	0.0007	-0.0008	0.0082	74.6
-0.0863	-0.0046	-0.0008	0.0022	74.8
-0.081	-0.0053	0.0015	-0.012	74.6
-0.0608	-0.0083	0.0052	-0.021	74.7
-0.0256	-0.0105	0.0082	-0.0278	74.6
0.0465	-0.0188	0.0082	-0.0225	74.7
0.0705	-0.0256	0.006	-0.0195	74.5
0.024	-0.0195	0.0015	-0.0203	74.7
0.0052	-0.0165	0.0015	-0.0195	74.5
-0.0008	-0.0091	0.003	-0.0128	74.5
-0.0225	-0.0015	0.0015	-0.0038	74.3
-0.0188	-0.0008	0.003	-0.0053	74.6
-0.012	0.0007	0.0045	-0.0075	74.3
-0.0195	-0.0008	0.0022	-0.0053	74.4
-0.0218	0.0007	0	0.0007	74.3
-0.0158	0.0007	0	0.0082	74.5
-0.0158	0	-0.0015	0.0105	74.3
-0.0203	0.0015	-0.003	0.0105	74.5
-0.0105	0.0067	0.0007	0.0157	74.1
-0.012	0.0067	0.003	0.018	74.4
-0.0173	0.0045	0.003	0.0105	74.1
-0.0256	0.0082	0.0022	0.0082	74.2
-0.0158	0.0082	0.0037	0.009	74
-0.0023	0.0067	0.009	0.015	74.2
-0.0053	0.0022	0.0112	0.0277	74.1
0.003	-0.0068	0.0127	0.033	74.1
-0.0038	-0.0105	0.0165	0.036	74
-0.0113	-0.0038	0.018	0.0375	74
-0.024	0.0007	0.0195	0.0045	74.1
-0.027	0.0022	0.018	-0.063	73.8
-0.0008	0.0082	0.0157	-0.0788	73.9
0.0112	0.0075	0.0127	-0.0181	73.8
0.0075	0.0007	0.0112	-0.0105	73.9
-0.0128	-0.003	0.0105	-0.0165	73.9
-0.0233	-0.003	0.0075	-0.0015	73.7
-0.027	-0.003	0.003	-0.012	73.8
-0.0218	-0.003	0	0.0015	73.7
-0.0046	-0.0038	-0.006	0.0165	73.6
-0.0015	-0.0075	-0.012	0.0442	73.6
0.003	-0.0091	-0.0143	0.057	73.6
0.0082	-0.0068	-0.0181	0.045	73.7
0.0082	-0.0046	-0.0195	0.0127	73.6
0.009	-0.0015	-0.0195	-0.0706	73.4
0.006	0.003	-0.0203	-0.147	73.5
0.0045	0.0067	-0.0218	-0.1065	73.3
0.0015	0.0067	-0.0203	-0.0173	73.4
0.0045	0.0067	-0.0195	-0.003	73.4
0.0075	0.012	-0.0203	0.0165	73.2
0.009	0.012	-0.0203	0.0052	73.1
0.0157	0.0015	-0.0203	0.0037	73.2
0.0195	-0.0053	-0.0218	0.012	73.1
0.018	-0.0046	-0.0218	0.0195	73
0.0082	-0.0091	-0.0225	0.0435	73.2
-0.003	-0.0083	-0.0203	0.0142	73.1
-0.0068	0.0007	-0.0218	-0.0323	73
0.0157	0.003	-0.021	-0.033	72.9
0.033	0.0007	-0.0158	-0.0046	72.9
0.0202	0.0015	-0.0113	-0.015	73
0.0082	0	-0.0091	-0.006	72.8
-0.0083	0.0007	-0.0105	-0.0046	72.8
-0.003	0.0015	-0.0083	-0.0015	72.8
-0.0113	0	-0.0053	0.0127	72.6
-0.039	0.0015	-0.0046	0.0082	72.9
-0.0503	0.0015	-0.0046	0.012	72.6
-0.0863	0.0007	-0.0015	0.003	72.8
-0.1178	-0.0008	0.0015	0.0045	72.5
-0.1208	-0.003	-0.0008	0.0007	72.8
-0.093	-0.0046	-0.0008	0.0007	72.4
-0.0668	-0.0053	0.0015	-0.0008	72.5
-0.0398	-0.006	0.0045	-0.0046	72.2
0.003	-0.0015	0.0075	-0.003	72.6
0.0307	0.0067	0.0075	-0.0046	72.3
0.0292	0.0135	0.0082	0.0022	72.4
-0.0068	0.0082	0.0045	0.0052	72.2
-0.0158	0.0007	0.0045	0.0082	72.1
0.0052	0.0045	0.0082	0.012	72.2
0.0337	0.0045	0.0105	0.015	71.9
0.0442	0.0015	0.0105	0.0112	72
0.0165	-0.0015	0.009	0.0082	71.9
0.0352	-0.0068	0.0105	0.009	71.8
0.0615	-0.0091	0.0127	0.0052	71.7
0.0705	-0.0128	0.0142	0.0022	71.8
0.066	-0.0053	0.0157	-0.003	71.8
0.0262	-0.003	0.018	-0.0128	71.5
-0.0053	-0.003	0.0172	-0.0195	71.6
-0.0533	0.0007	0.0172	-0.0181	71.5
-0.0795	-0.0015	0.018	-0.0143	71.5
-0.0675	0.0007	0.0165	-0.0143	71.4
-0.0878	-0.0015	0.0165	-0.0165	71.4
-0.099	-0.0023	0.0135	-0.0195	71.4
-0.0405	0	0.0105	-0.0158	71.1
0.0015	0	0.0075	-0.0015	71.3
0.0052	-0.0008	0.0022	0.0217	71.2
0.0067	-0.0015	0.0022	0.0345	71.3
-0.0225	0.0007	0.0037	0.0322	71
-0.0315	0	0.0052	0.03	71.1
-0.0248	-0.0008	0.006	0.018	70.9
-0.0143	-0.0008	0.0052	-0.0181	71
-0.0068	-0.0008	0.0045	-0.0233	70.8
-0.0023	-0.0015	0.0045	-0.0091	70.8
0.0202	-0.0023	0.0045	-0.0143	70.7
0.0315	-0.003	0.0052	-0.0128	70.8
0.042	-0.0015	0.0067	-0.0218	70.6
0.045	0.0007	0.0052	-0.0248	70.6
0.0435	0.003	0.0045	-0.0165	70.6
0.0225	0	0.003	-0.006	70.4
-0.0023	-0.0053	0.0015	0.0105	70.3
-0.003	-0.0091	0.0015	0.027	70.3
0.003	-0.0075	-0.0008	0.0202	70.3
0.009	0.0015	-0.0046	-0.0503	70.2
0.012	0.012	-0.0068	-0.0893	70
0.0345	0.015	-0.0083	-0.0278	70.2
0.0382	0.0105	-0.0083	-0.0068	69.7
0.024	0.003	-0.006	-0.0128	70
0.009	-0.0008	-0.006	0.0075	70
-0.0256	-0.0015	-0.003	0.0075	69.9
-0.0518	-0.0008	0.0045	0.0337	69.9
-0.0698	0	0.009	0.039	69.8
-0.0773	-0.0008	0.012	0.0255	69.7
-0.0803	-0.0038	0.012	0.0157	69.7
-0.063	-0.0053	0.012	0.003	69.6
-0.0293	-0.0053	0.0127	-0.0068	69.5
-0.0083	-0.0053	0.0142	-0.0195	69.4
0.012	-0.0046	0.0112	-0.0135	69.3
0.0517	-0.003	0.0097	-0.0128	69.3
0.0757	-0.0023	0.0097	-0.0053	69.4
0.0502	-0.0008	0.0075	0.0007	69.1
0.033	-0.0015	0.0067	0.0052	69.2
0.0165	-0.0038	0.0075	0.0082	69
-0.0091	-0.0046	0.009	0.0082	69.1
-0.0218	-0.0015	0.0052	0.009	68.9
-0.0248	-0.0008	0	0.0075	69.1
-0.0181	-0.003	-0.0023	0.0307	68.8
-0.024	-0.0046	-0.0053	0.0442	68.8
-0.0143	-0.0046	-0.0083	0.027	68.5
-0.0075	-0.0008	-0.0091	-0.0293	68.7
-0.0098	0.0052	-0.0091	-0.0983	68.3
0.009	0.0105	-0.0105	-0.066	68.5
0.027	0.0067	-0.0091	-0.0068	68.4
0.0315	0.0037	-0.0068	-0.0083	68.3
0.0255	0.0015	-0.0068	0.0082	68.3
-0.0113	0	-0.0083	0.0067	68
-0.0653	-0.0015	-0.0075	-0.0068	68.1
-0.0788	-0.0046	-0.0068	-0.0128	68
-0.0728	-0.0046	-0.0068	-0.0158	68
-0.0593	-0.0008	-0.0068	-0.0053	68
-0.015	0.0022	-0.0083	0.0045	67.8
-0.0008	0.003	-0.0083	0.027	67.8
-0.0098	0.0022	-0.0075	0.0255	67.9
-0.0046	0	-0.0053	0.0142	67.8
-0.0053	-0.0008	-0.006	0.0105	67.5
0.0142	0.0007	-0.0083	-0.0135	67.6
0.0405	0.003	-0.0091	-0.021	67.5
0.0502	0.003	-0.0113	-0.0293	67.4
0.078	0.0045	-0.0128	-0.039	67.4
0.105	0.0045	-0.0128	-0.0083	67.2
0.0997	0.0015	-0.012	0.0022	67.2
0.0847	-0.0023	-0.012	-0.0053	67
0.057	-0.0068	-0.0083	0.0075	67.1
-0.006	-0.0046	-0.0068	0.0142	66.8
-0.078	-0.0015	-0.0053	0.012	67.1
-0.135	-0.003	-0.0046	-0.0038	66.9
-0.1598	-0.003	-0.0053	-0.003	66.9
-0.1538	-0.0023	-0.0053	-0.0015	66.6
-0.1426	-0.003	-0.0046	-0.0075	66.7
-0.1493	-0.0038	-0.0038	0.0037	66.6
-0.1238	-0.003	-0.003	0.0142	66.6
-0.0638	-0.003	-0.0046	0.0225	66.3
-0.0248	-0.003	-0.0068	0.0247	66.3
0.0195	0	-0.0068	0.018	66.3
0.0375	-0.0008	-0.0053	0.0082	66.2
0.0517	0	-0.003	0.0045	66.2
0.0705	0	0.0007	0.0015	66.1
0.0705	-0.003	0.0007	-0.003	66.1
0.0682	-0.0015	-0.0015	-0.003	66
0.0217	-0.0008	-0.0038	-0.003	65.7
-0.0053	0	-0.0046	-0.006	66
0.0082	0.0007	-0.0008	-0.0105	65.7
0.0322	0.0007	0	-0.012	65.8
0.048	0.003	0	-0.0128	65.5
0.0442	0.003	0.003	-0.0135	65.6
0.0262	0.0022	0.003	-0.0075	65.4
-0.0091	0.0022	0.0052	0.0015	65.4
-0.033	0.0022	0.009	0.0015	65.3
-0.0848	0.0007	0.0142	-0.0105	65.4
-0.1095	-0.0015	0.0165	-0.0158	65.3
-0.0653	-0.0008	0.012	-0.0128	65.1
-0.024	0.0007	0.0082	-0.0015	65.1
0.018	0.003	0.0082	0.0045	65.1
0.0232	0.003	0.0052	0.0045	64.9
0.0217	0.003	0.0052	0.0037	64.9
0.0225	0.0022	0.0067	0.003	64.7
0.003	0.003	0.0067	0.006	64.7
-0.0105	0.003	0.0082	0.006	64.8
-0.024	0.0022	0.009	0.0067	64.7
-0.0233	0.0015	0.0105	0.0015	64.5
-0.0225	-0.0015	0.0157	-0.006	64.5
0	-0.0046	0.0157	-0.012	64.4
0.0315	-0.003	0.015	-0.0128	64.4
0.0292	-0.0046	0.0142	-0.006	64.1
0.0217	-0.0068	0.0105	-0.0046	64.3
0.0232	-0.0068	0.0082	-0.0068	64
0.0127	-0.0053	0.012	-0.0083	64.1
-0.0038	-0.006	0.0157	-0.0158	64
-0.0083	-0.0053	0.0157	-0.0203	63.9
-0.0278	-0.003	0.0172	-0.0248	64
-0.0308	-0.0015	0.0187	-0.024	63.6
-0.0256	0.0015	0.0187	-0.015	63.7
-0.0225	0.0022	0.0157	-0.0068	63.4
-0.0068	0.0015	0.0127	-0.0008	63.7
-0.0195	0.003	0.0135	0.0007	63.4
-0.024	0.0007	0.0142	-0.0008	63.5
-0.0346	-0.0008	0.015	0.0007	63.1
-0.0593	-0.0015	0.0135	0.0052	63.3
-0.0533	-0.0023	0.009	0.0052	63
-0.0578	0.0015	0.0067	0	63.3
-0.0578	0.0015	0.0045	-0.0053	62.9
-0.0346	0.0007	0.0015	-0.0083	62.8
-0.0285	0.0007	-0.003	-0.0015	62.9
-0.003	0.0007	-0.0083	0.006	62.7
0.0352	0.003	-0.0128	0.0082	62.6
0.0757	0.003	-0.0143	0.0127	62.8
0.0885	0.0015	-0.0098	0.0157	62.3
0.0727	0.0015	-0.0075	0.0172	62.5
0.072	0.0022	-0.0098	0.0247	62.2
0.0622	-0.003	-0.0113	0.033	62.5
0.0255	-0.0091	-0.0113	0.0345	62.1
-0.0105	-0.0091	-0.0083	0.0555	62.3
0.0015	-0.006	-0.003	0.0675	62.1
0.0135	-0.003	-0.0008	0.009	62.1
-0.0165	0.0007	0.003	-0.0743	61.8
-0.027	0.0045	0.003	-0.0893	62.1
-0.0263	0.0045	0.0007	-0.075	61.7
-0.0181	0.0082	-0.0038	-0.0668	61.8
-0.012	0.0067	-0.003	-0.027	61.6
-0.0068	-0.0008	-0.0046	-0.0181	61.7
0.0007	-0.003	-0.0083	-0.0135	61.6
-0.0135	-0.0038	-0.0128	0.0015	61.4
-0.039	0	-0.015	0.0067	61.2
-0.063	0.0022	-0.0158	0.0165	61.3
-0.0668	0.0015	-0.0173	0.0142	61.2
-0.0585	0.0015	-0.0188	0.0165	61.2
-0.0315	-0.0015	-0.0173	0.0112	61
-0.021	-0.003	-0.0143	0.0082	61.1
-0.0233	-0.0015	-0.0105	-0.0091	60.8
-0.0046	0.0015	-0.006	-0.0135	60.9
0.0217	0.003	-0.0075	0.0037	60.8
0.0397	0.0015	-0.0046	-0.0053	60.8
0.0195	0	-0.003	-0.0068	60.7
0.0045	0.0007	-0.0046	-0.0023	60.5
-0.0203	-0.0046	-0.0053	0.0082	60.5
-0.0346	-0.0075	-0.0083	0.0307	60.3
-0.0458	-0.0075	-0.0128	0.0525	60.4
-0.054	-0.0083	-0.012	0.0442	60.2
-0.0428	-0.0008	-0.012	-0.0128	60.1
-0.0503	0.0067	-0.012	-0.0353	60.1
-0.0068	0.0075	-0.0128	-0.033	59.9
0.0232	0.0075	-0.0105	-0.078	59.9
0.009	0.0052	-0.0053	-0.0353	59.9
0.0127	0.0067	-0.0015	0.0082	59.8
0.0105	0.0045	0.0015	-0.0105	59.7
0.0127	0.0007	0.003	0.0172	59.7
0.0082	0.0007	0.0015	0.006	59.5
0.0112	0.0045	0.0022	0.0142	59.5
0.0195	0.0045	0.0067	0.0097	59.4
0.0172	-0.0068	0.0067	0.006	59.3
0.009	-0.0105	0.0052	0.0082	59.2
0.0015	-0.0068	0.003	-0.0053	59.2
0.012	-0.0105	0.003	-0.0053	59.1
0.0022	-0.0083	0.0015	-0.0158	58.9
-0.006	-0.006	-0.0038	-0.0091	59.1
0.0135	-0.003	-0.0038	-0.0105	58.8
0.0127	-0.0008	-0.003	-0.0091	58.9
-0.0015	-0.0023	-0.0008	-0.0091	58.5
-0.012	-0.0008	0.0007	-0.0075	58.6
-0.0353	0	-0.0008	-0.0023	58.3
-0.0578	-0.0008	0	-0.0015	58.5
-0.0473	0	-0.0008	0.003	58.4
-0.024	0.0007	-0.0008	0.0015	58.4
-0.0053	0.0007	-0.0008	0.0037	58.1
-0.024	0.0007	0	0.0007	58.2
-0.042	0.003	0.0022	-0.0038	58
-0.0233	0.0007	0.003	-0.0091	58
-0.0128	0.0007	0.0082	-0.0053	57.9
-0.0256	-0.0008	0.012	-0.0046	57.8
-0.0848	0	0.0135	-0.0053	57.6
-0.1245	0.0022	0.0127	-0.0083	57.8
-0.1013	0.0022	0.0127	-0.0113	57.5
-0.0578	0.0015	0.0157	-0.003	57.6
-0.015	-0.0008	0.0202	0.0022	57.3
0.0345	-0.0008	0.0165	0.0067	57.4
0.0465	0.0015	0.012	0.0037	57.1
0.0367	0.0022	0.0112	0.0052	57.4
0.0457	0.0015	0.009	0.0045	57.1
0.0307	0.0015	0.0045	0	57.1
0.0195	0.0015	0.0037	0.0045	56.9
0.0082	0.0007	0.0067	0.0045	57
-0.0165	-0.0008	0.0082	0.006	56.8
-0.0165	0.0007	0.0075	0.0037	56.8
-0.0053	0	0.003	0.0037	56.6
0.0105	0.0007	-0.0038	0.0067	56.5
0.0442	-0.0008	-0.0075	0.0082	56.4
0.057	-0.003	-0.0068	0.0045	56.5
0.0082	-0.0015	-0.0053	0.0037	56.2
-0.0368	0.0007	-0.0023	0.0075	56.4
-0.048	0.0015	0.0045	0.0015	56.2
-0.0248	0.0015	0.0052	-0.0023	56.2
-0.0053	0.0007	0.0067	-0.0038	55.9
0	0.0015	0.012	-0.003	56.1
0.0187	-0.0008	0.0202	-0.006	55.8
0.0262	-0.0023	0.0217	-0.0098	56
0.0352	-0.0015	0.021	-0.0135	55.7
0.0015	-0.003	0.0202	-0.0158	55.8
-0.0315	-0.0015	0.0157	-0.0091	55.7
-0.0248	0.0015	0.012	-0.0068	55.4
-0.0503	0.0015	0.0142	-0.0083	55.8
-0.0593	0	0.0142	-0.0091	55.5
-0.0465	-0.0008	0.012	-0.0091	55.4
-0.0518	0.0007	0.0105	-0.006	55.5
-0.0458	0.0015	0.0097	-0.0008	55.1
-0.0091	0.0007	0.0075	0.0015	55.3
-0.0068	0	0.0052	0.0007	55.1
0.0045	0.0007	0.003	-0.0008	55.2
0.0532	0.003	0.0015	-0.0046	55.1
0.0607	0.003	0.0007	-0.0053	55
0.0555	0.0007	0.0022	-0.0083	54.8
0.0547	-0.0008	0.0015	-0.003	55
0.0697	0.0007	0.0015	0.0082	54.7
0.048	0.0007	0.003	0.0142	54.9
0.009	0.0007	0.0045	0.0232	54.7
0.0165	0.0007	0.0067	0.0255	54.6
0.018	-0.0015	0.009	0.0157	54.5
0.0337	-0.003	0.0082	0.0067	54.4
0.0667	-0.0075	0.0082	0.0022	54.5
0.0675	-0.0075	0.0105	-0.0046	54.4
0.0277	-0.0053	0.012	-0.012	54.4
-0.0046	-0.0046	0.012	-0.0203	54.3
-0.0495	-0.0046	0.0157	-0.027	54.1
-0.1268	-0.0053	0.0202	-0.03	54.1
-0.183	-0.0053	0.0202	-0.027	53.9
-0.2145	-0.003	0.0157	-0.0188	54.1
-0.177	-0.0008	0.0105	-0.0128	53.9
-0.0706	0.0007	0.003	-0.0098	53.9
-0.0091	0	0.0015	-0.0113	53.7
-0.0068	0.0007	0	-0.0105	53.8
0.0015	0.0045	-0.0053	-0.0091	53.6
-0.0038	0.003	-0.0083	-0.0098	53.6
-0.0195	0.0022	-0.0105	-0.0053	53.5
-0.0008	0.0045	-0.015	0.0007	53.4
0.0195	0.0052	-0.0165	0.0015	53.4
0.018	0.003	-0.012	0.003	53.4
0.021	0.0015	-0.012	0.0075	53.3
0.0405	0	-0.0165	0.0105	53.3
0.0412	-0.003	-0.0181	0.009	53.3
0.0352	-0.0046	-0.0158	0.009	53.1
0.0345	-0.0023	-0.0158	0.0157	53.2
0.0307	-0.0015	-0.0143	0.0165	53.2
0.0277	-0.0038	-0.015	0.009	53.1
0.0202	-0.0046	-0.0181	-0.0023	53.1
0.0142	-0.0068	-0.0203	-0.0181	53.1
0.0082	-0.006	-0.021	-0.027	53.1
0.0015	-0.0023	-0.021	-0.0308	53
0.0067	-0.0023	-0.0225	-0.0233	53.2
0.0285	-0.0015	-0.027	-0.0083	53
0.036	0	-0.0285	-0.0046	52.8
0.0255	-0.0008	-0.0263	-0.0008	53.1
0.0277	-0.0008	-0.027	0.0045	52.8
0.0337	0.0007	-0.0256	0.0037	52.8
0.0457	0.0022	-0.0188	0.0037	52.6
0.0345	0.003	-0.0143	0.0045	52.6
-0.003	0.003	-0.0143	0.003	52.5
-0.0368	0.0022	-0.0091	-0.0015	52.6
-0.0473	0.0007	-0.003	-0.0008	52.5
-0.048	0	-0.0046	0.0015	52.5
-0.075	0.0007	-0.0083	0.006	52.2
-0.093	0.0022	-0.0098	0.0075	52.3
-0.1065	0.003	-0.0091	0.0052	52.2
-0.1268	0.003	-0.0105	0.0067	52.2
-0.1253	0.0015	-0.0068	0.0105	51.9
-0.0923	-0.0008	-0.0046	0.0277	52
-0.054	-0.0038	-0.0068	0.0435	51.9
-0.027	-0.0038	-0.0083	0.0375	51.9
0.0157	-0.003	-0.0075	0.0277	51.7
0.0435	-0.0015	-0.0046	-0.0038	51.9
0.0682	0.0015	-0.0015	-0.066	51.5
0.063	0.0082	0.003	-0.0713	51.7
0.0052	0.0067	0.0045	-0.0181	51.5
-0.0173	0.0015	0.0015	-0.0083	51.4
-0.0181	0.0015	0.0015	-0.0165	51.3
-0.0278	0.0007	0.003	-0.021	51.5
-0.042	0.0007	0.0052	-0.0218	51.2
-0.0135	-0.0008	0.0075	-0.006	51.4
0.0472	-0.003	0.009	-0.0053	51.2
0.0787	-0.0023	0.012	-0.0053	51.1
0.0922	-0.0038	0.0127	-0.006	51.1
0.0787	-0.0046	0.0127	-0.0068	51
0.0457	-0.0023	0.0142	-0.0068	51
0.0067	-0.0008	0.0142	-0.0083	50.9
-0.0218	-0.0008	0.0142	-0.0075	50.6
-0.0706	-0.003	0.0165	-0.003	50.8
-0.1043	-0.003	0.0127	0.0082	50.7
-0.0578	-0.003	0.0127	0.015	50.7
0.0075	-0.003	0.0157	0.0195	50.4
0.0555	-0.0023	0.012	0.0202	50.6
0.0675	-0.0015	0.0127	0.0232	50.2
0.039	-0.0015	0.0127	0.009	50.5
-0.0008	0.0007	0.0127	-0.0263	50.1
-0.0473	-0.0008	0.0172	-0.0346	50.3
-0.0818	-0.0023	0.0195	-0.0135	50
-0.0713	-0.0015	0.015	-0.0068	50
-0.0563	-0.0015	0.015	-0.0015	49.9
-0.0555	-0.0015	0.0127	-0.0008	50
-0.042	-0.0008	0.012	-0.003	49.9
-0.0173	0	0.0105	-0.0008	49.9
0.0052	0.0007	0.003	-0.0023	49.8
-0.0038	0.0037	0.0015	0	49.7
-0.0173	0.0052	0.0045	-0.0023	49.6
-0.0181	0.003	0.0105	-0.0015	49.6
-0.0188	0.0022	0.0127	0	49.5
-0.0225	0.0007	0.012	0.003	49.5
-0.0218	0	0.0097	0.0082	49.4
0.0105	0.0007	0.0097	0.0075	49.4
0.039	0.0015	0.0097	0.0067	49.2
0.048	0.0015	0.0105	0.0022	49.4
0.039	-0.0008	0.0082	0.003	49.1
0.0195	-0.0015	0.0045	0.0015	49.3
0.0165	-0.003	0.0022	0	49
0.0097	-0.0038	0.0015	-0.0008	49
-0.0046	-0.0038	0.003	-0.003	49
-0.0233	-0.0046	0.0015	-0.0046	49
-0.0308	-0.0046	-0.0023	-0.0091	49
-0.027	-0.0046	-0.0053	-0.0105	49
-0.0233	0	-0.0091	-0.0068	48.8
-0.0263	0.0015	-0.012	-0.003	48.9
-0.0293	0.0022	-0.0068	0	48.8
0.0082	0.0045	0.0015	0	48.9
0.039	0.0022	0.0075	-0.0008	48.7
0.0255	0.0007	0.0007	0.0007	48.7
0.009	0.0022	-0.0113	-0.0015	48.6
-0.012	0.0015	-0.0181	0.0007	48.6
-0.0135	0.0007	-0.0195	0.003	48.5
-0.0203	0.0007	-0.0158	0.0022	48.5
-0.0315	-0.0008	-0.0091	0.0015	48.5
0.0015	-0.0008	-0.003	-0.0008	48.5
0.0045	-0.0015	-0.0008	0.0007	48.5
-0.0015	-0.0023	0.0045	0.003	48.2
0.0202	-0.0046	0.0075	0.0022	48.4
0.012	-0.0038	0.0052	-0.0015	48.1
-0.0015	-0.003	0.0037	-0.0098	48.1
-0.0181	-0.0046	0.0037	-0.0128	48
-0.0578	-0.0023	0.0052	-0.0128	48.1
-0.078	-0.0008	0.0052	-0.0135	47.8
-0.0706	-0.0023	0.0067	-0.0083	47.8
-0.0458	-0.0023	0.0045	-0.003	47.6
-0.0233	-0.0015	0.0045	-0.012	47.7
-0.012	0	0.0067	-0.0195	47.5
-0.0068	0	0.0045	-0.0068	47.6
-0.021	-0.0008	0	0	47.5
-0.0256	0.0015	-0.0008	-0.0046	47.4
-0.0008	0	0.0007	-0.0046	47.2
0.027	0.0007	-0.0008	-0.006	47.2
0.03	0.0015	-0.003	-0.0068	47.1
0.0165	0.0015	-0.003	-0.0046	47.3
0.0052	0.0007	-0.0015	-0.0015	47.1
0.0285	-0.0008	-0.003	0	47.1
0.069	0.0007	-0.0075	0.003	46.8
0.0637	0	-0.0091	0.0037	46.8
-0.0008	0	-0.0083	0.0007	46.6
-0.0428	0.0007	-0.0053	0.003	46.8
-0.0308	0	-0.0068	0.0052	46.5
-0.0428	0	-0.003	0.0037	46.7
-0.0248	-0.0008	0.0015	0	46.4
-0.015	0.0007	-0.0008	-0.0038	46.6
-0.0413	-0.0008	-0.003	-0.0075	46.4
-0.0353	-0.0015	-0.0046	-0.0068	46.3
-0.0105	-0.0008	-0.0046	-0.0068	46.4
0.0367	-0.0008	-0.006	-0.0053	46.2
0.0705	0	-0.003	-0.0023	46
0.0615	-0.0008	-0.0046	0.0007	46.1
0.0292	0	-0.0075	0.0052	45.9
0.0127	0.0022	-0.0068	0.009	46
-0.0053	0.0007	-0.0053	0.0082	45.8
-0.0315	0.0007	-0.006	0.0045	45.9
-0.0706	0.0007	-0.0053	-0.0023	45.8
-0.105	-0.0008	-0.0046	-0.0135	45.9
-0.0923	-0.0008	-0.0075	-0.0083	45.6
-0.0495	0.0015	-0.0091	0.0067	45.8
-0.0181	0.0015	-0.0075	0.0067	45.6
-0.0128	0.003	-0.003	0.003	45.8
0.024	0.0045	-0.0015	0.0037	45.7
0.045	0.0045	0.0007	0.0052	45.6
0.0397	0.003	0.003	0.0067	45.6
0.0202	0.0022	0.003	0.0067	45.6
0.009	0.0007	0.0082	0.0052	45.4
-0.0091	-0.0015	0.0112	0.0052	45.5
-0.042	-0.0023	0.0105	0.0045	45.3
-0.0181	-0.0053	0.012	0	45.3
-0.0308	-0.0053	0.0157	-0.006	45.2
-0.0158	-0.0046	0.0195	-0.0105	45.1
0.018	-0.0053	0.021	-0.0158	44.9
0.0217	-0.0038	0.0202	-0.0195	45
0.042	-0.0015	0.018	-0.0173	44.7
0.0037	-0.0015	0.0195	-0.0165	44.8
-0.0158	-0.0008	0.0142	-0.0091	44.5
-0.0158	0	0.0067	-0.0008	44.8
-0.0165	0.0015	0.0022	-0.003	44.5
-0.0203	0.0007	0.0007	0	44.5
-0.0405	0.0015	-0.0046	0.0007	44.4
-0.0218	0.0007	-0.0046	-0.0008	44.3
-0.0015	0.0007	-0.0046	-0.0015	44.3
0.0142	0	-0.0068	-0.0015	44.2
0.0187	-0.0015	-0.0046	-0.0008	44.3
0.003	-0.0023	0.0015	-0.0038	44.1
-0.0143	-0.0015	0.0015	-0.003	44
-0.0368	0.0015	-0.0053	0.0007	44.1
-0.0653	0.0007	-0.0068	-0.0008	43.9
-0.0893	-0.0015	-0.0015	-0.003	43.8
-0.078	-0.0015	0.0015	-0.003	43.6
-0.0645	-0.0008	0.003	-0.003	43.7
-0.0668	-0.0015	-0.0008	-0.0015	43.6
-0.0563	-0.0008	-0.0023	0.0022	43.6
-0.0256	0	-0.0015	0.0037	43.5
0.0112	-0.0015	0.0007	0.0015	43.5
0.0442	-0.0008	0.0045	0.0015	43.4
0.0757	-0.0015	0.0052	0	43.1
0.1065	-0.0008	0.0052	-0.003	43.6
0.1297	0	0.0075	-0.0046	43.1
0.102	-0.0023	0.0067	-0.0038	43.2
0.0345	-0.0008	0.0052	-0.0038	43.1
0.0255	0	0.0037	-0.0008	43.2
0.015	-0.0015	0.0067	0.0052	43
-0.0428	-0.003	0.0082	0.0045	43.1
-0.0413	-0.0023	0.0045	0.0007	42.9
-0.0233	-0.0008	-0.0008	0.0007	43
-0.0555	0.0007	-0.0046	-0.0046	42.9
-0.0863	0.0022	-0.0046	-0.0135	43
-0.105	0.0015	-0.0023	-0.0203	42.8
-0.0938	0.0015	-0.0023	-0.0218	42.8
-0.063	0	-0.003	-0.0158	42.8
-0.0015	-0.0015	-0.003	-0.0068	42.6
0.0855	-0.0015	-0.0015	0.0022	42.7
0.1102	-0.0008	0.0007	0.003	42.6
0.12	-0.0038	0.003	-0.0053	42.5
0.1065	-0.0038	0.0007	-0.0113	42.7
0.0232	-0.0008	-0.0008	-0.0143	42.3
-0.039	-0.0008	-0.0008	-0.0143	42.4
-0.0465	0.0022	-0.003	-0.0083	42.3
-0.0765	0.003	-0.003	-0.0008	42.3
-0.1006	0.0007	-0.003	0.0052	42.2
-0.0713	0.0007	-0.006	0.0097	42.2
-0.0525	0.0022	-0.0105	0.009	41.9
-0.015	0.0015	-0.0075	0.0097	42.2
0.0022	0.0022	-0.0068	0.009	41.8
-0.0165	0.003	-0.0091	0.0082	41.8
-0.0091	0.0015	-0.0068	0.0082	41.8
-0.0165	-0.0008	-0.0046	0.0067	41.8
-0.015	0.0007	-0.006	0.0067	41.5
-0.027	0.0015	-0.0053	0.0015	41.8
-0.0443	0.0007	-0.0015	-0.0008	41.4
0	-0.0008	0.0007	-0.0046	41.6
0.0382	-0.003	0.0075	-0.0075	41.4
0.0352	-0.0053	0.0135	-0.0083	41.5
0.0277	-0.0053	0.0112	-0.0053	41.3
0.0412	-0.0023	0.0082	-0.0038	41.3
0.0195	-0.003	0.0082	-0.0046	41
-0.024	-0.003	0.0052	-0.003	41.4
-0.0361	-0.003	0.003	-0.0053	41.2
-0.0443	-0.0008	0.0052	-0.006	41.1
-0.0195	0.0007	0.006	-0.006	41
0.009	0.0015	0.0067	-0.0091	41
0.0307	0.003	0.009	-0.0075	41
0.069	0.0015	0.0127	-0.0046	40.9
0.0675	-0.0015	0.0165	-0.0091	40.9
-0.012	-0.0015	0.0157	-0.012	41
-0.0773	-0.003	0.0127	-0.0105	40.6
-0.0338	-0.0015	0.009	-0.0053	40.9
-0.0285	-0.0008	0.0045	-0.0015	40.8
-0.0495	-0.0008	0.0015	-0.003	40.9
-0.0338	-0.0008	0	-0.0046	40.5
-0.0128	-0.0008	0.0007	-0.0105	40.5
0.018	-0.0008	-0.0015	-0.012	40.5
0.0127	-0.0008	-0.0038	-0.0105	40.8
0.0142	-0.0015	-0.003	-0.0038	40.5
0.0105	-0.0015	-0.003	0.0067	40.6
0.006	0.0007	-0.003	0.012	40.4
-0.0113	-0.0008	-0.0015	0.0105	40.5
-0.0375	0.0007	-0.0015	0.0082	40.4
-0.0278	0.0007	-0.0023	0.0067	40.4
-0.024	0.0007	-0.0053	0.003	40.2
-0.0098	0.0015	-0.0068	0.0007	40.1
-0.0113	0.0007	-0.006	0.003	40
-0.0083	0.0015	-0.003	0.0045	40.1
0.018	0.0022	-0.0046	0.0052	40
0.0195	0.0022	-0.0075	0.003	40
0.0285	0.0022	-0.0068	0.0007	40
0.0337	0.0007	-0.0015	-0.0008	40
0.0195	0.0007	0.0015	-0.0008	39.9
-0.0068	0.0015	-0.0015	-0.0008	39.9
-0.027	0.0007	-0.0053	-0.0008	39.6
-0.0458	0.0015	-0.0053	-0.0015	39.9
-0.1088	0.0007	-0.0053	-0.0015	39.6
-0.1215	0.0007	-0.0068	-0.003	39.6
-0.0721	-0.0015	-0.003	-0.0053	39.6
-0.0443	-0.0038	0.0037	-0.0068	39.6
0.0555	-0.0015	0.0037	-0.0075	39.5
0.1342	0.0015	0.0015	-0.0046	39.6
0.084	0.0015	-0.003	-0.0046	39.3
0.087	-0.0015	-0.0053	-0.0038	39.3
0.0922	-0.0023	-0.0008	-0.0053	39.3
-0.0091	-0.0008	0.0007	-0.0038	39.2
-0.0803	0	-0.003	-0.0015	39.1
-0.099	0.0007	-0.0008	-0.0015	39.3
-0.0833	-0.0015	0.0007	-0.003	39.1
-0.0315	-0.0008	-0.0038	-0.003	39.1
-0.0233	0	-0.0046	-0.0046	39.1
-0.024	-0.0008	-0.0046	-0.0053	39.1
-0.0091	0	-0.0053	-0.0046	38.8
-0.0046	-0.0008	-0.0015	-0.0038	39
0.0067	-0.0008	-0.0008	-0.0038	39.1
-0.003	-0.0008	-0.0046	-0.0046	38.9
-0.021	-0.0023	-0.0053	-0.0038	38.8
-0.0195	-0.0015	-0.0053	-0.0038	38.7
-0.0053	-0.0008	-0.0046	-0.0046	38.9
0.0127	-0.0008	-0.006	-0.003	38.6
0.0157	-0.0008	-0.0068	-0.0046	38.7
-0.0165	-0.0008	-0.0068	-0.003	38.6
-0.0398	0	-0.0046	-0.0015	38.8
-0.03	-0.0008	-0.0008	-0.0023	38.6
-0.0383	-0.0015	0.0037	-0.0046	38.7
-0.054	-0.0008	0.0022	-0.003	38.6
-0.0518	0.003	-0.0038	-0.0015	38.6
-0.0068	0.003	-0.0008	-0.0015	38.4
0.0495	0.0015	0.0082	-0.003	38.5
0.0787	-0.0023	0.0142	-0.0053	38.5
0.0855	-0.003	0.0142	-0.0046	38.5
0.0652	-0.0015	0.0082	-0.003	38.3
0.057	-0.0015	0.0022	-0.0008	38.4
0.0075	-0.0008	0.0015	0.0015	38.1
-0.0315	-0.0015	-0.0008	0.0022	38.2
-0.0263	0	0.0007	0.0045	38.1
-0.0495	-0.0008	0	0.0045	38.2
-0.0555	-0.0008	-0.0008	0.0052	38
-0.0548	-0.0008	-0.0015	0.0067	38.2
-0.0308	-0.0008	0	0.0052	38
0.0015	-0.0023	0.0007	0.003	38.1
0.021	-0.0038	-0.0015	0.0007	37.9
0.0405	-0.0046	0.0007	-0.0046	37.9
0.039	-0.0046	0.0112	-0.0091	37.8
0.0232	-0.0046	0.015	-0.012	37.7
-0.0015	-0.0008	0.0142	-0.0173	37.8
-0.0181	0	0.0142	-0.0248	37.8
-0.0293	-0.0008	0.0127	-0.0181	37.8
-0.024	-0.0008	0.0097	-0.0083	37.8
-0.0256	0	0.009	-0.0068	37.6
-0.0503	0.0015	0.0052	0	37.7
-0.066	0.0015	0.0015	0.0037	37.5
-0.0578	0.0007	0.0022	0.0045	37.5
-0.033	0.0015	0.006	0.006	37.6
-0.0203	0.003	0.0075	0.009	37.6
-0.0008	0.0015	0.0045	0.0067	37.6
0.0142	0.0007	0.003	0.0015	37.6
-0.0143	-0.0008	0.0015	-0.0008	37.4
-0.0728	0.0007	0.0007	-0.0023	37.4
-0.09	0.0015	-0.0008	-0.003	37.4
-0.0555	0.0007	-0.0015	-0.0075	37.4
-0.0346	0.0015	-0.0015	-0.0091	37.3
-0.0181	0.0015	-0.0046	-0.0113	37.3
0.0165	0	-0.0015	-0.0105	37.3
0.0547	0.0007	0.0007	-0.0083	37.5
0.1042	0.0007	0.0007	-0.0038	37
0.0802	-0.0008	-0.0023	0.0007	37.3
0.0127	0	-0.0068	0.0045	36.9
-0.012	0	-0.0091	0.0052	37.2
-0.0691	0.0007	-0.0091	0.0045	36.9
-0.093	0.0007	-0.0083	0.0052	37.1
-0.0608	0.0022	-0.0068	0.0045	36.9
-0.0256	0.003	-0.0068	0.003	36.9
0.0307	0.0015	-0.0083	0.003	36.7
0.0735	0.0007	-0.0083	0.0022	36.9
0.1252	0.0015	-0.0068	0.0015	36.6
0.1477	-0.0008	-0.006	-0.0015	36.6
0.0982	-0.003	-0.0053	-0.006	36.8
-0.0068	-0.0038	-0.0075	-0.0046	36.6
-0.0863	-0.003	-0.0083	-0.0008	36.7
-0.0908	-0.0008	-0.0068	-0.0023	36.7
-0.1118	0.0007	-0.0015	-0.0046	36.6
-0.1088	-0.0015	0.0037	-0.003	36.7
-0.0728	-0.0015	0.0045	0.0015	36.4
-0.012	-0.0008	0.0052	0.0007	36.4
0.0495	-0.003	0.0105	-0.0068	36.2
0.003	-0.0046	0.0105	-0.0091	36.5
-0.0188	-0.0015	0.0127	-0.0158	36.2
0.0322	-0.0008	0.0067	-0.0195	36.3
0.057	0.0007	0.0007	-0.0188	36
0.0607	0.0015	-0.0008	-0.0173	36.3
0.036	0.0007	-0.0008	-0.0105	36.1
0.0067	-0.0008	-0.0008	-0.0023	36
0.0157	0.0015	-0.006	0.003	36
0.0255	0.003	-0.0091	0.0037	35.9
0.0045	0.0022	-0.0091	0.006	35.8
-0.0143	0.0037	-0.0091	0.0075	35.9
-0.0398	0.0015	-0.003	0.006	35.9
-0.0713	-0.003	0.003	0.003	36
-0.099	-0.003	0.003	0.0045	35.9
-0.129	-0.0023	0.003	0.0067	35.9
-0.1253	0.0007	0.0015	0.0052	35.6
-0.0825	0.0007	0.0007	0.0045	35.8
-0.0405	0	0.0052	-0.0008	35.6
-0.0158	-0.0023	0.0067	-0.0015	35.8
0.0315	-0.003	0.0052	-0.0023	35.6
0.0675	0	0.0052	-0.0015	35.7
0.054	0	0.0105	-0.0053	35.5
-0.0008	-0.0015	0.0142	-0.006	35.5
-0.042	-0.0038	0.0142	-0.0053	35.6
-0.0195	-0.003	0.0165	-0.0068	35.6
0.0397	-0.0023	0.0157	-0.006	35.5
0.0877	-0.0015	0.0127	-0.0053	35.4
0.1275	-0.0008	0.0135	-0.0038	35.2
0.1477	0	0.0105	-0.0046	35.4
0.1125	-0.0008	0.0045	-0.0046	35.4
0.027	-0.0023	0.0007	-0.0023	35.4
-0.0713	-0.003	0.0015	-0.0015	35.2
-0.1043	0	0.003	-0.0008	35.2
-0.0833	-0.0008	0.0052	-0.003	35.1
-0.0436	-0.0023	0.0082	-0.003	35.3
-0.0181	-0.0015	0.0082	-0.0015	35.1
-0.0443	-0.0008	0.009	-0.003	35.3
-0.093	0.0007	0.009	-0.003	35
-0.1538	0.0015	0.0037	-0.0008	35.1
-0.159	0.003	0.0022	0	35
-0.084	0.0022	0.0015	0.0015	35
0.0052	0.0015	0.0015	0.0015	34.9
0.0397	0.0022	0.0037	0.0015	34.8
0.0697	0.0022	0.0052	0.003	34.8
0.1155	0.0007	0.0045	0.0045	34.8
0.1095	-0.0008	0	0.0052	34.7
0.048	-0.0015	0	0.0045	34.7
-0.015	-0.0023	0.0015	0.0037	34.7
-0.0225	-0.003	0.0015	0.0052	34.7
-0.0256	-0.0015	0	0.0045	34.5
-0.0068	-0.0008	-0.0008	-0.0008	34.6
0.0082	-0.0008	-0.0008	-0.0053	34.4
0.0105	-0.003	0	-0.0091	34.6
0.0367	-0.0023	-0.0023	-0.0105	34.3
0.0487	0	-0.0038	-0.0128	34.5
0.0645	-0.0008	-0.0046	-0.0143	34.4
0.066	-0.0038	-0.0053	-0.012	34.4
0.015	-0.0038	-0.0038	-0.0083	34.3
-0.042	-0.003	0	-0.0083	34.3
-0.0825	0.0007	-0.0015	-0.0105	34.3
-0.1275	0.003	-0.0008	-0.0135	34.2
-0.1381	0.0015	0.0067	-0.0165	34.3
-0.093	-0.0008	0.0082	-0.0165	34.2
-0.027	-0.0008	0.0045	-0.0105	34.2
-0.0008	0.0022	-0.0015	-0.0046	34.1
-0.0068	0.0015	-0.0046	0.0015	34.2
0.0195	0.0015	-0.0046	0.0045	34.1
0.0202	0.0015	-0.0075	0.0045	34.1
0.03	0.0037	-0.0135	0.0052	34.2
0.0607	0.0037	-0.015	0.003	34
0.0382	0.0007	-0.0128	0.0015	34.1
0.027	0.0007	-0.0128	0.0045	34
0.0307	0	-0.0105	0.0045	33.8
0.0195	0.0007	-0.0113	0	33.7
0.009	0.0007	-0.0165	-0.0008	33.8
-0.0068	-0.0008	-0.015	0.0052	33.9
-0.0053	-0.003	-0.0158	0.0187	33.8
0.0045	-0.003	-0.0165	0.027	33.7
-0.0308	-0.0015	-0.012	0.0247	33.8
-0.0675	-0.0008	-0.0113	0.0127	33.7
-0.1058	0.0007	-0.0105	-0.0135	33.8
-0.1553	0.0007	-0.0068	-0.039	33.6
-0.1065	0.0007	-0.0046	-0.0405	33.9
-0.0195	0.0007	-0.003	-0.0181	33.5
0.042	-0.0008	-0.003	-0.0098	33.7
0.1087	0.0007	-0.0008	-0.003	33.6
0.0787	0	-0.0008	0.0015	33.6
0.0352	-0.0008	-0.0015	-0.0046	33.4
0.0315	-0.0008	0.0037	-0.0008	33.3
-0.0353	-0.0023	0.0037	-0.0015	33.6
-0.039	-0.0015	0.0007	0.0015	33.3
0.027	-0.0015	0.0052	0.0007	33.3
0.0277	-0.0015	0.0052	-0.006	33.3
0.0172	0	0.003	-0.0091	33.3
-0.0015	0	0.0037	-0.0098	33.2
-0.0533	-0.0008	0.0067	-0.0091	33.3
-0.078	0	0.0105	-0.012	33.2
-0.0698	0.0007	0.0105	-0.0068	33.1
-0.0443	-0.0008	0.009	-0.0046	33.1
-0.0008	-0.0008	0.0075	0	33.1
0.0135	-0.0023	0.003	0.0037	33.1
0.0232	-0.0038	-0.0015	0	33
0.027	-0.003	-0.0053	0.0022	33.1
0.0322	-0.0023	-0.0053	0.0075	33
0.003	-0.003	-0.003	0.0157	32.9
-0.1275	-0.003	-0.0015	0.0202	32.9
-0.1763	-0.0008	-0.0008	0.0202	32.8
-0.129	-0.0015	0.0022	0.018	32.8
-0.093	-0.0015	0.0052	0.009	32.8
-0.0346	0.0007	0.0075	-0.0023	32.9
0.0315	0.0015	0.009	-0.0203	32.8
0.1822	0.0015	0.009	-0.0233	32.8
0.315	-0.0015	0.009	-0.0128	32.8
0.2512	-0.003	0.012	-0.0053	32.8
0.1125	-0.003	0.012	-0.0008	32.8
0.0195	-0.0008	0.0105	-0.0068	32.7
-0.078	0.0007	0.009	-0.006	32.7
-0.1381	0.0037	0.0067	-0.0008	32.7
-0.1133	0.003	0.0082	-0.003	32.8
-0.0885	0.0015	0.0112	-0.006	32.5
-0.0908	-0.0008	0.009	-0.0068	32.4
-0.06	-0.0015	0.0075	-0.0075	32.7
-0.03	0	0.0082	-0.0091	32.4
-0.0315	0	0.0075	-0.0075	32.4
-0.021	-0.0015	0.009	-0.0083	32.4
-0.0323	-0.0008	0.0127	-0.0046	32.4
-0.0143	-0.0008	0.012	0	32.3
0.057	0.0007	0.0067	0.0015	32.4
0.0697	0.003	0	0.003	32.3
0.0495	0.0022	-0.0023	0.003	32.3
0.0667	0.0007	-0.0038	0.0022	32.4
0.078	0.0007	-0.0038	0.0007	32.2
0.0135	0.0007	-0.003	0.0022	32.1
-0.0383	0.003	-0.006	0.0022	32.2
-0.0668	0.003	-0.0038	0	32.2
-0.1238	0.0015	0.0015	0	32.1
-0.1613	0.003	0.006	0.0015	32
-0.1118	0.0022	0.012	0.0015	32
-0.0053	-0.0008	0.0157	0.0022	32
0.0172	-0.0008	0.0195	0.003	32.1
0.0217	-0.003	0.0217	0.0007	31.9
0.0907	-0.0053	0.0202	-0.0023	32
0.0877	-0.0053	0.0202	-0.0046	31.9
-0.0128	-0.0053	0.0135	-0.0053	32.2
-0.078	-0.0038	0.006	-0.0053	31.9
-0.0698	-0.0015	0.003	-0.0068	32.1
-0.03	-0.0015	-0.0008	-0.0046	31.7
0.0255	-0.0008	-0.0023	-0.0038	31.9
0.0592	0.0007	0	-0.003	31.9
0.072	0.0007	0.0015	-0.0053	32.1
0.0982	0.0007	0.0045	-0.0053	32
0.0847	-0.0015	0.009	-0.0068	31.9
0.009	-0.0015	0.012	-0.006	31.9
-0.042	0.0007	0.0067	-0.0053	31.9
-0.0653	-0.0008	0.0052	-0.006	31.8
-0.0578	-0.0015	0.003	-0.003	31.9
-0.0278	-0.0023	-0.003	-0.0008	31.7
-0.0181	-0.0046	-0.0083	0	31.9
0.0187	-0.0015	-0.0105	-0.0008	31.6
0.0322	0.0007	-0.0135	0.0015	31.9
0.0135	0	-0.0158	0.0015	31.5
-0.0458	-0.0015	-0.0135	-0.0008	31.8
-0.09	-0.0008	-0.012	0.0007	31.5
-0.048	0.003	-0.015	0.0037	31.8
-0.0143	0.0045	-0.015	0.0105	31.5
0.0127	0.0022	-0.0083	0.012	31.6
0.042	0.0022	-0.0053	0.0082	31.6
0.099	0.0022	-0.0083	0.0052	31.5
0.1185	0.0007	-0.0098	0.0007	31.5
0.0352	-0.0015	-0.0068	-0.006	31.5
-0.0278	-0.0015	-0.0023	-0.0113	31.4
-0.093	-0.0008	0.0007	-0.0181	31.6
-0.1763	-0.0038	0.003	-0.0195	31.3
-0.1785	-0.0046	0.0052	-0.0195	31.5
-0.0953	-0.003	0.0015	-0.015	31.3
-0.0218	-0.003	-0.0046	-0.0105	31.4
0.0285	-0.0008	-0.0068	-0.0091	31.2
0.033	-0.0008	-0.006	-0.0098	31.4
0.0067	-0.0023	-0.0046	-0.0098	31.2
0.0052	-0.0008	-0.0053	-0.0083	31.3
-0.0015	0.0007	-0.0083	-0.0091	31
-0.0091	0.0007	-0.0113	-0.0091	31.3
-0.0285	0.0015	-0.0105	-0.0083	31.2
-0.006	-0.0008	-0.0075	-0.0053	31
0.0412	0	-0.0083	-0.0023	31.1
0.0165	0	-0.0068	-0.0008	31.1
-0.0091	-0.0015	-0.003	-0.0008	31.1
0.012	-0.0015	0	-0.0015	31.1
0.0157	-0.0008	-0.0008	0.0015	31.1
-0.0218	-0.0008	-0.0046	0.0045	31
-0.0308	-0.0008	-0.003	0.003	30.8
-0.024	-0.0008	-0.0015	0.0045	31.2
-0.0256	0	-0.0015	0.0067	31
-0.0256	0.0007	-0.003	0.0082	31.1
-0.0585	0.0015	-0.0008	0.0097	31
-0.0503	0.0015	-0.0068	0.009	31
-0.0165	0.0015	-0.0143	0.0067	30.8
-0.033	0.0007	-0.0143	0.0045	31
-0.0188	-0.0008	-0.0143	0.003	30.8
-0.0143	-0.0008	-0.012	0.0007	30.9
-0.0315	-0.0008	-0.0068	-0.0008	30.8
0.0045	0.0015	-0.003	-0.0046	30.9
0.0442	0.0007	0.0052	-0.0053	30.8
0.045	-0.0008	0.0112	-0.0038	30.8
0.0037	-0.0015	0.0127	-0.0023	30.7
0.0225	-0.0015	0.009	0.0007	30.8
0.0997	-0.0008	0.0045	0	30.7
0.0937	-0.0008	0.0082	-0.0038	30.8
0.0195	-0.003	0.009	-0.0046	30.5
0.024	-0.003	0.0052	-0.0053	30.7
0.0675	-0.003	0.0082	-0.0068	30.6
0.0315	-0.0015	0.0052	-0.006	30.7
0.0082	0	0.003	-0.003	30.5
-0.0068	-0.0008	0.0015	-0.0023	30.7
-0.0143	0	0.0007	-0.0023	30.6
-0.0165	-0.0008	-0.0008	-0.0015	30.6
-0.0256	0.0007	-0.0023	-0.0023	30.6
0.0037	0.0015	-0.0015	-0.003	30.6
-0.0135	0.0007	-0.0008	-0.0023	30.7
-0.039	0.0015	0.0007	0	30.5
-0.0495	0.0037	0.0045	0.003	30.6
-0.0615	0.0015	0.0082	0	30.6
-0.0743	-0.0008	0.0105	-0.0008	30.5
-0.1073	0	0.0067	0.0015	30.4
-0.081	0.0007	0.0022	0.0007	30.4
-0.0458	0.0007	0.0045	-0.0015	30.4
-0.024	-0.0008	0.0067	-0.0023	30.3
0.0225	0.0007	0.0082	0	30.6
0.054	0.0015	0.0082	-0.0015	30.2
0.063	0.0007	0.0135	-0.003	30.4
0.06	-0.0008	0.0202	-0.0053	30.3
0.0232	-0.0023	0.021	-0.0075	30.2
-0.039	-0.0015	0.0135	-0.0046	30.2
-0.0143	-0.0008	0.009	-0.003	30.2
0.0187	-0.0015	0.009	-0.0046	30.4
0.0045	-0.0015	0.0075	-0.0046	30.2
0.0172	-0.0023	0.0097	-0.0046	30.2
0.0082	-0.0023	0.009	-0.006	30.2
-0.0053	0	0.0067	-0.003	30.1
-0.0203	0.0015	0.003	-0.003	30.2
-0.0728	-0.0008	0.0022	-0.0053	30.2
-0.12	-0.003	-0.0008	-0.0046	30.2
-0.1223	-0.0008	-0.0083	-0.0038	30
-0.0968	0.0007	-0.0143	0	30
-0.0923	0.0015	-0.0203	0.003	29.9
-0.0495	0	-0.015	0.0015	29.9
0.0247	-0.0008	-0.0053	-0.0008	29.9
0.048	0.0007	0.003	-0.0015	30
0.0015	0	0.0082	-0.003	30.1
-0.0015	-0.0008	0.0045	-0.003	29.9
0.0607	-0.0015	-0.0008	-0.0046	30.1
0.0217	-0.0023	-0.0046	-0.0053	29.8
-0.003	-0.003	-0.0075	-0.0053	30
0.018	-0.0046	-0.0023	-0.0068	29.9
0.0277	-0.003	-0.0038	-0.006	29.9
0.0675	0	-0.0068	-0.0046	29.9
0.0607	0	-0.0008	-0.0053	29.9
0.0952	0	0.0007	-0.0053	29.9
0.1057	-0.0008	0.0037	-0.006	30
0.0337	0.0007	-0.0008	-0.003	29.7
-0.0068	0.003	-0.0083	0.0015	29.8
-0.0578	0.0022	-0.0083	0.003	29.8
-0.0743	0.0015	-0.0083	0.0045	29.7
-0.0458	0.0015	-0.0075	0.0045	29.6
-0.0256	0.0015	-0.0098	0.006	29.6
-0.0405	0.0007	-0.0083	0.006	29.7
-0.0743	0	-0.0091	0.0045	29.8
-0.063	0.0015	-0.0068	0.003	29.6
-0.048	0.0045	-0.0015	0.0015	29.9
-0.033	0.0015	0.003	-0.0015	29.5
0.0172	-0.0023	0.0067	-0.006	29.7
0.0682	-0.0046	0.0045	-0.0046	29.6
0.0637	-0.003	0	-0.0015	29.7
-0.003	-0.0008	-0.0038	-0.0023	29.5
-0.0323	-0.0015	-0.0038	-0.003	29.7
-0.0368	-0.0015	-0.0008	-0.0068	29.5
-0.0293	-0.0015	0.003	-0.0053	29.6
-0.0008	-0.0015	0.009	-0.0053	29.4
0.0217	-0.0046	0.012	-0.0068	29.4
0.0607	-0.003	0.0067	-0.0015	29.5
0.0637	0.0007	0.0075	0.0007	29.6
0.0202	-0.0015	0.0127	-0.0015	29.5
-0.0256	-0.0046	0.0165	-0.006	29.6
-0.0585	-0.0068	0.0217	-0.0113	29.3
-0.0758	-0.0046	0.0157	-0.0128	29.5
-0.0878	-0.003	0.0195	-0.0165	29.3
-0.0615	-0.0068	0.0217	-0.0165	29.4
-0.003	-0.0053	0.0157	-0.0135	29.3
0.0202	-0.003	0.0127	-0.0105	29.4
-0.024	0	0.0052	-0.0046	29.2
-0.0293	0.003	0.0052	0.0007	29.5
0.0562	0.0007	0.0052	0.0037	29.3
0.0585	0.0015	0.003	0.003	29.4
0.0037	0.003	0.0015	0.0022	29.2
0.0082	0.0045	-0.003	0.0007	29.3
0.0255	0.0045	-0.0046	-0.0046	29.2
-0.0218	0.003	-0.003	-0.0068	29.2
-0.0938	0.003	-0.003	-0.006	29.2
-0.0315	0.0015	-0.0023	-0.003	29.4
0.045	0	0.0007	0.0015	29
0.0052	0.0007	0.0015	0.0045	29.3
-0.027	0	0.0007	0.0067	29
-0.0105	0	-0.0046	0.0082	29.2
-0.0293	0.0007	-0.0083	0.009	29
-0.0143	-0.0008	-0.0068	0.009	29.3
-0.0135	-0.0008	-0.003	0.0082	29
-0.1485	-0.0023	-0.0015	0.0045	29.2
-0.1598	-0.0023	0	0.0015	28.8
-0.0353	-0.0015	0.0052	0	29
0.0337	-0.0023	0.0052	-0.0023	28.9
0.057	-0.0008	0.0007	-0.0023	28.9
0.0457	0.0015	-0.003	-0.003	29
0.0367	0.0015	-0.0053	-0.003	28.8
0.0645	-0.0008	-0.0091	-0.0053	28.8
0.0555	-0.0008	-0.0068	-0.0068	28.9
0.0292	-0.0015	-0.003	-0.006	28.9
0.0735	-0.0008	-0.0083	-0.003	28.8
0.087	0.0015	-0.0113	-0.0015	28.8
0.0855	0.003	-0.0113	-0.0008	28.8
0.075	0.003	-0.0105	-0.0015	28.7
0	0.0015	-0.0143	-0.0015	28.8
-0.0518	0.0045	-0.0143	-0.0008	28.6
-0.1043	0.0045	-0.0105	-0.0008	28.8
-0.1426	0.003	-0.0113	0	28.5
-0.12	0.003	-0.0083	-0.0008	28.8
-0.1411	0	0.0007	-0.0046	28.5
-0.1485	-0.003	0.0045	-0.006	28.7
-0.0615	-0.0008	-0.0015	-0.003	28.6
0.0075	0.0007	-0.0015	-0.0038	28.6
0.0652	0	-0.0023	-0.0046	28.7
0.1365	0	-0.0083	-0.0038	28.7
0.1372	0.0007	-0.0105	-0.0046	28.5
0.0532	-0.0008	-0.0113	-0.0038	28.5
-0.0315	0.0015	-0.0068	-0.003	28.4
-0.0346	0.003	-0.0046	-0.0008	28.6
-0.0015	0.0007	0.003	0.0052	28.5
0.015	0.0007	0.009	0.0045	28.4
0.0367	-0.0015	0.0127	-0.003	28.4
-0.0038	-0.003	0.015	-0.003	28.4
-0.0728	-0.0015	0.012	-0.0008	28.4
-0.0721	-0.0015	0.0097	-0.0015	28.4
-0.0728	-0.003	0.0105	-0.0046	28.4
-0.0465	-0.0053	0.0142	-0.0068	28.4
-0.0398	-0.0046	0.0135	-0.0075	28.3
-0.0098	-0.0023	0.012	-0.0068	28.4
0.0832	0	0.0082	-0.0038	28.4
0.0307	0.0007	0.0045	-0.0015	28.3
-0.0691	-0.0008	0.003	-0.0015	28.4
-0.0975	-0.0008	0.006	-0.0038	28.2
-0.0615	-0.0015	0.0105	-0.0046	28.3
0.0135	-0.003	0.009	-0.0046	28.3
0.057	-0.0015	0.009	-0.0053	28.2
0.1042	-0.0008	0.0105	-0.0053	28.1
0.159	-0.0023	0.009	-0.0053	28.2
0.1012	-0.0015	0.006	-0.0038	28.2
0.0037	-0.0015	0.0045	-0.0046	28.2
0.0015	-0.0015	-0.0015	-0.0038	28.2
-0.0218	-0.0015	-0.006	-0.003	28
-0.0203	-0.0015	-0.003	-0.0038	28.1
0.0015	-0.0015	-0.003	-0.0046	28
-0.0383	0	-0.003	-0.0008	28
-0.078	0	0.0022	-0.003	28.1
-0.093	-0.0023	0.0045	-0.0038	27.9
-0.0353	-0.0015	0.0037	-0.0038	28.2
-0.0278	-0.0015	0.0067	-0.0068	27.9
-0.0675	-0.0038	0.0052	-0.0068	28
-0.0593	-0.0015	0	-0.0046	27.9
-0.0555	-0.0008	-0.0015	-0.0038	28
-0.06	0.0007	-0.003	0	27.9
-0.054	0.003	-0.0068	0.0037	27.9
0.0112	0.003	-0.0068	0.0022	27.7
0.0885	0.0015	-0.006	0.0007	27.8
0.1245	0.0007	-0.003	-0.0008	27.9
0.141	0.0007	-0.0015	0	27.9
0.0952	0.0007	-0.0015	0.0007	27.8
0.0232	0.0015	0.003	0.0007	27.8
-0.0503	0.0022	0.006	-0.0008	27.8
-0.1163	-0.0008	0.0037	-0.0015	27.6
-0.111	-0.0023	0.0022	-0.0038	27.6
-0.1065	-0.003	0.0037	-0.003	27.8
-0.0721	-0.0015	0.0022	-0.0008	27.6
0.0195	0.0007	0.003	-0.0015	27.8
0.042	0	0.003	-0.0015	27.5
0.0315	-0.003	0.0067	-0.0023	27.9
-0.0046	-0.0023	0.0082	-0.003	27.5
-0.0436	-0.0015	0.0075	-0.0015	27.7
-0.0315	-0.0015	0.0015	-0.0015	27.4
-0.0353	0.0007	-0.003	0.0007	27.6
-0.0158	-0.0008	-0.0015	-0.0015	27.4
0.054	-0.0008	-0.0015	-0.0046	27.6
0.1005	0.0007	-0.0008	-0.003	27.5
0.0712	0.0015	-0.0046	-0.0015	27.4
-0.0428	0.0022	-0.0068	-0.0008	27.4
-0.1388	0.0015	-0.0075	-0.0023	27.4
-0.1463	0.0007	-0.0143	0.0007	27.3
-0.1043	0.0007	-0.0218	0.003	27.5
-0.0023	0.0015	-0.0233	0.0015	27.3
0.1102	0.0007	-0.0165	0.0022	27.4
0.12	-0.0008	-0.0135	0.0022	27.2
0.0765	-0.0008	-0.0068	-0.0008	27.6
0.057	-0.0015	-0.003	-0.0008	27.3
0.024	-0.0023	-0.0068	0.0007	27.4
-0.0511	-0.003	-0.0068	-0.0008	27.1
-0.1118	-0.0046	0	-0.0046	27.3
-0.099	-0.0046	0.0105	-0.0038	27.3
-0.1215	-0.0023	0.0142	-0.0015	27.4
-0.153	0.003	0.0127	-0.0015	27.3
-0.09	0.0007	0.0135	-0.0046	27.4
0.0607	-0.0008	0.0142	-0.0046	27.3
0.1822	0.0022	0.015	-0.0046	27.2
0.1755	0.0007	0.015	-0.006	27.3
0.1342	-0.0038	0.018	-0.0091	27.3
0.0615	-0.0053	0.0142	-0.0091	27.1
0.027	-0.0038	0.0082	-0.0098	27.2
-0.0053	-0.0046	0.009	-0.0105	27.1
-0.0315	-0.0046	0.009	-0.0091	27.2
0.0015	-0.003	0.0037	-0.0068	27.1
-0.0105	-0.0015	-0.0046	-0.0053	27.3
-0.0346	0.0007	-0.0105	-0.003	27
-0.0511	0.0007	-0.0135	-0.0008	27.2
-0.0353	0.0015	-0.015	-0.0008	27
-0.0285	0.0022	-0.0128	-0.0015	27.1
-0.0158	0.0015	-0.0143	0	27
0.012	0.0022	-0.0165	-0.0008	27.1
0.027	0.003	-0.015	0.0007	27.1
0.0292	0.0015	-0.0173	0.003	27
-0.0135	0.0015	-0.0181	0.003	27
-0.0503	0.0037	-0.0203	0.0045	26.9
-0.0675	0.0045	-0.0218	0.0045	27
-0.1058	0.0067	-0.0128	0.0045	26.9
-0.1905	0.0052	-0.0053	0.003	27.1
-0.1905	0.0045	0.009	0.0007	27
0.0007	0.0015	0.0195	-0.003	26.9
0.0832	-0.003	0.0277	-0.0053	26.9
0.0292	-0.0053	0.036	-0.0083	26.8
0.1185	-0.0068	0.033	-0.0083	27
0.1672	-0.0068	0.0292	-0.0068	26.8
0.0952	-0.003	0.0165	-0.003	26.9
0.0787	-0.0008	0.0075	-0.0015	26.8
0.0825	-0.0008	0.0015	0	27
0.0577	0.0007	-0.0053	0.0007	27
0.0105	0.0015	-0.0046	0	26.6
-0.0293	0.0015	-0.003	0	27
-0.1095	0.0015	0.0007	-0.0015	26.7
-0.162	0.0007	0.003	-0.003	26.8
-0.1328	-0.0008	0.0007	-0.0038	26.8
-0.1463	-0.0008	0.0007	-0.0023	26.9
-0.1726	0.0007	-0.0008	-0.003	26.7
-0.1328	-0.0008	-0.0008	-0.003	26.9
-0.0795	0.0015	-0.0046	-0.0008	26.5
-0.0308	0.0022	-0.0068	-0.0008	26.7
0.078	-0.0008	-0.0053	-0.0023	26.6
0.2415	-0.0023	-0.003	-0.0015	26.8
0.2835	-0.0015	-0.003	-0.003	26.7
0.1597	-0.0015	-0.003	-0.0046	26.6
0.0637	-0.0008	-0.0046	-0.003	26.5
0.0262	-0.0015	-0.0075	-0.0023	26.5
0.0277	-0.0023	-0.0091	-0.0046	26.3
-0.0181	-0.003	-0.0091	-0.0046	26.5
-0.1298	-0.0015	-0.0068	-0.0046	26.5
-0.1913	-0.0008	0	-0.0046	26.5
-0.2213	-0.0008	0.0052	-0.0046	26.5
-0.2078	0	0.0097	-0.0053	26.5
-0.1575	0.0007	0.0105	-0.0015	26.4
-0.057	0.0015	0.0082	-0.0015	26.5
0.093	-0.0008	0.012	-0.003	26.2
0.1785	-0.0015	0.0105	-0.0023	26.5
0.1597	-0.0015	0.012	-0.0008	26.4
0.099	-0.0015	0.006	0.0052	26.3
0.0615	-0.0008	0.0007	0.0082	26.4
0.0015	-0.0008	-0.0008	0.0037	26.2
-0.0503	0.0007	-0.0046	-0.0023	26.3
-0.0578	0.0007	-0.0046	-0.0105	26.2
-0.0983	-0.0015	-0.0053	-0.012	26.1
-0.1125	-0.0008	-0.0091	-0.012	26.3
-0.048	-0.0015	-0.0128	-0.012	26.1
0.0345	-0.0023	-0.0181	-0.0091	26.3
0.0885	0.0007	-0.0195	-0.006	26
0.1327	0.0015	-0.0218	-0.0015	26.2
0.15	0.0007	-0.024	-0.0023	25.9
0.0592	0.0022	-0.0218	-0.0023	26.2
-0.0945	0.0007	-0.0195	-0.0008	25.9
-0.198	0.0007	-0.0158	-0.0015	26
-0.2783	0.0015	-0.0083	-0.0015	25.9
-0.2708	-0.0008	0	-0.0015	26.1
-0.1741	0	0.0052	0	25.8
-0.0856	0.0015	0.009	0.0015	26.1
0.0532	0	0.009	0.0015	26
0.2332	-0.0008	0.0112	0.0022	25.9
0.3645	-0.0015	0.0202	-0.0015	26
0.3105	-0.0023	0.0202	-0.0023	26
0.0862	-0.003	0.0157	-0.0008	25.8
-0.0585	-0.0038	0.0157	-0.0023	25.8
-0.0405	-0.0046	0.0157	-0.0038	25.9
0.0285	-0.003	0.0105	-0.003	25.9
0.0472	-0.0008	0.0082	0.0015	25.6
0.027	0.0007	0.0052	0.003	25.8
0.0007	0.0015	0.0082	0.003	25.6
-0.0593	0.0007	0.0127	0.0022	25.7
-0.1373	0.0015	0.018	0.003	25.6
-0.1403	0.0045	0.0187	0.0022	25.8
-0.0361	0.0052	0.0142	0.0015	25.4
0.0255	0.003	0.015	0.0022	25.6
-0.024	0.0007	0.009	0.0007	25.6
-0.0443	-0.0008	0.0045	-0.0008	25.6
-0.0165	-0.0008	0.0052	-0.0008	25.6
0.03	0	0.0082	-0.0023	25.4
0.0615	-0.0015	0.0037	-0.0023	25.7
0.0052	0.0015	0.0007	-0.0053	25.6
-0.0293	0.0022	-0.0008	-0.0068	25.6
-0.0908	0.0007	-0.0023	-0.0053	25.5
-0.2026	0	-0.003	-0.0046	25.6
-0.1673	-0.0008	-0.0008	-0.006	25.5
-0.0563	-0.003	0.0007	-0.0075	25.5
0.0915	-0.003	0.0015	-0.0083	25.4
0.189	-0.0008	0.006	-0.0091	25.3
0.1605	0.0007	0.0037	-0.0083	25.3
0.0457	-0.0008	0.0127	-0.0075	25.2
-0.0953	-0.003	0.024	-0.0091	25.4
-0.0668	-0.0046	0.0225	-0.0083	25.4
-0.0458	-0.0038	0.0255	-0.0068	25.3
-0.0293	-0.003	0.0195	-0.0046	25.5
0.0142	-0.0023	0.0082	-0.0008	25.2
0.0225	-0.0015	0.006	-0.0008	25.5
0.0292	-0.0046	0.012	-0.0023	25.4
-0.0105	-0.0046	0.0112	-0.0008	25.3
0.033	-0.0038	0.009	0	25.3
0.0547	-0.0046	0.0112	-0.0015	25.4
0.018	-0.0038	0.0052	-0.0008	25.4
-0.0518	-0.0015	0	-0.0008	25.3
-0.054	-0.003	0	-0.0015	25.2
-0.0068	-0.003	-0.0038	0	25.1
-0.0293	0	-0.0098	0.0015	25.2
-0.0143	0.0015	-0.0128	0.003	24.9
0.0397	0.0037	-0.0143	0.0037	25.2
0.0802	0.0037	-0.0158	0.0045	25.1
-0.0165	0.0045	-0.0195	0.0052	25.2
-0.0668	0.0052	-0.0203	0.0045	25.2
0.0105	0.0045	-0.0158	0.0052	25
-0.0278	0.0022	-0.0091	0.0052	25.3
-0.084	0.0015	-0.0008	0.0015	24.9
-0.0188	0.0015	0.0015	0.0007	25.2
0.0592	0	0.003	-0.003	25
0.1095	0	0.009	-0.0075	25.3
0.1297	-0.0008	0.0142	-0.0083	25.1
0.054	-0.0023	0.0157	-0.0098	25.1
-0.0683	-0.0008	0.0127	-0.0113	25
-0.1703	-0.0023	0.0105	-0.0128	25.2
-0.1298	-0.0015	0.0022	-0.012	24.7
-0.0443	0.0007	-0.0068	-0.0075	25.1
0.0052	0.0015	-0.006	-0.0046	25.1
0.0517	0.0015	-0.0046	-0.003	25
0.0142	0.0015	-0.0046	-0.003	24.9
-0.012	0.0007	-0.0023	-0.0053	25
-0.0615	-0.0023	0.0082	-0.0075	24.9
-0.075	-0.0046	0.0135	-0.0091	24.9
0.009	-0.0046	0.0052	-0.0053	24.9
0.0037	-0.0015	-0.0083	-0.0008	25
0.0067	0	-0.0128	-0.0008	24.8
0.0217	-0.0015	-0.0091	0	24.9
-0.0143	-0.0015	-0.0105	-0.0008	24.9
-0.0256	-0.0015	-0.012	0	24.9
-0.054	-0.0008	-0.0128	0	24.8
-0.0518	0.0007	-0.0113	-0.0008	24.9
-0.012	0.0007	-0.0083	0	24.8
0.009	0.0015	-0.0105	0.0015	25
0.0142	0.003	-0.0135	0.0007	24.8
-0.006	0.0022	-0.0195	0.0007	24.9
-0.0203	0.0022	-0.0233	0.0015	24.7
-0.0195	0.0015	-0.0225	0.0015	24.7
-0.0645	0.0007	-0.0203	0.003	24.9
-0.0713	0.0015	-0.0158	0.0022	24.7
0.0322	-0.0008	-0.0053	0.0007	24.8
0.0637	-0.0008	0.0052	0.0007	24.7
-0.0346	-0.0008	0.0082	-0.0008	24.7
-0.075	-0.0008	0.0105	-0.0015	24.8
-0.0105	-0.003	0.0157	-0.0046	24.8
-0.027	-0.0068	0.033	-0.0091	24.7
-0.0173	-0.0083	0.039	-0.0105	24.9
0.0555	-0.0075	0.0292	-0.0083	24.6
0.0442	-0.0046	0.0172	-0.003	24.7
0.0952	-0.003	0.0157	-0.0053	24.8
0.1275	-0.0053	0.0187	-0.0053	24.7
0.0435	-0.0046	0.009	-0.003	24.6
-0.0046	-0.0023	0	-0.0008	24.6
-0.0083	0.0015	-0.0128	0.0015	24.3
-0.0143	0.0045	-0.0218	0.0022	24.5
-0.0098	0.0045	-0.021	0.003	24.5
-0.0015	0.0052	-0.0218	0.0037	24.5
0.0015	0.0052	-0.0233	0.003	24.4
0.009	0.0052	-0.0278	0.0015	24.4
0.0007	0.0052	-0.0353	0.0015	24.3
-0.0143	0.003	-0.0405	0.0007	24.3
-0.0413	0.0007	-0.0405	0.0007	24.5
-0.0743	0.0007	-0.0353	-0.0008	24.3
-0.048	0.0007	-0.0263	-0.003	24.3
0.0165	0.0015	-0.0195	-0.0023	24.4
0.0345	-0.0015	-0.0203	-0.0015	24.3
0.0277	-0.0008	-0.0233	-0.0008	24.3
-0.033	0.0007	-0.0248	0.0015	24.4
-0.1643	0.0015	-0.0248	0.003	24.3
-0.219	0.0022	-0.0181	0.003	24.2
-0.1815	0.0015	-0.0075	-0.0008	24.6
-0.09	-0.0008	0.0037	-0.0038	24.2
0.0555	-0.0023	0.0157	-0.0068	24.4
0.1792	-0.0053	0.0255	-0.0091	24.2
0.2677	-0.0083	0.0307	-0.012	24.4
0.2085	-0.0083	0.024	-0.0105	24.2
0.0585	-0.0053	0.0127	-0.006	24.4
-0.0053	-0.0008	0.0082	-0.006	24.1
-0.0998	0	0.0082	-0.0046	24.2
-0.1478	0.0007	0.0135	-0.0053	24
-0.1298	-0.0015	0.0195	-0.0098	24.3
-0.084	-0.0038	0.0195	-0.0083	24
0.0067	-0.003	0.0225	-0.0083	24.1
0.0457	-0.0023	0.0247	-0.006	24.1
0.078	0	0.0225	-0.003	23.9
0.0517	0	0.0157	0.0007	24.2
-0.0158	0	0.0142	-0.0008	24.2
-0.0698	0	0.0172	-0.0015	23.8
-0.093	0.0015	0.0157	0.0007	24.2
-0.0653	0.003	0.0135	0.0045	23.8
-0.0323	0.003	0.0082	0.0037	24
0.051	0.0045	0.0045	0.0052	23.8
0.0967	0.0037	-0.0015	0.0082	24
0.0142	0.0007	-0.003	0.009	23.8
-0.1628	0	-0.0023	0.0045	24.1
-0.2806	0.0007	0.0045	-0.0008	23.7
-0.2498	0.0022	0.0142	-0.0023	23.8
-0.1538	0.0045	0.0202	-0.0046	23.7
0.0405	0.0052	0.0232	-0.006	23.6
0.2482	0.003	0.0262	-0.0083	23.8
0.315	-0.0023	0.039	-0.0128	23.7
0.261	-0.0083	0.0465	-0.0181	23.7
0.0787	-0.0098	0.042	-0.0158	23.6
-0.0593	-0.0075	0.0232	-0.0053	23.6
-0.0691	-0.0008	0.0052	-0.0015	23.6
-0.042	0.0015	-0.003	-0.0015	23.6
0.039	0.0015	-0.006	0	23.6
0.0945	0.0015	-0.0038	-0.003	23.4
0.1245	-0.0015	-0.0008	-0.0053	23.7
0.0757	-0.0008	0.0022	-0.0046	23.6
-0.0578	-0.0008	0.003	-0.003	23.6
-0.1403	-0.0008	-0.0015	-0.003	23.4
-0.1268	-0.0015	-0.0053	-0.0015	23.4
-0.0518	-0.0008	-0.0068	-0.0008	23.4
-0.0428	0.0022	-0.0083	0	23.3
-0.054	0.0015	-0.012	-0.0008	23.3
-0.0181	0	-0.0105	-0.0008	23.3
-0.0091	-0.0008	-0.012	0	23.3
-0.0158	0.0007	-0.0165	0.0015	23.3
-0.0195	0.0045	-0.0233	0.0022	23.3
-0.024	0.0045	-0.0293	0.003	23.2
-0.0293	0.0037	-0.0315	0.0037	23.3
-0.0105	0.0022	-0.0293	0.003	23.2
0.0022	0.0007	-0.027	0.0007	23.1
-0.0293	0.0007	-0.0248	0.0007	23.2
-0.0608	0.0022	-0.0195	0	23.1
-0.0645	0.0022	-0.0181	0.0007	23
-0.0308	0.003	-0.015	-0.0015	23.1
0.0435	0.0015	-0.0083	-0.003	23.2
0.111	-0.0015	-0.0015	-0.0053	23
0.1995	-0.0023	0.0052	-0.0068	23
0.1837	-0.0038	0.0097	-0.006	23.1
0.024	-0.0046	0.0105	-0.0068	23.1
-0.0188	-0.0046	0.0082	-0.0053	23.2
-0.075	-0.0046	0.0075	-0.006	22.9
-0.1163	-0.006	0.009	-0.0075	23.1
-0.081	-0.0046	0.0082	-0.0053	22.9
-0.0878	-0.0046	0.0067	-0.0046	23.1
-0.039	-0.0046	0.0037	-0.003	22.8
-0.0353	-0.0038	0.0037	-0.003	22.9
-0.0218	-0.0038	0.0022	-0.0008	22.8
-0.0068	-0.0008	-0.0015	0.0007	23
-0.0068	0	-0.0038	0	22.7
0.0547	0.0007	-0.0075	0.0007	22.9
0.0652	0.0037	-0.0068	0.0015	22.7
0.0045	0.0045	-0.0053	0.0022	22.9
-0.0593	0.0037	-0.0015	0.0007	22.8
-0.0525	0.0022	0.003	-0.0015	22.8
-0.0608	0.0022	0.0045	0	22.7
-0.0893	0.0015	0.0067	-0.0015	23
-0.0728	0.0015	0.0165	-0.003	22.7
-0.093	0.0007	0.0172	-0.003	22.9
-0.1403	0	0.0105	-0.0023	22.7
-0.0803	0.003	0.0067	0	22.9
0.0127	0.0015	0.0187	-0.003	22.6
0.0652	-0.0038	0.0367	-0.0053	22.9
0.1327	-0.0038	0.0382	-0.0046	22.5
0.1267	-0.0015	0.0315	-0.0046	22.8
0.0412	-0.0023	0.03	-0.0068	22.5
0.039	-0.0046	0.027	-0.0046	22.8
0.093	-0.0038	0.024	-0.003	22.5
0.0495	-0.003	0.0202	-0.0046	22.6
0.009	-0.0015	0.0157	-0.0038	22.5
-0.0128	-0.0015	0.0127	-0.0038	22.6
-0.0398	-0.0015	0.0067	-0.003	22.7
0.0172	-0.0015	-0.0023	-0.0008	22.5
0.0622	-0.0015	-0.0105	-0.0008	22.5
0.0525	-0.0008	-0.0173	-0.0008	22.5
0.0067	0.0015	-0.0256	0.0022	22.5
-0.0675	0.003	-0.0278	0.0045	22.5
-0.1178	0.0045	-0.0203	0.0022	22.4
-0.1688	0.003	-0.0173	0.0007	22.4
-0.165	0.0015	-0.0181	-0.0008	22.5
-0.0353	0.0015	-0.0105	0	22.6
0.0405	0.0007	-0.0023	-0.0023	22.5
0.0292	-0.0008	0.003	-0.0046	22.5
0.0952	-0.0008	0.0067	-0.003	22.5
0.1387	0.0015	0.006	-0.0015	22.5
0.0442	0.0007	0.0075	-0.0008	22.5
-0.054	0.003	0.0052	0	22.5
-0.0105	0.0022	0.006	-0.0038	22.5
0.0202	-0.0015	0.012	-0.0091	22.2
-0.006	-0.003	0.0082	-0.0091	22.5
0.0165	-0.003	0.0052	-0.0105	22.4
-0.0105	-0.0008	0.0045	-0.006	22.4
-0.0578	0.0015	-0.003	-0.003	22.3
-0.0443	0.0022	-0.0105	-0.0008	22.1
-0.0015	0.0015	-0.012	0.0007	22.5
0.0585	0	-0.0091	-0.0008	22.2
0.12	-0.0015	-0.0053	-0.0015	22.4
0.1185	-0.0023	-0.0046	-0.0008	22.3
0.0787	0	-0.0038	-0.0008	22.3
0.0075	-0.0015	-0.0083	-0.003	22.2
-0.1035	-0.0046	-0.012	-0.0038	22.5
-0.0983	-0.003	-0.0128	-0.0015	22.3
-0.0765	0.0007	-0.0181	0.003	22.2
-0.1463	0.003	-0.0188	0.0037	22.4
-0.1883	0.0015	-0.0143	-0.0008	22.1
-0.1928	-0.003	-0.0083	-0.0015	22.3
-0.0691	-0.0046	0	-0.0046	22.1
0.0255	-0.0046	0.0067	-0.006	22.4
-0.0046	-0.0053	0.0015	-0.0038	22.1
0.045	-0.003	-0.0023	0	22.2
0.0255	-0.003	0.0045	0	22.1
0.0127	-0.0023	0.003	0.0015	22.2
0.033	0.0022	0.0052	0.0007	21.9
0.0015	0.003	0.0052	-0.0015	22.1
0.0157	0.003	0.0045	-0.0053	22.1
0.009	0.0015	0.0015	-0.0046	22
0.0255	0.0015	-0.0038	-0.0023	22
0.036	0.0007	-0.0075	-0.0068	21.9
0.0292	0	-0.0173	-0.006	22
0.0292	0	-0.024	-0.006	22
0.0105	-0.0023	-0.024	-0.0083	21.8
0.0105	-0.0015	-0.0181	-0.0083	21.9
0.0427	-0.0015	-0.0143	-0.0091	21.7
0.0652	-0.0015	-0.0165	-0.0075	22
-0.0143	-0.0015	-0.0203	-0.0053	21.6
-0.111	-0.0008	-0.0218	-0.0015	21.9
-0.1575	0.003	-0.0195	-0.0008	21.6
-0.2348	0.0022	-0.012	-0.003	21.9
-0.2145	0.0015	0.0007	-0.0038	21.6
0.0052	-0.0015	0.009	-0.0083	22
0.1807	-0.0075	0.0232	-0.012	21.6
0.1635	-0.0105	0.0345	-0.0128	21.8
0.105	-0.0083	0.0262	-0.0091	21.6
0.054	-0.0038	0.0112	-0.0038	21.6
0.003	-0.0008	0.0015	0.0015	21.7
-0.0195	0.0037	-0.0008	0.0052	21.6
-0.0256	0.0075	-0.0023	0.0052	21.5
-0.0188	0.0052	-0.003	0.0067	21.7
-0.0128	0.0037	-0.0038	0.0082	21.5
-0.0091	0.0045	-0.003	0.006	21.5
-0.0105	0.003	-0.0023	0.0052	21.4
-0.0173	0.0015	-0.0046	0.0045	21.5
-0.0233	0.0015	-0.0015	-0.0008	21.2
-0.0233	-0.0015	0.0007	-0.0023	21.6
-0.0053	-0.003	-0.0023	-0.0008	21.2
0.0202	-0.0023	-0.0053	0	21.3
0.0277	-0.0008	-0.0008	0.0022	21.3
0.0195	-0.0015	0.0067	0.0022	21.3
-0.0015	-0.003	0.012	0.0015	21.2
-0.048	0.0007	0.0127	0.0007	21.1
-0.0953	0.0015	0.0157	-0.0053	21.2
-0.0945	-0.0015	0.0202	-0.0046	21.2
-0.0518	-0.0008	0.0142	-0.0015	21.2
-0.0218	0.0007	0.0112	-0.0008	21.3
0.018	0.0007	0.0157	-0.003	21
0.066	-0.003	0.018	-0.0068	21
0.0787	-0.0053	0.0195	-0.0083	20.9
0.1192	-0.0053	0.018	-0.0098	21.2
0.1215	-0.0046	0.024	-0.0098	20.9
0.0135	-0.0046	0.0292	-0.0105	21
-0.039	-0.006	0.0255	-0.0091	20.7
-0.0181	-0.0046	0.0112	-0.0046	21
-0.0195	-0.0008	0.0022	-0.0008	20.6
-0.0135	0.0015	0.0037	-0.0023	21
-0.0203	0.0007	0.0007	-0.0015	20.8
-0.0368	0.003	-0.0038	0.0007	20.7
-0.0458	0.0067	-0.0098	0.003	20.8
-0.0165	0.0045	-0.0068	0.0037	20.7
0.0127	0.0052	-0.0068	0.0022	20.7
-0.024	0.0052	-0.0068	0	20.5
-0.0668	0.003	-0.0038	0	20.9
-0.0773	0	-0.0015	-0.0015	20.7
-0.0668	-0.0023	0.0015	-0.0053	20.7
-0.0465	0	0.0022	-0.0038	20.8
0.0157	0	0.0015	-0.0023	20.7
0.09	0.0007	0.0007	-0.003	20.7
0.0577	-0.0015	0.003	-0.0046	20.6
-0.0293	-0.0008	-0.003	-0.0023	20.6
-0.0428	0.003	-0.003	-0.0008	20.6
-0.0218	0.0007	0.0052	-0.0023	20.6
-0.027	0	0.0052	-0.0023	20.4
-0.054	0.0007	-0.003	-0.0008	20.4
-0.0615	0.003	-0.0068	0.0007	20.4
-0.0285	0.0037	-0.0053	0	20.4
-0.0068	0.0015	0.0007	-0.0015	20.6
0.009	-0.0008	0.0082	-0.003	20.3
0.0315	-0.0015	0.0082	-0.003	20.5
0.057	0.0007	0.0052	-0.003	20.3
0.0052	0	0.0045	-0.003	20.3
-0.063	-0.003	0.0067	-0.0038	20.4
-0.0128	-0.0015	0.0067	-0.0023	20.4
0.0172	-0.0008	0.006	-0.0008	20.4
0.0285	-0.0023	0.0105	-0.0008	20.3
0.084	-0.0046	0.015	0.003	20.3
0.09	-0.0053	0.015	0.0022	20.3
0.0577	-0.0053	0.015	-0.0015	20.2
0.0442	-0.0046	0.018	-0.0053	20.2
0.0495	-0.003	0.0165	-0.0083	20.3
-0.0008	-0.0015	0.0157	-0.0105	20.3
-0.0706	-0.0008	0.0142	-0.0091	20.2
-0.1215	0.0007	0.0112	-0.0046	20.3
-0.1426	0.003	0.006	-0.0015	20.2
-0.126	0.0052	0.0052	-0.0008	20.3
-0.0953	0.0075	-0.0008	0.0007	20.1
-0.054	0.0067	-0.0015	0.0007	20.2
-0.024	0.003	0.0022	0	20
0.0075	0.003	0	0.0007	20.2
0.0352	0.0015	-0.0008	-0.0015	20.1
0.0577	0	-0.0083	-0.003	20
0.054	0	-0.012	-0.0023	19.8
0.0405	-0.0008	-0.0091	-0.0015	20.1
0.045	-0.0015	-0.0068	-0.0008	20
0.0225	-0.003	-0.003	-0.003	20.2
-0.033	-0.0053	-0.0008	-0.003	20
-0.078	-0.0046	0.0007	-0.0023	19.9
-0.0728	-0.0038	-0.0008	-0.003	20.1
-0.0765	-0.003	-0.0046	-0.0015	20.2
-0.0578	-0.003	-0.0105	-0.0015	19.8
0.051	-0.0038	-0.0143	-0.0038	20.1
0.1215	-0.0046	-0.0128	-0.003	19.8
0.0877	-0.0046	-0.012	-0.0023	19.9
-0.0323	-0.0023	-0.0113	-0.003	19.7
-0.123	-0.0008	-0.0023	-0.0023	20.1
-0.1103	-0.0023	0.0105	-0.0046	19.8
-0.0953	-0.0046	0.0157	-0.0046	20
-0.0068	-0.003	0.012	-0.003	19.8
0.1267	-0.0008	0.006	-0.0038	19.8
0.111	0	0.0037	-0.003	19.7
0.0172	-0.0008	-0.0008	-0.0046	19.8
-0.0173	-0.0008	-0.0053	-0.003	19.8
-0.0046	0.003	-0.0091	0.0007	19.8
-0.012	0.0075	-0.015	0.0045	19.8
-0.0128	0.0082	-0.0143	0.006	19.7
0.0037	0.0082	-0.0203	0.0067	19.5
0.0112	0.006	-0.0181	0.003	19.8
0.009	0.003	-0.0143	0	19.5
-0.0008	0.003	-0.0173	-0.0015	19.7
-0.0143	0.0007	-0.021	-0.0015	19.4
-0.0383	0.0007	-0.024	-0.003	19.7
-0.039	-0.0015	-0.0203	-0.0053	19.6
-0.0368	-0.003	-0.0181	-0.006	19.6
-0.0458	-0.003	-0.015	-0.0068	19.5
-0.0015	-0.003	-0.012	-0.006	19.8
0.105	-0.0008	-0.012	-0.0053	19.6
0.1717	0.0007	-0.0083	-0.0053	19.6
0.1087	-0.0008	-0.0015	-0.0068	19.5
0.0457	-0.0023	0.0045	-0.0068	19.5
-0.063	-0.003	0.009	-0.0053	19.6
-0.2213	-0.0046	0.0135	-0.006	19.6
-0.1838	-0.0046	0.012	-0.006	19.4
-0.0173	-0.0038	0.0142	-0.0053	19.6
0.0577	-0.0046	0.018	-0.0068	19.4
0.0007	-0.0038	0.0202	-0.0068	19.5
-0.033	-0.0053	0.0195	-0.0075	19.3
-0.0293	-0.0015	0.009	-0.003	19.7
-0.0315	0.0007	0.0022	-0.0008	19.3
-0.0143	0	0	0.0007	19.6
-0.0128	0.0015	-0.0091	0.0022	19.3
0	0.0022	-0.0203	0.0015	19.4
0.0052	0.0015	-0.0233	0.0015	19.2
0.003	0.0007	-0.0173	0.0007	19.3
0.0045	0.0007	-0.0158	0.0007	19.3
0.0052	0.0015	-0.0135	-0.0008	19.3
0.009	0.0007	-0.0053	-0.0015	19.3
0.0022	0.0007	0.003	-0.0015	19.3
0.003	-0.0015	0.0067	-0.0008	19.3
0.0022	-0.0023	0.0067	-0.0015	19.3
0.0052	-0.0023	0.009	-0.0023	19.3
0.0082	-0.0023	0.009	-0.0038	19.3
0.0067	-0.0008	0.0075	-0.003	19.1
0.0067	-0.0008	0.006	-0.0015	19.2
-0.0008	-0.0015	0.0082	-0.003	19
-0.015	-0.003	0.0112	-0.0038	19
-0.0248	-0.0015	0.012	-0.0046	19
-0.0091	-0.0015	0.0127	-0.0038	19.3
-0.0165	-0.003	0.0142	-0.003	19
-0.0383	-0.003	0.0157	-0.0038	19.1
-0.0233	-0.0008	0.0142	-0.0008	19
-0.0181	0.0007	0.0112	0.0015	19
-0.027	0.0045	0.003	0.0015	18.9
-0.0173	0.0037	0.0007	0.0007	18.9
-0.0098	0.0007	0.0067	-0.0015	19
-0.0091	0.0007	0.006	-0.0008	18.8
-0.0015	0.0007	0.0007	0.0007	18.9
0.0007	0.0015	-0.0023	-0.0008	18.7
0.003	0.0045	-0.0105	0.0007	18.8
0.0082	0.0045	-0.0128	-0.0008	18.7
0.0082	0.0007	-0.0053	-0.006	18.8
0.0067	0.0007	-0.006	-0.003	18.8
0.0015	-0.0008	-0.0075	-0.0008	18.8
-0.0053	-0.0023	-0.003	-0.0015	18.8
-0.003	-0.0038	-0.0015	-0.0023	18.8
-0.006	-0.003	-0.0038	-0.0015	18.8
-0.0105	-0.0008	-0.0008	-0.0015	18.7
-0.0158	-0.0015	0.0052	-0.003	18.6
-0.0278	-0.003	0.0105	-0.006	18.7
-0.0285	-0.0046	0.0105	-0.0083	18.4
-0.0225	-0.0053	0.0067	-0.0068	18.7
-0.0083	-0.0023	0.003	-0.003	18.5
0.003	0.0007	0	-0.0038	18.6
0.0187	0.0022	-0.0008	-0.003	18.3
0.0517	0.0015	-0.0015	-0.0008	18.7
0.0637	0	-0.0038	-0.003	18.3
0.0307	0	-0.0053	-0.0046	18.7
-0.0383	-0.0008	-0.003	-0.0068	18.4
-0.0773	0.0007	-0.0008	-0.006	18.5
-0.0765	0.0015	0.0015	-0.0068	18.3
-0.0608	-0.0023	0.0007	-0.0083	18.6
-0.0053	-0.003	-0.0008	-0.0075	18.4
0.0082	-0.0038	-0.003	-0.0068	18.4
-0.0721	-0.0046	-0.0046	-0.0015	18.3
-0.1448	0.0015	-0.0046	0.0045	18.3
-0.093	0.0045	-0.0023	0.003	18.2
0.0345	0.003	-0.0015	-0.0015	18.4
0.1312	-0.0008	0.0067	-0.0046	18.2
0.1132	-0.0053	0.0112	-0.0038	18.3
0.0465	-0.0015	0.0105	-0.0008	18.1
0.0382	0.0015	0.009	-0.0008	18.4
-0.0158	0.0037	0.006	-0.0008	18.1
-0.0405	0.0045	0.003	0.0015	18.2
-0.024	0.003	0.0007	0.0037	18.2
-0.024	0.0037	0.0015	0.0045	18.2
0.0067	0.0052	0.0015	0.0037	18
-0.0091	0.0022	0.003	0.0015	18.1
-0.0675	-0.0015	0.0052	-0.0015	18.1
-0.1088	-0.0023	0.0067	-0.0046	18.2
-0.0833	-0.003	-0.0008	-0.0023	18.1
-0.0353	-0.0008	-0.0046	-0.0015	18.1
-0.0083	0.0007	0.0082	-0.003	17.9
0.045	0.0015	0.012	-0.0015	18.1
0.1177	0.0015	0.0127	-0.0015	17.9
0.1042	0	0.0127	-0.0008	18.1
0.0052	-0.0008	0.012	-0.003	17.9
0.0127	-0.0038	0.0142	-0.0015	18
0.0292	-0.003	0.0157	-0.0008	17.9
0.0307	-0.0008	0.012	-0.0008	18
0.0337	-0.0008	0.0082	-0.003	17.7
-0.0046	-0.003	0.003	-0.0038	18
-0.0046	-0.0023	-0.0038	-0.0038	17.9
-0.0293	-0.0023	-0.003	-0.0038	18
-0.0518	-0.0046	-0.0015	-0.003	17.9
-0.0788	-0.0046	-0.0015	-0.003	17.9
-0.0878	-0.003	-0.0008	-0.0023	17.8
-0.045	-0.0023	0	-0.003	17.8
0.0052	-0.0023	0.0052	-0.0023	17.6
0.069	-0.0015	0.006	-0.003	17.8
0.0765	0.0007	0.0045	-0.003	17.7
0.0375	0.0007	0.0015	-0.0023	17.8
0.015	0	0.0015	-0.003	17.7
-0.0105	0.0007	0.0045	-0.003	17.9
-0.0525	0.0007	0.0075	-0.0053	17.5
-0.057	0	0.0052	-0.0038	17.8
-0.0615	0.0022	0.003	-0.0015	17.5
-0.039	0.003	0.0067	-0.0015	17.7
-0.003	0.0045	0.003	0.0045	17.5
-0.006	0.0075	-0.0008	0.0075	17.7
0.0045	0.0037	0.0015	0.0037	17.5
-0.0053	0.0007	-0.0015	0	17.6
-0.0008	0.0015	-0.0015	-0.003	17.7
0.0015	0.0015	-0.003	-0.0046	17.5
-0.0008	0.0015	-0.0068	-0.0053	17.5
0.0052	0.0007	-0.0105	-0.0046	17.5
-0.0046	0.0007	-0.0135	-0.003	17.5
-0.003	-0.0008	-0.0135	-0.0038	17.5
-0.0023	-0.003	-0.0143	-0.0023	17.5
0.0015	-0.003	-0.0091	-0.0023	17.6
-0.0068	-0.0046	-0.0008	-0.0053	17.5
-0.0218	-0.0053	0.0007	-0.006	17.5
-0.0203	-0.0046	-0.003	-0.006	17.4
-0.0128	-0.0015	-0.0075	-0.0053	17.3
0.0045	-0.0015	-0.0083	-0.0075	17.5
0.039	-0.0023	-0.0046	-0.0053	17.5
0.0517	-0.0015	-0.003	-0.0046	17.4
-0.0135	-0.0015	-0.0023	-0.0038	17.5
-0.0915	-0.0046	0.003	-0.0053	17.3
-0.0818	-0.0053	0.0045	-0.0053	17.4
-0.0315	-0.0038	0.0052	-0.0046	17.3
-0.0113	-0.0038	0.006	-0.0038	17.3
0.0052	-0.0046	0.0075	-0.0015	17.4
-0.0098	-0.0008	0.003	-0.0008	17.3
-0.0128	0.0007	-0.0008	0.0007	17.2
-0.006	0.003	-0.0008	0.003	17.4
-0.021	0.0045	-0.0046	0.003	17.1
-0.0038	0.0052	-0.0053	0.0015	17.3
0.0075	0.003	-0.0068	-0.0015	17
0.0067	0.0007	-0.0068	-0.0038	17.2
0.0015	0.0007	-0.0105	-0.0023	17
-0.0046	0	-0.0128	-0.0008	17.2
-0.0165	-0.0008	-0.0068	0	17
-0.012	-0.0008	-0.003	-0.0008	17.1
-0.0046	-0.0008	-0.0015	-0.0008	17.3
-0.0083	-0.0015	-0.0008	-0.0015	17
-0.0015	-0.0008	0	-0.003	17.2
-0.0015	0.0007	-0.0008	-0.0015	16.8
0.0007	0.0007	0.0007	-0.0015	17
-0.0053	-0.0015	0.0015	-0.0008	16.8
0.012	-0.0015	0.0045	0	17.1
0.0255	-0.003	0.0105	-0.0015	16.8
-0.0165	-0.003	0.009	-0.0008	17
-0.0458	-0.0008	0.0082	-0.0008	16.9
-0.027	-0.0008	0.006	-0.0015	17
-0.0015	-0.0008	0.0015	-0.0008	17
0.0142	0.0015	0.0007	-0.003	17
0.024	0.0007	0.0022	-0.0038	16.8
0.009	0.0007	0.0007	-0.003	16.9
-0.003	0.0007	0.0022	-0.0046	16.9
-0.027	0.0007	0.0015	-0.0023	16.8
-0.0608	0.0022	0	0	16.8
-0.0458	0.003	-0.003	-0.0015	16.9
-0.0278	0.0015	-0.0143	0.0007	16.5
-0.0218	0.0022	-0.0188	0.0007	16.7
-0.0158	0.0007	-0.0135	-0.0015	16.5
-0.0083	-0.003	-0.0068	-0.0046	16.8
0.0052	-0.0046	-0.0068	-0.006	16.6
0.0052	-0.0046	-0.012	-0.0046	16.7
0.0037	-0.003	-0.0158	-0.003	16.6
0.009	-0.003	-0.0158	-0.0023	16.6
0.0045	-0.003	-0.015	-0.0023	16.3
0.0007	-0.0015	-0.0128	-0.0046	16.6
0.0097	0	-0.0128	-0.0046	16.3
0.0352	0.0007	-0.0165	-0.0038	16.5
0.06	0.0007	-0.0128	-0.003	16.3
0.0457	0	-0.0113	-0.003	16.3
0.0097	0	-0.0105	-0.003	16.4
-0.0398	0	-0.0075	-0.0046	16.3
-0.1088	-0.0015	-0.0008	-0.0053	16.4
-0.1178	-0.0015	0.0082	-0.006	16.4
-0.0555	-0.0015	0.0097	-0.0053	16.2
-0.0195	-0.0015	0.0097	-0.003	16.4
-0.0113	-0.0008	0.0142	-0.0046	16.3
-0.0008	0.0007	0.0172	-0.0023	16.2
-0.0181	0.0007	0.0202	-0.0015	16.2
-0.054	-0.0015	0.0232	-0.003	16.4
-0.0721	-0.0015	0.0217	-0.0015	16.2
-0.0765	-0.0015	0.0202	-0.0015	16.3
-0.0645	0	0.0195	-0.0008	16.2
-0.0143	0.0022	0.021	-0.0008	16.2
0.0645	0.0007	0.021	-0.0008	16.2
0.1222	0.0015	0.0202	-0.0008	16.2
0.12	0.0007	0.0195	-0.0015	16.2
0.0975	-0.0008	0.018	-0.0015	16.2
0.0532	-0.0015	0.0165	-0.003	16.1
0.0105	-0.0008	0.015	-0.003	16.2
-0.0053	-0.0015	0.0142	-0.003	16.2
-0.0128	-0.0023	0.0112	-0.0038	16
0.0165	-0.0023	0.0052	-0.003	15.9
0.0172	-0.0053	0.0075	-0.0053	16.2
-0.0346	-0.0068	0.012	-0.006	16
-0.0728	-0.0053	0.012	-0.0038	16.1
-0.048	-0.003	0.0097	-0.0023	16
-0.0368	-0.0008	0.012	0.0007	16
-0.0353	0.0007	0.0142	-0.0015	15.8
-0.0143	0	0.0217	-0.003	16
0.0217	0.0022	0.0217	0.0007	16
0.051	0.0082	0.0127	0.003	15.8
0.0082	0.0097	0.0052	0.003	16
0.0097	0.0112	-0.0068	0.003	15.8
0.003	0.0112	-0.0195	0.0045	15.9
-0.0203	0.006	-0.0218	0.003	15.7
-0.0015	0.0015	-0.0203	0.0007	15.7
-0.0083	-0.0008	-0.015	-0.0008	15.6
-0.012	-0.0038	-0.012	-0.003	15.9
-0.0278	-0.0053	-0.0083	-0.0053	15.7
-0.045	-0.0053	-0.0015	-0.0075	15.9
-0.0563	-0.0046	-0.003	-0.0075	15.7
-0.063	-0.0046	-0.0068	-0.0105	15.8
-0.0353	-0.0053	-0.012	-0.0091	15.7
0.0217	-0.0053	-0.0128	-0.0075	15.7
0.0712	-0.0046	-0.0008	-0.003	15.8
0.0682	-0.0008	0.0135	0.0007	15.8
0.0465	0.0015	0.0232	0.0015	15.8
0.0435	0.003	0.0292	0.003	15.7
0.0135	0	0.0255	-0.0015	15.7
0.0007	-0.003	0.018	-0.003	15.9
-0.0053	-0.0023	0.0157	-0.003	15.6
-0.0428	-0.0015	0.018	-0.0046	15.8
-0.0593	-0.0023	0.0195	-0.0023	15.7
-0.063	0	0.0142	-0.0008	15.8
-0.0203	0.0022	0.009	-0.0008	15.7
0.0105	0.0022	0.0045	-0.0008	15.9
-0.0068	0.0007	0.0022	-0.0008	15.4
-0.0083	-0.0008	0.0052	-0.003	15.8
-0.0008	-0.0008	0.0105	-0.0046	15.4
-0.0143	0.0007	0.0127	-0.0015	15.7
-0.027	0.0015	0.0105	0.0007	15.6
-0.0158	0.0022	0.0067	0.0022	15.7
-0.0091	0.0037	0.003	0.006	15.6
-0.0113	0.0045	-0.0023	0.012	15.5
-0.0203	0.0052	-0.0083	0.009	15.4
-0.0105	0.0045	-0.0091	0	15.6
-0.0053	0.0015	-0.0091	-0.0046	15.4
-0.003	0.0007	-0.0091	-0.0105	15.6
0.0135	-0.0023	-0.0038	-0.012	15.5
0.0105	-0.0038	-0.0008	-0.012	15.7
0.0067	-0.0015	-0.0046	-0.012	15.5
0.0082	-0.0015	-0.0053	-0.0098	15.4
-0.0038	-0.0008	-0.0068	-0.0091	15.3
-0.0203	-0.003	-0.0053	-0.0083	15.4
-0.0218	-0.003	-0.0068	-0.0075	15.3
-0.0293	-0.0046	-0.0075	-0.006	15.4
-0.0346	-0.0046	-0.0068	-0.0038	15.3
-0.0143	-0.003	-0.0098	-0.0015	15.3
0.003	-0.0015	-0.0128	-0.0008	15.3
0.0105	-0.0008	-0.0158	-0.0008	15.3
0.0142	-0.0008	-0.0195	0.0015	15.3
0.0045	0.0015	-0.0203	0.003	15.3
-0.0353	-0.0008	-0.0203	0.0007	15.1
-0.0863	-0.003	-0.0181	-0.0008	15.4
-0.0915	-0.0015	-0.0195	0.0007	15.3
-0.1065	0	-0.0188	-0.0008	15.3
-0.1448	-0.0015	-0.0165	-0.0023	15
-0.0953	-0.0015	-0.0135	-0.0015	15.3
-0.0105	-0.0008	-0.0128	-0.0008	15.1
0.0345	0.0015	-0.012	0.0007	15.2
0.1155	0.0015	-0.0091	-0.0008	15
0.111	-0.0015	-0.0038	-0.0008	15.3
-0.0143	-0.0008	0.0045	-0.0023	15.3
-0.0091	-0.0015	0.0067	-0.003	15.3
0.0067	-0.0015	0.0015	-0.0038	15.1
0.0045	-0.0015	-0.0046	-0.0038	15
0.0495	0	-0.0083	-0.0053	15.1
0.039	0.0015	-0.0105	-0.0091	14.8
0.0682	-0.0015	-0.0128	-0.0091	15
0.084	-0.0008	-0.0143	-0.0038	15
0.0952	-0.0015	-0.0128	-0.0015	14.9
0.09	-0.0008	-0.0105	-0.0015	14.9
0.0315	0.0007	-0.0083	-0.003	14.9
-0.0195	-0.0008	-0.0068	-0.0046	15
-0.1365	-0.0015	-0.0046	-0.003	14.9
-0.2108	0.0007	-0.0083	-0.0015	14.9
-0.132	0.0007	-0.0173	-0.0015	14.9
-0.0068	-0.0008	-0.0188	-0.0008	14.9
0.0967	-0.0008	-0.0181	-0.0008	14.8
0.1762	0.0015	-0.0128	0	14.8
0.1462	0.003	-0.0098	0.0015	14.8
0.0735	0.0015	-0.0128	0.0015	14.7
0.033	-0.0008	-0.0128	0.0007	14.9
-0.042	-0.0015	-0.012	-0.003	14.6
-0.0863	-0.0023	-0.0091	-0.0053	14.8
-0.159	-0.0008	-0.0046	-0.0023	14.7
-0.2168	0.0052	-0.0038	0.0022	14.9
-0.1973	0.0067	0.0007	0.0007	14.6
-0.2011	-0.0015	0.0217	-0.0068	14.8
-0.1163	-0.0075	0.0427	-0.012	14.7
0.0052	-0.0091	0.051	-0.012	14.8
0.0382	-0.0038	0.0427	-0.0068	14.7
0.051	0.003	0.0352	-0.0046	14.7
0.0352	0.0015	0.0307	-0.003	14.5
-0.0053	0.0007	0.0187	-0.0015	14.6
0.0157	-0.0008	0.0157	-0.0008	14.8
0.0615	-0.003	0.018	-0.0023	14.6
0.0382	-0.0015	0.0172	-0.0015	14.5
0.0172	-0.0008	0.0127	0.0015	14.6
0.0015	0.0015	0.012	0.0015	14.6
0.0075	0.003	0.0127	0.0052	14.7
0.081	0.0022	0.015	0.0037	14.4
0.0855	0.0015	0.0052	0.003	14.6
0.0495	0.0022	-0.0158	0.003	14.3
0.0532	0.0022	-0.0293	0.0022	14.4
-0.0083	0.0015	-0.039	0.0007	14.4
-0.084	0	-0.0383	-0.0015	14.6
-0.0668	-0.0015	-0.027	-0.003	14.3
-0.0413	-0.003	-0.0188	-0.0046	14.5
0	-0.0023	-0.0068	-0.0046	14.3
0.0405	-0.0015	0.0015	-0.0046	14.4
0.0105	-0.0023	0.0045	-0.0046	14.4
0.0105	-0.0008	0.0082	-0.0023	14.4
0.033	0.0022	0.0052	-0.0015	14.5
0.0105	0.0037	0	-0.0008	14.5
-0.0068	0.0015	0.0067	-0.003	14.4
-0.0008	-0.0023	0.0202	-0.0068	14.5
-0.015	-0.0053	0.0315	-0.006	14.2
-0.027	-0.0083	0.033	-0.0015	14.4
-0.0315	-0.0068	0.0292	-0.0015	14.2
-0.0218	-0.0038	0.0292	-0.003	14.4
-0.003	0.0007	0.027	-0.003	14.3
-0.0195	0.0015	0.03	-0.0075	14.4
-0.0233	-0.003	0.0315	-0.0091	14.2
-0.0278	-0.0046	0.0262	-0.0068	14.4
-0.0346	-0.0008	0.0142	-0.003	14
-0.0165	0.0015	0.0105	-0.0008	14.3
-0.0143	0.003	0.021	-0.0008	14.4
0.003	0.0037	0.0225	-0.0008	14.2
0.036	0.0015	0.0157	-0.0008	14.3
0.048	0.0007	0.0082	0.0007	14.1
0.0195	0.0015	0.0015	0	14.2
0.0052	0.0015	0.0007	0	14.1
0.0052	0.0007	0.0037	0.0007	14.1
-0.054	0.0015	0.0127	-0.0008	13.9
-0.0743	0.0045	0.0217	0	14.4
-0.0158	0.0052	0.0315	0	14.2
-0.0323	0.003	0.048	-0.0008	14.1
-0.0691	0.0007	0.0622	0.0007	14.1
-0.0375	-0.0015	0.063	0.0022	14
0.0067	-0.0023	0.057	0.0052	13.9
0.0547	-0.0023	0.0345	0.0007	14.1
0.0465	-0.0015	-0.0091	-0.0053	14
0.0082	-0.0008	-0.0548	-0.0075	13.9
-0.0015	-0.0008	-0.0765	-0.006	13.8
-0.0083	0.0015	-0.0713	-0.003	14
-0.0083	0.0015	-0.0533	-0.003	13.8
-0.0075	0.0007	-0.0398	-0.0038	14.1
0.009	-0.0015	-0.0353	-0.0053	13.8
0.0142	-0.0038	-0.0361	-0.0053	13.9
0.0075	-0.0053	-0.0375	-0.0046	13.8
0.0052	-0.0053	-0.0413	-0.0023	14
-0.0105	-0.0023	-0.0346	-0.0008	13.7
-0.0353	-0.0008	-0.0225	-0.003	13.9
-0.1006	-0.0008	-0.0128	-0.0023	13.6
-0.123	0.0015	-0.0053	-0.0046	14
-0.105	0.0007	0.009	-0.0053	13.7
-0.1223	0.0007	0.0157	-0.0053	13.9
-0.0518	0	0.0142	-0.0091	13.7
0.0495	-0.003	0.0142	-0.0091	13.9
0.1335	-0.0038	0.0082	-0.0075	13.9
0.1477	-0.0046	-0.003	-0.0075	13.7
0.0637	-0.0053	-0.0165	-0.0068	13.8
0.0322	-0.0015	-0.0225	-0.0091	13.7
0.012	0.0007	-0.0248	-0.0053	13.6
-0.0046	0.0015	-0.0233	0.0015	13.5
-0.0218	0.0045	-0.0248	0.0082	13.6
-0.0323	0.0045	-0.0308	0.0097	13.6
-0.0368	0.0037	-0.0293	0.0097	13.6
-0.0315	0.0052	-0.0405	0.012	13.8
0.0195	0.0052	-0.0585	0.009	13.6
0.0577	0.0037	-0.0593	0.0052	13.7
0.063	0.003	-0.0525	0.003	13.4
0.0495	-0.0008	-0.033	-0.0046	13.6
0.036	-0.0053	-0.0098	-0.0068	13.5
-0.0525	-0.0068	0.0022	-0.0091	13.5
-0.1335	-0.0083	0.0187	-0.0105	13.5
-0.0803	-0.0068	0.024	-0.0091	13.4
-0.012	-0.006	0.0262	-0.0083	13.5
-0.0143	-0.0046	0.0225	-0.0053	13.5
-0.0353	-0.0038	0.0195	-0.0068	13.5
-0.0308	-0.0068	0.0262	-0.0075	13.3
-0.0338	-0.0046	0.024	-0.0053	13.3
-0.0368	-0.003	0.0217	-0.0046	13.4
-0.0361	-0.003	0.0195	-0.0046	13.3
-0.0248	0.003	0.0195	-0.0053	13.3
-0.0083	0.0037	0.0157	-0.0083	13.4
0.006	0.0045	0.015	-0.0068	13.3
0.0412	0.003	0.0172	-0.0038	13.2
0.0345	0	0.0157	0.0007	13.2
0.0007	-0.0008	0.0142	0.0045	13.4
-0.0128	-0.0015	0.0195	0.009	13.3
-0.0083	-0.0015	0.0262	0.006	13.2
-0.003	0.0015	0.024	-0.0038	13.3
0.0007	0.003	0.018	-0.0053	13.4
0.006	0.003	0.0075	-0.0015	13
0.0135	0.003	-0.0038	-0.0038	13.3
0.0127	0.0015	-0.0233	-0.0015	12.9
0.0067	0.0015	-0.0436	-0.0023	13.3
0.0405	0.0015	-0.0458	-0.0008	12.9
0.0532	0.0022	-0.033	0.003	13.2
-0.0113	0.0052	-0.0105	0.0015	13
-0.0518	0.0067	0.0067	-0.003	13.1
-0.054	0.0075	0.0157	-0.0023	12.9
-0.0788	0.0052	0.027	-0.003	13
-0.1021	-0.0068	0.0412	-0.0083	12.8
-0.0563	-0.0165	0.0502	-0.0091	12.8
-0.0083	-0.0128	0.051	-0.0053	13
-0.0113	-0.0053	0.045	-0.0008	12.9
0	-0.0008	0.0412	0	13
0.0082	-0.0008	0.0367	-0.0023	12.9
0.0067	0	0.0292	-0.0008	13
0.0142	0.0037	0.0187	0.0015	13
0.0172	0.0052	0.0075	0.003	12.8
0.0082	0.0052	0	0.003	12.8
-0.0068	0.0022	0	0.0007	12.8
-0.0173	-0.003	0.0052	-0.003	12.8
-0.012	-0.003	0.003	-0.0075	12.7
-0.0075	-0.0023	-0.0023	-0.0105	12.7
-0.0338	-0.0008	-0.0046	-0.0091	12.6
-0.0585	-0.0008	-0.0068	-0.003	12.6
-0.0503	-0.003	-0.0046	0	12.6
-0.0233	-0.0015	-0.0015	-0.0008	12.6
0.0195	0.0015	0.0015	-0.0008	12.6
0.0705	0.0022	0	-0.0038	12.6
0.111	0.0015	-0.0053	-0.0098	12.5
0.099	-0.0008	-0.0068	-0.0128	12.5
0.024	-0.0015	-0.0068	-0.0068	12.5
-0.042	-0.0015	-0.0068	-0.0023	12.3
-0.09	-0.0046	-0.0038	-0.0015	12.6
-0.1253	-0.0015	-0.015	-0.0015	12.1
-0.1635	0.0037	-0.0285	-0.003	12.4
-0.1163	0.0022	-0.0263	-0.0053	12.4
0	0	-0.0188	-0.0046	12.4
0.0127	0.0015	-0.0098	-0.0015	12.3
0.057	0.0007	-0.0023	-0.0008	12.6
0.1192	-0.003	0.0022	-0.0015	12.2
0.1087	-0.0046	0.0052	-0.0023	12.4
0.0735	-0.0023	0.0105	-0.0008	12.3
0.0067	0.0015	0.015	0.0052	12.3
-0.0015	0.0022	0.018	0.0202	12.2
-0.0046	0.0022	0.0082	0.039	12.1
-0.0053	0.0045	-0.027	0.024	12.1
0.015	0.0067	-0.063	-0.0068	12.1
0.0022	0.0052	-0.0795	-0.0293	12.2
-0.003	0.0007	-0.066	-0.039	12.1
-0.0128	-0.0015	-0.0405	-0.0308	12.1
-0.0128	-0.0008	-0.027	-0.0218	12.1
-0.0158	0.0007	-0.0173	-0.0046	12
-0.0173	-0.0015	-0.006	0.0067	12
-0.0158	-0.003	0.0015	0.003	12.2
-0.0203	-0.0015	0.0082	0.006	12.1
-0.0128	-0.0015	0.0142	0.0082	11.9
-0.0181	-0.0015	0.0165	0.0052	12.1
-0.0143	-0.0015	0.0202	0.003	12.1
0.0015	-0.003	0.0277	0.0007	12
-0.003	-0.0038	0.0345	0.0015	11.9
-0.0293	-0.0053	0.042	0	12
-0.0181	-0.0046	0.054	-0.0015	12
0.0007	-0.003	0.0652	-0.0015	11.8
-0.0608	-0.0015	0.0712	-0.0008	12
-0.0795	0.0022	0.0697	0.0007	11.8
-0.0308	0.0037	0.06	0.0007	11.9
-0.0068	0.0052	0.0315	0.0022	11.8
-0.0203	0.0045	-0.012	0.0007	11.9
-0.0181	0.003	-0.048	-0.0015	11.7
0.0105	0.003	-0.0735	-0.003	11.9
0.0165	0.0022	-0.0706	-0.0038	11.7
0.015	0.0007	-0.0555	-0.006	11.8
0.0075	-0.0008	-0.0413	-0.0046	11.6
-0.0135	-0.0015	-0.0203	-0.0046	11.8
-0.0308	-0.003	-0.0143	-0.0068	11.7
-0.0173	-0.0015	-0.0113	-0.0038	11.6
0.0007	0	-0.0083	-0.0038	11.7
-0.0023	-0.0015	0.0015	-0.003	11.8
0.0015	-0.0008	0.0097	-0.0015	11.6
-0.0181	0.0007	0.0127	-0.003	11.8
-0.0465	0.0007	0.0232	-0.0046	11.6
-0.0405	-0.0015	0.0262	-0.0038	11.8
-0.0428	0	0.0262	-0.003	11.6
-0.054	-0.0008	0.024	-0.0046	11.7
-0.0525	-0.0015	0.0195	-0.0038	11.4
-0.0218	0	0.0157	-0.0046	11.7
0.0052	-0.0038	0.021	-0.0068	11.4
0.009	-0.0046	0.0262	-0.0053	11.8
0.018	-0.0053	0.0225	-0.0038	11.4
0.0337	-0.0046	0.0202	-0.0015	11.5
0.0405	-0.003	0.018	0.0015	11.6
0.0375	-0.0053	0.0135	0.0015	11.6
0.0202	-0.0046	-0.0008	0	11.6
0.0105	-0.003	-0.0113	-0.003	11.3
0.033	-0.003	-0.0105	-0.0023	11.5
0.0045	0	-0.0038	0.0015	11.4
-0.024	0.0052	0.0045	0.003	11.7
-0.003	0.0075	0.0045	0.003	11.3
0.0037	0.0067	0.0015	0.0015	11.5
0.0375	0.0037	-0.0046	-0.0023	11.3
0.033	0	-0.0158	-0.0046	11.5
0.0007	-0.0008	-0.0248	-0.0038	11.2
-0.0203	-0.0008	-0.027	-0.003	11.5
-0.0436	0.0007	-0.0188	-0.0008	11.2
-0.0165	0.0015	-0.0091	-0.003	11.6
0.024	-0.0008	0.003	-0.003	11.3
0.039	-0.003	0.0135	-0.0046	11.5
0.0427	-0.0015	0.0157	-0.0053	11.3
0.0165	-0.0015	0.0142	-0.0023	11.2
-0.0758	-0.0015	0.0082	-0.0015	11.3
-0.1238	-0.0015	-0.0015	-0.003	11.5
-0.0856	-0.0015	-0.0046	-0.0023	11.1
-0.063	-0.0008	-0.006	-0.0046	11.5
-0.0278	-0.0046	0.0022	-0.0068	11.2
0.0105	-0.0053	0.0045	-0.003	11.5
0.042	0.0007	0	-0.0023	11.2
0.0967	0.0007	0.0045	-0.003	11.4
0.0495	-0.0008	0.0082	-0.003	11.2
-0.0743	0.0007	0.012	-0.0038	11.3
-0.0615	0.0015	0.0142	-0.003	11.2
-0.0293	0.0007	0.0225	-0.0038	11.4
-0.0346	-0.0023	0.0217	-0.003	11.2
0.0022	-0.003	0.012	-0.003	11.2
-0.0113	0	-0.0075	-0.0008	11.2
0.0067	0.0015	-0.0256	0	11
0.0217	0.0015	-0.03	-0.0008	11.2
0.003	0.0022	-0.0278	0.0007	11.1
0.0082	-0.0008	-0.0173	-0.0023	11.2
-0.0008	-0.0015	-0.0098	-0.0023	11
-0.0083	0	-0.0143	-0.003	11
-0.0323	-0.0015	-0.0181	-0.0046	11
-0.0218	-0.0015	-0.0053	-0.003	11.2
0.012	-0.0008	0.009	-0.0023	11.2
0.0142	0	0.003	-0.0015	11.2
0.009	0.0007	-0.0315	0	10.9
0.0022	0.0007	-0.0533	-0.0008	11.1
0.003	-0.0023	-0.0413	-0.003	11.1
0.0015	-0.0008	-0.0308	-0.0015	11
0.0007	-0.0008	-0.0218	0.0007	11
0.0052	-0.0008	-0.0158	0.0007	11
0.0052	0.0007	-0.0075	-0.0015	10.9
0.009	0.0007	-0.0075	-0.0015	10.8
0.0105	-0.0008	-0.0053	-0.0053	11
0.0225	-0.003	-0.0015	-0.0053	11.1
0.0285	-0.0008	0.0052	-0.0053	10.9
0.0015	0	0.0142	-0.003	11
-0.0143	-0.0008	0.0165	0.0015	10.8
-0.0368	0.0015	0.0217	0.0022	10.9
-0.0908	0.0015	0.027	0.0007	10.7
-0.1073	-0.0008	0.0322	-0.0046	10.9
-0.0863	-0.0046	0.0262	-0.0083	10.9
-0.0405	-0.0038	0.0195	-0.0083	10.9
0.0097	-0.003	0.0255	-0.0105	10.7
0.0375	-0.0053	0.0277	-0.0091	11
0.0525	-0.003	0.0195	-0.0053	10.9
0.0247	0	0.0105	-0.0023	10.7
-0.003	0.0007	0.0052	-0.003	10.7
-0.0181	-0.0008	-0.0008	-0.003	10.9
-0.0195	-0.0008	-0.003	-0.0046	10.7
-0.0046	0.003	0.003	-0.0008	10.7
-0.0165	0.0045	-0.0015	0.0022	10.7
-0.0128	0.0037	-0.0053	0.0052	10.7
-0.0038	0.0037	-0.003	0.0052	10.7
-0.0098	0.0022	-0.0046	-0.0023	10.7
-0.0046	0.0007	-0.0075	-0.0053	10.7
0.0015	0.0015	-0.012	-0.006	10.7
0.0075	0	-0.0113	-0.0046	10.5
0.0082	-0.0015	-0.006	0	10.7
0.0105	0.0007	0.003	0.003	10.7
0.0127	-0.0015	0.009	0.0045	10.6
0.0052	-0.0023	0.0082	0.003	10.7
-0.003	-0.0023	0.003	0.0022	10.7
-0.0143	-0.003	-0.0015	-0.0008	10.7
-0.0278	-0.0046	0.009	-0.0046	10.5
-0.0405	-0.0068	0.0232	-0.0046	10.6
-0.0248	-0.0038	0.0285	-0.006	10.5
-0.0233	-0.003	0.0397	-0.0053	10.7
-0.054	-0.003	0.0525	-0.006	10.5
-0.054	-0.0015	0.06	-0.0046	10.7
-0.0375	0.0022	0.0457	-0.0008	10.5
-0.0105	0.0067	0.0142	0.0015	10.6
0.018	0.0067	-0.021	0.0015	10.4
0.0262	0.0075	-0.0563	0.0007	10.5
0.033	0.0097	-0.054	-0.0008	10.4
0.0292	0.0075	-0.0346	-0.0023	10.4
0.0225	0.0045	-0.0256	-0.0023	10.4
0.0142	0.0022	-0.0181	-0.0023	10.4
0.0135	-0.0008	-0.0218	0.0007	10.4
0.0097	0	-0.021	-0.0015	10.3
-0.006	-0.003	-0.0091	-0.003	10.4
-0.0218	-0.0046	0.006	-0.003	10.5
-0.0308	-0.0053	0.0195	-0.0046	10.3
-0.0098	-0.006	0.0255	-0.0053	10.5
-0.0038	-0.003	0.0195	-0.0053	10.3
-0.0113	-0.0015	0.009	-0.0046	10.5
-0.0181	-0.0015	0.015	-0.0046	10.2
-0.0315	-0.0023	0.024	-0.0046	10.5
-0.0315	-0.0015	0.0142	-0.0008	10.4
-0.0256	0.0007	0.0022	0	10.3
-0.0203	0	-0.0008	-0.0008	10.3
-0.0128	-0.0015	-0.0015	0	10.4
0.0037	0.0022	-0.0113	-0.0008	10.3
-0.0091	0.0037	-0.024	-0.0015	10.3
-0.0263	0.0015	-0.0346	-0.0046	10.3
-0.0105	0.0007	-0.0428	-0.0046	10.4
-0.0181	-0.0008	-0.0368	-0.0046	10.2
-0.006	-0.003	-0.0203	-0.006	10.2
0.0465	-0.003	-0.006	-0.0046	10.5
0.0555	-0.0038	0.0015	0.0007	10.3
0.021	-0.0046	0.009	0.0015	10.2
0.0127	-0.0053	0.0202	0.0007	10.2
0.0045	-0.0038	0.0225	0.0015	10.2
-0.0128	-0.0008	0.0225	0.0015	10.1
-0.0105	-0.0008	0.0255	0.0007	10.2
-0.0173	-0.0008	0.0292	-0.0008	10.2
-0.0218	-0.003	0.0307	-0.003	10.3
-0.0256	-0.0046	0.0255	-0.006	10.2
-0.024	-0.0068	0.0075	-0.0083	10.1
-0.0233	-0.0075	-0.0113	-0.0053	10.3
-0.021	-0.003	-0.0143	-0.0015	10.1
-0.0068	0.0022	-0.0105	-0.0008	9.9
0.0022	0.003	-0.0068	-0.0008	10
0.0045	0.003	-0.0038	-0.003	10
-0.0173	0.0015	-0.003	-0.0053	10.2
-0.057	0.0015	-0.003	-0.0023	10
-0.0555	0.0052	-0.0091	-0.0008	10
-0.0173	0.009	-0.0143	0.003	9.9
0.0067	0.0082	-0.0105	0.0052	9.9
0.0382	-0.0046	-0.0046	0.0045	10
0.0802	-0.0091	-0.003	0.0015	10.1
0.0615	-0.003	-0.0015	-0.003	10.1
-0.0181	-0.0023	-0.0008	-0.0046	10.1
-0.0361	-0.0008	0.003	-0.0053	10
-0.012	-0.0015	0.009	-0.003	10
-0.0248	-0.0023	0.009	0.0015	9.9
-0.027	0	0.0045	-0.003	9.9
-0.0233	0	-0.0015	-0.012	9.9
-0.012	0.0037	0.0007	-0.0195	10.1
-0.0165	0.0015	0.0067	-0.0173	9.9
-0.024	0.0015	0.0045	-0.0075	9.9
-0.0046	0.0037	0.0007	0.0007	9.9
0.003	0.0037	-0.0015	0.0015	10
0.0157	0.0045	-0.003	0.0045	9.7
0.0097	0.0015	-0.006	0.0022	9.9
-0.0023	0.0007	-0.0143	0.0007	9.6
-0.003	-0.0008	-0.0173	0.003	9.9
-0.0015	-0.0015	-0.0105	0.0015	9.5
0.0082	-0.0023	-0.0068	-0.0008	9.9
0.018	-0.0015	-0.006	0	9.6
0.0127	-0.0015	-0.0015	-0.0008	9.9
-0.0165	-0.0038	-0.0008	-0.003	9.9
-0.0315	-0.0053	0.009	-0.0046	9.7
-0.0293	-0.006	0.018	-0.0068	9.8
-0.0398	-0.0083	0.021	-0.0083	9.7
-0.048	-0.0091	0.0277	-0.006	9.9
-0.0555	-0.0046	0.033	-0.0015	9.6
-0.0638	0.0007	0.0277	-0.0015	9.7
-0.0495	0.0052	0.0165	-0.0008	9.7
-0.0346	0.0075	0.0052	0.003	9.7
-0.0128	0.009	-0.0068	0.0045	9.6
0.0097	0.0097	-0.0218	0.0067	9.5
0.0195	0.0082	-0.0383	0.0045	9.6
0.0307	0.0045	-0.0511	0.0015	9.6
0.0232	0.0007	-0.0488	-0.003	9.5
0.0045	-0.0015	-0.0293	-0.0075	9.6
-0.0046	-0.0053	-0.0225	-0.0068	9.4
0	-0.003	-0.0218	-0.006	9.5
-0.003	-0.0023	-0.012	-0.0046	9.5
-0.0015	-0.0015	-0.003	-0.003	9.9
0.0022	0.0007	0.006	-0.0015	9.4
-0.0015	-0.0015	0.0067	-0.0023	9.6
-0.0023	-0.0008	0.009	-0.0038	9.5
-0.0015	0	0.0142	-0.0083	9.7
0.0037	-0.0015	0.0165	-0.0091	9.5
0.0007	-0.0046	0.0187	-0.0008	9.6
-0.0046	-0.003	0.024	0.0015	9.4
-0.0023	-0.0008	0.033	-0.003	9.7
-0.0015	-0.0015	0.03	-0.0053	9.4
-0.0015	0.0007	0.027	-0.0053	9.5
-0.012	0.0015	0.027	-0.0053	9.5
-0.0091	0.003	0.0292	-0.0053	9.4
-0.0165	-0.0008	0.0322	-0.0046	9.4
-0.0293	-0.003	0.0315	-0.0023	9.4
-0.0046	-0.0038	0.0315	-0.0038	9.5
-0.0218	-0.0053	0.0292	-0.0068	9.4
-0.0465	-0.003	0.0255	-0.006	9.4
-0.0165	0.0007	0.015	-0.0023	9.3
-0.012	0.003	-0.0135	0.003	9.3
-0.003	0.0037	-0.0503	0.0037	9.5
0.0142	0.0022	-0.0765	0.0007	9.3
0.018	0.003	-0.09	0.0007	9.3
0.021	0.003	-0.0765	-0.0015	9.3
0.0105	0.0015	-0.0495	-0.0046	9.4
0.0142	0.0015	-0.0293	0.0015	9.3
0.0075	0.0007	-0.006	0.0045	9.4
0.0045	-0.0023	0.003	0.0045	9.3
0.009	-0.003	0.0067	0.0045	9.4
0.0015	-0.0046	0.009	0.0007	9.3
-0.003	-0.0046	0.0082	0.0045	9.3
-0.0075	-0.0046	0.0082	0.0067	9.4
-0.0038	-0.0075	0.0097	0.0067	9.3
-0.0053	-0.006	0.0195	0.003	9.3
-0.006	-0.0046	0.0262	-0.0105	9.3
-0.0068	-0.003	0.0307	-0.0188	9.3
-0.0091	-0.0038	0.0345	-0.0173	9.3
-0.0075	-0.0015	0.0382	-0.0068	9.2
-0.0091	-0.0015	0.042	-0.0046	9.3
-0.0105	-0.0046	0.0405	-0.0053	9.3
-0.0203	-0.003	0.0345	-0.0068	9.2
-0.0315	-0.0015	0.0315	-0.0075	9.2
-0.0375	0.0007	0.0337	-0.0038	9.3
-0.0346	0.0067	0.0255	0	9.3
-0.0308	0.0082	0.0202	0.0015	9.3
-0.0158	0.0075	0.0277	-0.0015	9.1
0.0015	0.0045	0.0225	-0.0046	9.2
0.0082	0.0022	-0.0008	-0.0053	9.2
0.0157	0.003	-0.0315	-0.0053	9
0.0105	0.0037	-0.0428	-0.0038	9.1
0.0045	0.0045	-0.033	-0.0015	8.9
0.0022	0.0037	-0.027	-0.0008	9.2
-0.0038	0.003	-0.0293	-0.0023	8.9
-0.0165	-0.0008	-0.024	-0.0075	9.1
-0.027	-0.003	-0.0091	-0.006	8.8
-0.0256	-0.0008	-0.0053	0.0007	9.2
-0.0405	-0.003	-0.0008	0.003	8.9
-0.0638	-0.0046	0.0052	0.0037	9.1
-0.0563	-0.0038	0.0067	0.0022	8.9
-0.0165	-0.0038	0.0082	0.0015	9
0.0202	-0.0023	0.009	0	9
0.0615	-0.003	0.0195	-0.003	9
0.0712	-0.003	0.0225	-0.0008	8.9
0.0082	-0.0008	0.0195	-0.0008	8.9
-0.0383	-0.0008	0.0127	0.0007	8.8
-0.0233	-0.0015	0.0015	0	8.9
-0.0285	-0.0008	0.0015	-0.0068	9
-0.0195	-0.0046	0.0015	-0.0068	8.9
0.0052	-0.0046	-0.0113	-0.0046	8.9
-0.0008	-0.0015	-0.0233	-0.0046	8.8
-0.0083	-0.0008	-0.027	-0.0053	8.7
0.0045	-0.0015	-0.0338	-0.003	8.8
0.0465	-0.0008	-0.0383	0	8.7
0.0187	0.0037	-0.0443	0.0015	8.7
-0.0248	0.006	-0.0555	0.0052	8.7
-0.0353	0.0075	-0.0555	0.0045	8.6
-0.1193	0.0067	-0.048	0.003	8.6
-0.2198	0.0067	-0.0285	0.0007	8.6
-0.1403	0.0037	-0.0083	-0.003	8.8
0.0712	-0.0015	0.009	-0.0075	8.7
0.1515	-0.0046	0.0217	-0.0105	8.8
0.1252	-0.0046	0.027	-0.0083	8.5
0.0532	-0.003	0.0232	-0.0068	8.7
0.0165	-0.0008	0.012	-0.0038	8.5
0.0037	0.0007	-0.0015	-0.0008	8.6
-0.0256	0.0015	-0.0128	0	8.5
0.0225	0	-0.0083	-0.0023	8.6
0.069	-0.0015	-0.003	-0.0053	8.4
0.0937	-0.0015	-0.006	-0.0046	8.6
0.06	-0.0015	-0.0091	-0.003	8.4
0.018	-0.0015	0	-0.003	8.7
0.003	-0.0015	0.0052	-0.003	8.5
-0.0173	-0.003	-0.006	-0.0008	8.5
0.0217	-0.0015	-0.0293	-0.0008	8.5
-0.0105	0.0007	-0.0503	-0.0008	8.5
-0.1118	0.0015	-0.054	-0.0015	8.4
-0.0885	0.0007	-0.0353	-0.0038	8.5
-0.0503	-0.0015	-0.0165	-0.0038	8.3
-0.0608	-0.0015	-0.0046	-0.0053	8.5
-0.0593	-0.003	0.0082	-0.0046	8.5
-0.0503	-0.0008	0.0052	-0.003	8.4
-0.006	0.0007	0.0105	-0.0046	8.2
0.0157	-0.003	0.0165	-0.0015	8.4
0.027	-0.0046	0.018	0.0007	8.4
0.0105	-0.0015	0.0202	0.003	8.4
-0.0233	-0.0008	0.03	0.003	8.3
-0.0188	-0.0023	0.0405	0.0007	8.4
-0.0473	-0.0053	0.0337	-0.0008	8.2
-0.0795	-0.0053	0.027	0	8.4
-0.0743	-0.0038	0.0187	0	8.4
-0.0938	-0.0015	0.0255	-0.003	8.1
-0.0675	-0.003	0.0375	-0.0038	8.3
0.0517	-0.0008	0.039	-0.003	8.1
0.1065	0.003	0.0412	-0.0015	8.3
0.0412	0.0067	0.0405	-0.0015	8.1
-0.0346	0.0127	0.0352	-0.0068	8.2
-0.0608	0.0097	0.018	-0.0105	8.1
-0.0578	-0.0008	-0.0008	-0.012	8.2
-0.0278	-0.003	-0.0091	-0.0083	8.1
0.0045	0.0015	-0.0195	-0.0015	8.2
0.0772	-0.0008	-0.0188	-0.003	8.1
0.1222	-0.0046	-0.0023	-0.0038	8.2
0.105	-0.0038	0.006	0	8.1
0.0772	-0.0046	0.015	0.0045	8.3
0.0165	-0.0023	0.0285	0.0045	8.2
0.0052	-0.0023	0.0345	-0.0015	8.1
0.0022	-0.0015	0.0375	-0.0083	8.1
-0.021	-0.0008	0.0427	-0.0091	8.1
-0.0323	0.0007	0.057	-0.0075	8.1
-0.042	0	0.063	-0.003	8.3
-0.0458	0.0015	0.0577	0.0082	8
-0.0495	0.0045	0.039	0.012	8.4
-0.0308	0.003	0.0045	0.009	7.9
-0.024	0.0037	-0.0405	0.0045	8.1
-0.024	0.0045	-0.0653	0.0007	7.8
-0.0135	0.0037	-0.0585	-0.0008	8.1
-0.0075	0.0022	-0.0353	-0.0053	7.8
-0.0465	0	-0.0091	-0.0053	8.1
-0.09	-0.0015	0.0015	-0.0038	7.9
-0.057	0	0.0052	-0.0008	8.1
-0.0195	0.0022	-0.0038	0.0007	7.9
0.0015	0.0015	-0.0023	0	7.9
0.0442	-0.0008	0.015	-0.0038	8.1
0.0555	-0.003	0.0225	-0.0091	8.1
0.0277	-0.006	0.0202	-0.0105	8.1
-0.0038	-0.0068	0.0247	-0.0098	8
-0.0053	-0.0053	0.0082	-0.0091	7.9
0.003	-0.0015	-0.0181	-0.0083	7.7
-0.0053	-0.0008	-0.0256	-0.0105	7.9
-0.0143	-0.0015	-0.033	-0.0113	7.9
-0.0181	0.0007	-0.0346	-0.0083	8
0.0082	0.003	-0.0346	0.0007	7.8
0.0465	0.003	-0.0188	0.0112	8.1
0.0517	0.0045	-0.0083	0.0127	7.8
0.0195	0.0067	-0.0068	0.0052	8
0.0007	0.0007	0.0007	-0.0053	7.9
-0.0285	-0.003	0.003	-0.0083	8
-0.093	-0.0008	0.0105	-0.003	8
-0.126	-0.0015	0.012	0.0015	8
-0.1028	-0.0015	0.0165	0.0015	8
-0.012	-0.0038	0.0285	-0.0023	8.1
0.0217	-0.0053	0.0277	-0.0023	7.9
-0.0278	-0.0038	0.0105	-0.0015	8.1
-0.0113	-0.0015	-0.006	0.0015	7.7
0.0045	0.0015	-0.0046	0.0015	8.1
0.0217	0	0.0007	-0.0008	7.6
0.0405	-0.0023	-0.015	-0.0008	8.1
0.0015	-0.0023	-0.021	0	7.8
-0.0263	-0.0008	-0.0091	0.0015	7.9
-0.0638	-0.0008	-0.0023	-0.0015	7.7
-0.06	-0.003	-0.003	0.0007	8
0.003	0.0007	-0.0218	0.0067	7.7
0.09	0.0022	-0.027	0.0075	8
0.1957	0.0007	-0.015	0.0067	7.7
0.2137	-0.0008	-0.0158	0.0015	7.9
0.1087	-0.0015	-0.0068	-0.0075	7.7
0.0097	0	0.012	-0.0165	7.7
-0.075	0.0007	0.0225	-0.0143	7.8
-0.1628	-0.0008	0.0232	-0.006	7.7
-0.1575	0.0007	0.0015	-0.0046	7.7
-0.1598	0.0007	-0.0188	-0.0046	7.8
-0.1163	-0.0038	-0.0083	-0.0083	7.8
-0.0458	-0.0083	0.003	-0.0053	7.8
-0.0315	-0.0046	-0.0091	0.0015	7.7
0.0112	0	-0.0105	0.0037	7.7
0.0375	0.0007	-0.015	0.0015	7.6
0.057	-0.0008	-0.0173	-0.012	7.6
0.0082	-0.0015	-0.0256	-0.0225	7.7
-0.0825	-0.003	-0.0488	-0.0188	7.6
-0.0975	-0.0023	-0.0578	-0.0075	7.8
-0.0563	0.0022	-0.0405	-0.003	7.6
-0.0023	0.0037	-0.027	-0.0015	7.8
0.042	0.003	-0.0368	0	7.6
0.0952	0.0015	-0.048	0.0015	7.6
0.1042	0.003	-0.042	0.0037	7.6
0.042	0.0052	-0.024	0.0015	7.6
-0.0015	0.0015	-0.0128	0.0007	7.6
-0.0143	-0.003	-0.0046	-0.0015	7.6
-0.0473	-0.0046	0.0045	-0.006	7.6
-0.0691	-0.0046	0.0112	-0.0053	7.6
-0.0225	-0.0015	0.0127	-0.0015	7.6
0.0472	0.003	0.0127	0.0015	7.7
0.0607	0.0045	0.0217	0.0015	7.5
0.0217	0.0022	0.0315	0.0007	7.5
-0.0225	0.0015	0.0367	0.0015	7.5
-0.0413	0.0007	0.03	0.0022	7.6
-0.0368	-0.0038	0.0232	-0.003	7.5
-0.0143	-0.0075	0.0195	-0.0068	7.4
-0.0015	-0.0053	0.0105	-0.0105	7.5
-0.0195	-0.003	0.0142	-0.0173	7.6
-0.0293	0.003	0.0127	-0.0128	7.4
-0.027	0.012	-0.0053	0	7.4
-0.0143	0.0127	-0.0353	0.006	7.3
0.003	0.0082	-0.0548	0.009	7.5
0.0112	0.0052	-0.0593	0.0127	7.2
0.0142	0.006	-0.0465	0.0105	7.5
0.006	0.0052	-0.0075	0.003	7.2
-0.0053	0.0037	0.0255	-0.0015	7.4
-0.0248	-0.0008	0.0465	-0.0046	7.2
-0.0405	-0.012	0.0615	-0.0046	7.6
-0.0383	-0.0135	0.0667	-0.0053	7.4
-0.0368	-0.0068	0.0727	-0.0038	7.3
-0.0383	-0.0053	0.0615	0.003	7.2
-0.0353	-0.003	0.0405	0.0127	7.3
-0.0293	-0.0046	0.0232	0.0202	7.2
-0.012	-0.0038	0.0105	0.003	7.3
0.0082	-0.0015	-0.0038	-0.0218	7.2
0.0307	0	-0.0173	-0.0315	7.2
0.0555	0.0022	-0.0105	-0.0293	7.2
0.0577	-0.0008	-0.0008	-0.0203	7.2
0.0495	0	-0.0105	-0.0083	7.1
0.042	0.0037	-0.0308	0.009	7.3
0.0195	0.0045	-0.0315	0.015	7.1
-0.0046	0.003	-0.0195	0.0067	7.1
-0.0173	0.0015	-0.0128	0.0045	7.1
-0.0143	-0.0008	-0.0068	0.0015	7
-0.0023	-0.0023	-0.0091	-0.0008	7
-0.0015	-0.003	-0.0105	-0.0053	7.1
-0.0165	-0.0046	-0.0083	-0.0128	7.1
-0.0075	-0.006	0.003	-0.0128	7.1
-0.0023	-0.0083	0.0142	0.0007	7.3
-0.0278	-0.0068	0.0232	0.009	7
-0.042	-0.0068	0.0307	0.0007	7.1
-0.0495	-0.0068	0.0352	-0.0091	6.9
-0.0518	-0.003	0.039	-0.0143	7
-0.0533	0.0052	0.0367	-0.0091	6.9
-0.0383	0.0112	0.0322	-0.0038	7.1
0.003	0.009	0.0315	-0.006	6.8
0.0217	0.0045	0.0337	-0.003	7
0.0187	0.0045	0.0277	0.0007	6.8
0.0165	0.0075	0.018	0.003	7.1
0.0022	0.006	0.0127	0.003	6.8
-0.027	0.0045	0.0045	0.0157	6.8
-0.0361	0.0015	0.009	0.0352	7
-0.0158	-0.003	0.0165	0.0232	6.7
-0.0038	-0.003	0.0187	-0.0053	7
-0.0053	-0.0046	0.0232	-0.0233	7
-0.003	-0.0053	0.021	-0.0218	6.7
-0.0068	-0.0023	0.003	-0.0143	6.9
-0.0128	0.0015	-0.003	-0.0113	6.7
0.0007	0.003	0.003	0.0007	6.9
0.0172	0.0015	-0.003	0.0097	6.7
0.03	0.0007	-0.0083	-0.003	6.7
0.0307	-0.0015	-0.0083	-0.0143	6.8
0.027	-0.0046	-0.0105	-0.0135	6.7
0.009	-0.0068	-0.0023	-0.0075	6.7
-0.045	-0.0075	0.009	-0.0053	6.8
-0.0713	-0.0075	0.0142	-0.0068	6.7
-0.0495	-0.0098	0.0112	-0.0083	6.8
-0.0361	-0.0098	0.006	-0.0105	6.6
-0.0293	-0.0098	0.0105	-0.012	6.6
0.0195	-0.0083	0.0202	-0.0091	6.7
0.0157	-0.0023	0.0285	-0.0015	6.4
-0.0735	0.0015	0.0142	0.0037	6.7
-0.0675	0.006	-0.0143	0.0082	6.6
-0.042	0.0127	-0.0375	0.0142	6.6
-0.0278	0.0202	-0.0503	0.0202	6.5
0.0255	0.0217	-0.0533	0.018	6.6
0.027	0.0157	-0.0645	0.0105	6.6
0.054	0.0082	-0.0833	0.0067	6.6
0.0382	0.0037	-0.1028	0.0007	6.4
0.0142	0.0007	-0.093	-0.0015	6.5
0.0292	-0.0008	-0.0608	-0.003	6.5
-0.006	-0.0015	-0.0405	-0.0053	6.6
-0.0046	-0.003	-0.0105	-0.006	6.5
0.009	-0.0046	0.0045	-0.006	6.6
0.012	-0.006	0.015	-0.0068	6.5
-0.0023	-0.0068	0.0345	-0.0083	6.6
-0.0308	-0.0075	0.0435	-0.0083	6.4
-0.0263	-0.0068	0.0487	-0.0083	6.7
-0.0233	-0.0075	0.0465	-0.0083	6.3
-0.0128	-0.0091	0.0487	-0.0105	6.6
0.0172	-0.0128	0.0465	-0.0105	6.4
0.0607	-0.0128	0.0502	-0.0091	6.6
0.0367	-0.0105	0.0532	-0.0083	6.3
-0.0353	-0.0053	0.0532	-0.0053	6.5
-0.057	-0.0015	0.0427	-0.0015	6.3
-0.0758	0.0045	0.018	0.003	6.5
-0.0728	0.0112	-0.012	0.0045	6.4
-0.0368	0.015	-0.06	0.0067	6.4
0.003	0.0142	-0.0945	0.0037	6.4
0.0232	0.0105	-0.1088	-0.0008	6.4
0.018	0.0045	-0.09	-0.0023	6.3
0.0217	0.0015	-0.0375	-0.0068	6.3
0.012	-0.0015	-0.0015	-0.0075	6.4
-0.015	-0.0046	0.003	-0.0068	6.3
-0.0533	-0.0046	-0.0008	-0.0008	6.4
-0.0465	-0.0053	0.0067	0.0052	6.2
-0.0091	-0.0068	0.0112	0.0067	6.4
-0.003	-0.0046	0.006	0.0097	6.2
0.0307	-0.0053	0.0082	0.0067	6.3
0.0667	-0.0053	0.0187	-0.003	6.2
0.0307	-0.0068	0.0292	-0.015	6.3
-0.0361	-0.0053	0.0255	-0.0143	6.3
-0.0645	-0.0015	0.0262	-0.0068	6.2
-0.0691	0.0007	0.027	-0.0068	6.2
-0.057	0.003	0.0232	-0.0053	6.1
-0.0285	0.0052	0.006	-0.0053	6.3
0.0015	0.003	-0.0165	-0.0038	6.1
0.0187	0.0045	-0.0158	-0.003	6.1
0.0105	0.003	-0.0128	-0.0008	6.2
0.0157	0.0007	-0.0105	0.0052	6.1
0.018	-0.0008	-0.0165	0.0112	6.3
0.0157	-0.003	-0.033	0.012	5.9
0.012	-0.0008	-0.0428	0.0045	6.1
0.0037	0.0007	-0.0315	-0.0053	6.1
0.0007	-0.0008	-0.0068	-0.0075	6.1
-0.0053	-0.0015	0.0052	-0.0053	6.1
-0.0068	-0.003	0.0157	-0.006	6.4
-0.0135	-0.0023	0.021	-0.0046	5.9
-0.0068	0.0007	0.0195	-0.0008	6.3
0.0045	0.0037	0.018	0.0015	6.1
0.0067	0.0052	0.018	-0.0008	6.1
0.009	-0.0023	0.024	-0.0105	6.1
0.0045	-0.012	0.0322	-0.0181	6.1
-0.0053	-0.0098	0.0442	-0.0195	6.1
-0.0203	-0.0113	0.0532	-0.0188	6.1
-0.0285	-0.0158	0.0615	-0.0165	6
-0.0405	-0.012	0.063	-0.0143	6.1
-0.0473	-0.0068	0.057	-0.0053	6.1
-0.0458	-0.0008	0.042	0.0007	6.1
-0.0458	0.006	0.012	0.0075	6
-0.0346	0.0097	-0.0165	0.0105	6
-0.0173	0.0142	-0.0428	0.0105	5.9
-0.0038	0.0142	-0.063	0.0052	6.1
0.0165	0.0105	-0.0825	-0.0008	6
0.039	0.0097	-0.1013	0.0007	6
0.048	0.0075	-0.1035	-0.0023	6
0.0435	0.0052	-0.0803	-0.0023	6.1
0.0262	0.0022	-0.0473	0	5.9
0.012	-0.0008	-0.0308	-0.0008	6.1
0.0067	-0.0015	-0.0181	0	6
0.0015	-0.0015	-0.0225	-0.0015	5.9
0.0067	-0.003	-0.0293	-0.0068	6
0.0097	-0.0053	-0.0143	-0.0091	6.1
0.0127	-0.0083	0.0067	-0.0083	6.1
0.0142	-0.0091	0.0195	-0.0053	5.9
-0.0038	-0.0098	0.0345	-0.0008	6.1
-0.0233	-0.012	0.0517	-0.0053	6.1
-0.0353	-0.0113	0.054	-0.0113	6.1
-0.0405	-0.0068	0.057	-0.0091	5.9
-0.048	-0.0068	0.0615	-0.0083	5.9
-0.0683	-0.0038	0.0622	-0.0038	6
-0.0863	0.0045	0.054	0.0045	6
-0.0713	0.0105	0.0397	0.012	6
-0.0203	0.009	0.0307	0.015	6.1
0.0142	0.009	0.0142	0.012	5.9
0.0405	0.009	-0.0158	0.0112	5.8
0.0547	0.0075	-0.0278	0.0052	5.8
0.0487	0.003	-0.0158	0.0015	6.1
0.0412	0.0015	-0.0008	-0.0015	5.9
0.0202	0.003	0.0277	-0.0046	6.1
-0.0105	0.0007	0.045	-0.0053	6
-0.045	-0.003	0.0502	-0.0075	6.3
-0.0503	-0.0015	0.06	-0.006	5.8
-0.0143	0.0015	0.0457	-0.003	6.2
0.0165	0.0037	0.0157	-0.0015	5.8
0.0315	0.0015	-0.0053	-0.0015	6
0.0352	0.0007	-0.0038	-0.0046	5.9
0.0277	-0.003	0.0022	-0.0083	6.2
0.0157	-0.0053	-0.0046	-0.0083	5.9
-0.0173	-0.0053	0.0037	-0.0098	6
-0.0548	-0.0075	0.0105	-0.0091	6
-0.0623	-0.0083	0.0075	-0.0083	5.9
-0.0525	-0.006	-0.0038	-0.0083	6
-0.0533	-0.0015	-0.0218	-0.0053	5.8
-0.042	0	-0.024	-0.0046	5.9
-0.021	-0.0015	-0.0323	-0.0008	5.8
-0.024	-0.0015	-0.0361	0.0022	5.9
-0.0218	0	-0.0308	0.0045	5.8
-0.0105	0.0015	-0.024	0.0067	5.8
0.0037	0.0045	-0.027	0.006	5.8
0.0097	0.003	-0.0533	-0.0008	5.9
0.0165	-0.0008	-0.0728	-0.0053	5.8
0.0195	-0.0015	-0.0511	-0.0083	5.8
0	-0.0008	-0.0068	-0.0083	5.8
-0.0091	0.0007	0.0195	-0.003	5.8
-0.0181	0.003	0.0262	-0.0008	5.8
-0.0278	0.0022	0.0307	-0.0023	5.8
-0.024	0.0007	0.0262	-0.0008	5.9
-0.012	0.0022	0.0105	-0.003	5.8
-0.0233	0.0045	0.006	-0.0068	5.8
-0.0668	0.0022	0.0157	-0.0128	6
-0.078	-0.0015	0.0165	-0.0158	5.7
-0.0465	-0.0023	-0.0068	-0.0068	5.8
-0.0053	-0.0038	-0.024	-0.0038	5.7
0.0352	-0.0023	-0.027	-0.0015	5.9
0.0975	0.0015	-0.0383	0.0007	5.8
0.1387	0.0022	-0.0383	0.0007	5.8
0.0922	0.0007	-0.024	0.0037	5.6
0.0442	-0.0015	-0.0091	0.0022	5.7
0.027	-0.0068	0.0097	-0.003	5.7
-0.0353	-0.0091	0.0292	-0.0046	5.8
-0.0653	-0.006	0.0255	-0.003	5.8
-0.0503	-0.0053	0.0097	-0.003	5.7
-0.0428	-0.0046	0.0187	-0.0008	5.8
-0.0458	0.0022	0.0345	0	5.6
-0.0578	0.003	0.033	-0.0015	5.9
-0.0383	0.0007	0.0217	-0.0008	5.6
-0.0293	0.0037	0.0217	0.0022	5.7
-0.0443	0.003	0.018	0.0045	5.8
-0.0233	0.0015	0.0225	0.0067	5.8
0.024	0.0052	0.0225	0.006	5.8
0.0427	0.0045	-0.012	0.003	5.8
0.0352	0.0007	-0.0593	0.0015	5.5
0.0277	-0.003	-0.084	-0.0023	5.6
0.0165	-0.0053	-0.075	-0.0046	5.5
0.0105	-0.0068	-0.057	-0.0075	5.7
-0.0008	-0.0113	-0.033	-0.0098	5.5
-0.0218	-0.0128	0.009	-0.0105	5.6
-0.0563	-0.0098	0.0465	-0.0105	5.6
-0.078	-0.0046	0.0555	-0.0075	5.6
-0.054	-0.0015	0.0465	-0.0053	5.7
-0.0278	0.0007	0.033	-0.0038	5.7
-0.0038	0.0045	0.0045	0.003	5.5
0.024	0.0082	-0.015	0.0105	5.6
0.039	0.0142	-0.0181	0.0157	5.4
0.0292	0.0135	-0.0158	0.0142	5.6
0.006	0.0082	-0.006	0.0052	5.5
-0.0278	0.0082	0.0007	-0.0068	5.7
-0.0765	0.0022	0.012	-0.0218	5.5
-0.0856	-0.003	0.0195	-0.0195	5.6
-0.0293	-0.0008	0.0127	-0.0068	5.3
0.0277	0.0015	0.003	-0.0075	5.6
0.054	-0.0015	0.0007	-0.0068	5.4
0.069	-0.0046	-0.0053	-0.0046	5.5
0.0712	-0.006	0.0022	0.003	5.4
0.0375	-0.0053	0.0232	0.0052	5.5
0.0045	0.0007	0.0217	-0.0068	5.5
-0.0053	0.0052	0.0157	-0.0105	5.5
-0.0203	0.0082	0.0105	-0.0113	5.4
-0.0181	0.0067	0.0105	-0.0068	5.5
-0.0083	-0.0068	0.0135	-0.0008	5.4
-0.0091	-0.0105	0.0067	0.003	5.5
-0.0046	-0.0053	0.0082	0.0075	5.3
-0.0098	-0.0046	0.0187	0.0037	5.4
-0.0188	-0.003	0.0232	-0.0008	5.2
-0.0225	-0.0053	0.0232	-0.0015	5.3
-0.024	-0.0053	0.0225	-0.0038	5.3
-0.027	-0.0053	0.0187	-0.003	5.3
-0.027	-0.0038	0.012	-0.0023	5.3
-0.0188	0.003	0.003	-0.0038	5.3
-0.0143	0.0015	-0.0046	-0.0038	5.2
-0.0105	0.0045	0	-0.003	5.3
-0.0158	0.0045	0.0067	-0.003	5.3
-0.0233	0.0022	-0.003	0.0007	5.1
-0.0218	0.0052	-0.0128	0.0052	5.3
-0.021	0.0075	-0.0023	0.0037	5.1
-0.0181	0.0022	0.0082	0.0007	5.4
-0.0181	-0.003	0.0082	-0.0046	5.1
-0.0098	-0.0015	0.0015	-0.0098	5.3
0.0037	-0.0015	-0.0143	-0.0128	5
0.0007	-0.0053	-0.027	-0.0091	5.2
-0.0143	-0.0046	-0.0053	-0.0068	5
-0.024	-0.003	0.021	-0.0038	5.3
-0.0181	0	0.0225	0.003	5
-0.0113	0.0015	0.018	0.0015	5.1
-0.003	0.0007	0.0067	0	5
-0.0008	0	-0.012	0.0015	5
-0.0015	0.0015	-0.0375	0.0015	5
0	0.0007	-0.0428	-0.0015	5.1
-0.0015	-0.0023	-0.0278	-0.0046	5
0.0067	-0.003	-0.0256	-0.0053	5.1
0.0142	-0.0053	-0.0203	-0.0046	4.8
0.003	-0.003	-0.0158	-0.0023	4.9
-0.0203	-0.0008	-0.0128	-0.0008	4.9
-0.0143	0.0045	-0.0091	0.0022	5
0.0105	0.0082	-0.012	0.003	4.9
0.03	0.0067	-0.0181	0.0015	4.9
0.0397	0.0045	-0.0181	-0.0015	4.9
0.0307	0	0.003	-0.006	4.9
0.0127	-0.0046	0.0165	-0.0091	5
-0.0008	-0.0053	0.0112	-0.0113	5.1
-0.0091	-0.0053	-0.0038	-0.0098	4.9
-0.0165	-0.0075	-0.003	-0.012	4.9
-0.0443	-0.0113	0.036	-0.015	4.9
-0.0945	-0.0098	0.063	-0.0105	4.8
-0.1103	0	0.0577	0.0007	4.9
-0.0825	0.0052	0.0412	0.0052	4.8
-0.039	0.006	0.0142	0.0082	5
0.0112	0.0097	-0.0308	0.0127	4.6
0.0315	0.012	-0.0735	0.0112	4.9
0.0232	0.0105	-0.0758	0.0067	4.7
0.009	0.0052	-0.0518	-0.0008	4.8
-0.0165	-0.0023	-0.0473	0.003	4.6
-0.0046	0.0037	-0.0503	0.0067	4.9
0.0172	0.0075	-0.0113	0.0015	4.9
0.012	0.003	0.015	-0.0015	4.7
0.0142	-0.0008	0.0007	-0.0023	4.7
0.015	-0.0038	0.0045	-0.0038	4.8
0.0195	-0.0038	0.006	-0.0046	4.8
0.0225	-0.0068	0.0127	-0.0068	4.7
0.0195	-0.0083	0.0315	-0.006	4.7
0.0255	-0.0053	0.0315	-0.0046	4.8
0.0097	-0.0046	0.027	-0.0068	4.7
-0.0098	-0.003	0.0202	-0.0083	4.8
-0.0278	-0.0038	0.0225	-0.0083	4.6
-0.0578	-0.0053	0.0397	-0.0098	4.7
-0.057	-0.0046	0.0547	-0.0068	4.6
-0.0443	0.0007	0.0577	-0.0008	4.8
-0.0593	0.0037	0.0435	0.0015	4.5
-0.0623	-0.0015	0.0277	-0.0008	4.7
-0.0353	-0.0038	0.0307	-0.0015	4.5
-0.0075	-0.0015	0.0307	-0.0015	4.7
0.0315	-0.0015	0.0007	-0.0015	4.5
0.0712	0.0007	-0.0308	-0.0038	4.4
0.078	0.0007	-0.0405	-0.0053	4.6
0.0202	0.0007	-0.0285	-0.0053	4.4
-0.039	0.0007	-0.0346	-0.003	4.4
-0.0293	0.0007	-0.0593	-0.0015	4.4
-0.0308	0.0007	-0.0653	-0.0008	4.5
-0.0263	0.0007	-0.0323	-0.0008	4.4
-0.0188	0.0007	0.018	-0.003	4.5
-0.0181	-0.0023	0.027	-0.0038	4.4
0.0052	-0.003	0.0127	-0.0015	4.5
0.0105	-0.0008	-0.006	0.0007	4.5
0.0022	0.0007	-0.0158	0	4.4
-0.0098	0	-0.0218	0.0007	4.4
-0.0173	-0.0008	-0.0203	-0.0008	4.5
-0.0195	-0.0046	0.009	-0.0038	4.3
-0.0105	-0.0083	0.0292	-0.0068	4.3
-0.0075	-0.0091	0.0405	-0.0083	4.2
-0.0053	-0.0105	0.0427	-0.0083	4.2
0.0037	-0.0068	0.036	-0.0046	4.3
0.003	0.0007	0.0345	-0.003	4.4
0.0022	0.0022	0.0412	-0.0023	4.1
-0.0105	0.0052	0.042	-0.0008	4.4
-0.0173	0.0082	0.0142	-0.0008	4.1
-0.0091	0.003	-0.0046	0	4.3
-0.0015	0.0022	-0.0105	0.0045	4
-0.0008	0.0037	-0.0256	0.003	4.2
-0.003	0.003	-0.0375	0.0007	4.1
0.0007	0.006	-0.0518	0.0037	4.3
0.0007	0.003	-0.057	0	4
-0.0015	-0.0015	-0.0548	0.0015	4.2
-0.0008	0	-0.0608	0.0067	4
-0.0046	-0.0008	-0.039	0.006	4.1
-0.0091	-0.0008	-0.0278	0.0067	4.1
-0.0068	0.003	-0.03	-0.0008	4
0.0007	0.003	-0.0203	-0.0075	4
-0.0038	0.0007	-0.0135	-0.0105	4.1
-0.0083	-0.0008	0.0007	-0.0083	4.1
-0.0053	0.0015	0.0007	-0.0038	4.2
-0.0075	0.0022	-0.0038	-0.0105	4.1
-0.0105	0	-0.003	-0.0158	4.1
-0.0105	0	-0.003	-0.0105	4.1
-0.0075	0.0015	0.0007	0.0022	4.1
-0.0068	0.0015	0.012	0.0052	4
-0.0091	0.0022	0.0202	-0.003	4
-0.012	0.003	0.0232	-0.0128	3.9
-0.015	0.0045	0.027	-0.0143	4
-0.0181	-0.0053	0.0255	-0.0143	3.9
-0.0181	-0.0105	0.0195	-0.0091	3.9
-0.0181	-0.0038	0.0015	0.0052	3.8
-0.0173	-0.0008	-0.0218	0.015	3.7
-0.0105	0.003	-0.0225	0.0142	3.8
-0.0083	0.0015	-0.0075	0.0045	3.7
-0.0068	0.0007	0.003	-0.0008	4
-0.0015	0.003	0.003	-0.0091	3.8
-0.0053	0.003	0.0045	-0.0105	4.1
-0.0046	0.0037	0.0045	-0.0046	3.8
-0.003	0.003	0.0037	-0.0038	3.9
-0.0008	0.0015	0.006	-0.0105	3.8
0.0022	-0.0008	0.009	-0.0188	4
0	-0.0046	0.012	-0.012	3.7
-0.003	-0.0053	0.0157	0.0157	3.8
-0.0046	-0.0046	0.021	0.024	3.8
-0.0053	-0.0083	0.024	0.0067	3.8
-0.0091	-0.012	0.027	0.0015	3.9
-0.0158	-0.012	0.0292	-0.0008	3.8
-0.0158	-0.0105	0.0247	-0.0023	3.8
-0.0091	-0.006	0.0202	0.0007	3.8
-0.0046	-0.0023	0.012	0.0037	3.6
0.0052	-0.0008	0.0075	0.0037	3.8
0.0142	-0.0015	0.0127	-0.0015	3.6
0.0142	-0.003	0.024	-0.0068	3.8
0.009	-0.003	0.0367	-0.0091	3.6
-0.0083	-0.003	0.042	-0.0098	3.9
-0.0278	-0.0015	0.0412	-0.0143	3.7
-0.0383	-0.0008	0.0202	-0.015	3.8
-0.03	0.0022	-0.0023	-0.0158	3.7
-0.0195	0.0082	-0.0083	-0.0068	3.9
-0.0173	0.0082	-0.0158	0.0015	3.6
-0.0158	0.0052	-0.0203	0.0022	3.9
-0.0158	0.0052	-0.0263	0.0067	3.9
-0.0165	0.0067	-0.0293	0.0067	3.8
-0.012	0.003	-0.0181	0.003	3.7
0.0142	-0.0008	-0.0105	0.0007	3.5
0.0435	0.0007	0.0067	0	3.9
0.0487	0.0015	0.0217	-0.0008	3.8
0.0382	-0.0015	0.0255	-0.003	3.8
0.0225	-0.0053	0.0255	-0.0053	3.8
0.009	-0.0053	0.024	-0.0075	3.8
-0.0068	-0.0091	0.039	-0.012	3.9
-0.0443	-0.0068	0.042	-0.0091	3.7
-0.09	0.0022	0.015	-0.0015	3.8
-0.099	0.0067	-0.0165	0.0015	3.7
-0.0706	0.0045	-0.0308	0.0015	3.9
-0.0323	0.0022	-0.0428	0.0045	3.7
-0.0068	0.003	-0.0518	0.003	3.9
-0.0068	-0.0023	-0.0375	-0.0038	3.8
-0.0098	-0.0053	-0.0218	-0.0068	3.9
0.0067	0.0007	-0.0128	-0.0046	3.8
0.0202	0.0045	0.0052	0	3.9
0.009	0.0127	0.0247	0.0022	4.2
0.0067	0.0165	0.0202	0.0037	3.8
0.0195	0.0127	0.0022	0.0052	4
0.0202	0.012	-0.0315	0.0052	3.7
0.0105	0.0112	-0.081	0.006	4
0.0075	0.0097	-0.1103	0.003	3.8
0.003	0.0067	-0.081	-0.003	4.1
-0.0203	0.0007	-0.0315	-0.0053	3.8
-0.03	-0.0046	-0.0046	-0.0083	4.1
-0.027	-0.0075	0.03	-0.0105	4
-0.0203	-0.0083	0.0502	-0.0091	4.1
-0.0128	-0.0083	0.0577	-0.0083	3.9
-0.012	-0.0068	0.0645	-0.0068	4.2
-0.003	-0.0068	0.069	-0.0083	4
0.0105	-0.0083	0.075	-0.0075	4.1
0.0172	-0.0075	0.0832	-0.0053	4.1
0.003	-0.0053	0.0787	-0.0038	4.1
-0.0105	-0.0053	0.0352	-0.0038	4.1
-0.003	-0.0068	-0.0165	-0.0023	4.2
0.0045	-0.0053	-0.0413	-0.0015	4
0.0037	-0.0068	-0.045	-0.006	4.1
-0.0195	-0.0053	-0.0413	-0.0038	4
-0.0383	0.0067	-0.0188	0.003	4.1
-0.0525	0.012	0.0127	0.003	4.2
-0.0675	0.0067	0.0345	-0.0008	4.3
-0.0346	0.003	0.0262	-0.0015	4.2
0	0.0015	0.0105	-0.0023	4.4
0.0015	-0.0008	0.003	-0.0015	4.1
0.0052	-0.0015	-0.0128	-0.0015	4.1
0.009	-0.0038	-0.021	-0.0023	4
0.0165	-0.0015	-0.0203	-0.0008	4.1
0.0135	0.0015	-0.0105	-0.0023	4.2
0.0015	-0.0008	0.0015	-0.0023	4.1
-0.003	-0.003	0.0015	-0.003	4.3
0.0007	-0.0046	-0.0068	-0.0053	4.1
0.0097	-0.0046	-0.006	-0.0075	4.3
0.0195	-0.0038	0.0015	-0.006	4.1
0.027	-0.006	0.003	-0.0046	4.3
0.0202	-0.0068	0.0052	-0.003	4
0.0142	-0.0075	0.0052	0.0015	4.1
-0.0046	-0.0083	0.0082	0.006	4
-0.0233	-0.0068	0.0105	0.0105	4.2
-0.0233	-0.0046	0.0082	0.0045	4.1
-0.033	-0.0046	0.0052	-0.0068	4.1
-0.0405	-0.0053	0.009	-0.0128	4
-0.0488	-0.0046	0.0217	-0.015	3.8
-0.0465	-0.0008	0.0202	-0.0068	4
-0.0293	0.0007	-0.006	0.0022	4.1
-0.0173	0.003	-0.0413	0.0045	4
-0.0083	0.0052	-0.0533	0.003	4
0.003	0.003	-0.042	-0.0015	3.8
0.009	0.003	-0.0233	-0.0046	4.1
0.0052	0.0007	-0.024	-0.0046	3.9
0.0067	-0.0008	-0.0375	-0.003	4
0.0075	-0.0008	-0.039	0.003	3.9
0.0037	-0.0015	-0.033	0.0105	4
0.0007	0.003	-0.0293	0.0075	4
-0.0038	0.003	-0.021	0.0007	4
-0.0105	-0.0053	-0.0046	-0.0135	3.8
-0.0181	-0.0113	0.0045	-0.0195	4
-0.0203	-0.0046	0.0082	-0.0083	3.9
-0.0181	0	0.0135	-0.0105	4
-0.0181	0.0015	0.0142	-0.0188	3.9
-0.012	0.0082	0.0135	-0.0158	3.8
0.0082	0.009	0.012	-0.003	4
0.0202	0.0067	0.0247	0.015	4
-0.0008	0.0007	0.0382	0.0165	3.9
-0.0218	0.0007	0.0382	-0.0023	4
-0.0195	0	0.0322	-0.0225	3.8
-0.0195	-0.0008	0.0165	-0.0181	3.9
-0.027	0.0045	0	0.0022	3.9
-0.0285	0.009	-0.0068	0.0052	3.8
-0.0315	0.0135	-0.0083	0.006	3.8
-0.0315	0.0097	-0.0113	0.003	4
-0.0218	0.0022	-0.0218	-0.0008	3.8
0.0052	0.003	-0.0368	0.0037	3.8
0.03	-0.0008	-0.0623	0.0007	3.9
0.0345	-0.0053	-0.075	-0.003	3.9
0.0292	-0.0068	-0.06	-0.003	3.8
0.024	-0.012	-0.0323	0.0007	4
0.0217	-0.0165	-0.0165	-0.0023	3.9
0.015	-0.0188	0	-0.003	3.8
0.003	-0.0218	0.024	-0.0075	4.1
-0.0181	-0.021	0.0382	-0.0098	3.9
-0.0375	-0.0128	0.03	-0.003	3.9
-0.0405	-0.0015	0.009	0.0007	3.8
-0.0278	0.0067	0.0105	0.003	4.1
-0.0143	0.0075	0.03	-0.003	3.8
-0.0405	0.003	0.0375	-0.0053	4.1
-0.0503	0.0067	0.0157	0	3.8
-0.0233	0.0142	-0.0218	0.009	4
0	0.0217	-0.0443	0.0187	3.8
0.042	0.027	-0.0728	0.0225	4
0.0667	0.024	-0.093	0.015	4
0.0517	0.0142	-0.0743	0.0007	3.9
0.0315	0.006	-0.063	-0.0083	3.9
0.0165	0.003	-0.0428	-0.0195	4.1
0.0067	-0.003	0.0075	-0.0173	3.8
-0.0091	-0.006	0.0375	-0.0053	4.2
-0.0128	-0.0053	0.048	-0.0068	3.8
-0.0128	-0.0075	0.0555	-0.0083	4.1
-0.0113	-0.0091	0.0577	-0.0091	3.9
-0.0128	-0.0128	0.0607	-0.0083	4
-0.0203	-0.0181	0.0727	-0.0113	3.9
-0.012	-0.021	0.0795	-0.0181	4.1
-0.0068	-0.0225	0.09	-0.0165	3.8
-0.0248	-0.0233	0.1117	-0.0188	4.1
-0.0555	-0.0165	0.135	-0.0128	4
-0.0825	-0.003	0.15	-0.0053	4.1
-0.0848	0.0045	0.15	0.003	4.1
-0.0968	0.0105	0.144	0.009	4
-0.111	0.0187	0.1365	0.009	4.1
-0.0863	0.0195	0.0892	0.0097	4
-0.0233	0.0187	0.0022	0.012	4
0.0345	0.0165	-0.0488	0.0105	4.1
0.0675	0.012	-0.0691	0.0075	4
0.0652	0.0105	-0.0938	0.009	4
0.057	0.0052	-0.114	0.0165	4.1
0.0712	0.0015	-0.1358	0.015	4.1
0.06	-0.0015	-0.1448	-0.003	4
0.0352	-0.0053	-0.1103	-0.003	3.9
0.0112	-0.0105	-0.0593	-0.0015	4
0.0007	-0.0113	-0.0218	-0.0225	4
0.003	-0.0091	0.0105	-0.0383	3.9
0.0067	-0.0068	0.0285	-0.039	4
0.0097	-0.0075	0.0345	-0.0346	4
-0.0091	-0.0105	0.0397	-0.0233	4
-0.024	-0.0098	0.039	-0.0083	4
-0.012	-0.0098	0.042	0.0082	4
0.0037	-0.0053	0.0442	0.0112	4.1
-0.006	-0.0038	0.0345	0.0052	4
-0.0181	-0.0053	0.0322	0.003	4.1
-0.0315	-0.0053	0.048	0.0015	3.9
-0.0511	-0.0083	0.0502	0.0007	4.2
-0.0623	-0.0023	0.039	0.009	4
-0.0533	0.0112	0.0195	0.0165	4.1
-0.0068	0.0172	0.0052	0.0127	3.9
0.0172	0.0142	-0.024	0.0045	4
0.0217	0.0097	-0.0863	0.0015	3.9
0.0292	0.006	-0.1365	0.0007	3.9
0.018	0.003	-0.1365	0.0015	4
0.0037	0	-0.0968	0.0075	4
-0.0128	0	-0.0698	0.0127	3.9
-0.0143	0.0045	-0.0458	0.0105	3.8
-0.0083	0.0142	-0.0218	0.003	3.8
-0.0143	0.0195	-0.012	-0.0068	3.8
-0.0158	0.012	-0.0015	-0.0053	3.9
-0.0158	0.0015	-0.0008	-0.0015	4
-0.015	0.0015	0.0037	-0.0068	3.8
-0.0143	0.0082	-0.0015	-0.0008	3.9
-0.0143	0.0052	-0.0075	0.003	3.8
-0.012	-0.0008	-0.0083	0.003	3.8
-0.0135	-0.0015	-0.003	-0.003	3.8
-0.0128	-0.0046	0.0075	0.0015	3.9
-0.0091	-0.0105	0.0135	0.0165	3.7
-0.0053	-0.0165	0.012	0.012	4.1
-0.0053	-0.0263	0.0075	0.0007	3.8
-0.003	-0.0315	0.0082	-0.0075	3.8
-0.0023	-0.0308	0.0045	-0.0181	3.8
-0.0068	-0.0308	0.0007	-0.0278	3.8
-0.0068	-0.0278	-0.0008	-0.0473	3.9
-0.0053	-0.012	-0.006	-0.0698	3.8
-0.0181	-0.0008	-0.0165	-0.0548	3.8
-0.024	0.0045	-0.0248	-0.0218	3.6
-0.0158	0.012	-0.0308	-0.0068	3.8
-0.0075	0.0105	-0.0338	-0.003	3.6
-0.0098	0.0067	-0.0165	-0.0015	3.8
-0.0143	0.0045	-0.003	0.0187	3.6
-0.0181	0.0022	-0.0046	0.045	3.8
-0.0158	0.0037	-0.006	0.057	3.6
-0.0053	0.003	-0.012	0.0255	3.8
0.0015	0.0007	-0.015	-0.0203	3.6
-0.0008	-0.003	-0.0158	-0.0458	3.6
-0.0075	-0.0038	-0.0128	-0.0563	3.6
-0.0091	-0.0015	-0.0091	-0.0405	3.7
-0.0075	0.0015	-0.0015	-0.0195	3.7
-0.0098	0.006	0.0045	-0.0068	3.8
-0.0188	0.009	0.0007	-0.015	3.6
-0.0225	0.012	0.0015	-0.0263	3.7
-0.0165	0.0105	0.0097	-0.0188	3.6
-0.0158	0.012	0.0142	-0.0015	3.7
-0.0173	0.012	0.012	0.0165	3.6
-0.0165	0.012	0.003	0.033	3.8
-0.0053	0.0127	-0.003	0.042	3.6
0.0052	0.0067	-0.0038	0.0352	3.8
0.0195	0.0052	-0.0023	0.0217	3.6
0.0285	0.003	0.0067	0.009	3.8
0.0135	-0.0038	0.0075	0.0052	3.4
0.0037	-0.006	-0.003	0.0045	3.7
-0.0046	-0.0046	0.0007	0.0045	3.6
-0.0083	-0.0008	0.0232	0.0022	3.6
-0.0195	-0.0053	0.0427	-0.0068	3.7
-0.0405	-0.0083	0.036	-0.0023	3.6
-0.042	0.006	0.0165	0.006	3.6
-0.033	0.015	0.0045	0.0105	3.6
-0.006	0.009	0.0067	0.0052	3.7
0.018	0.0037	0.012	0.0015	3.7
0.015	0.0007	0.0082	0	3.6
0.0142	-0.0008	-0.0181	-0.0023	3.7
0.0217	-0.0008	-0.0413	-0.0008	3.6
0.018	-0.0053	-0.0173	-0.0053	3.6
0.0135	-0.0083	0.0217	-0.0046	3.6
0.0262	-0.0053	0.0577	-0.0023	3.6
0.0135	-0.0046	0.0825	-0.0091	3.6
-0.0053	-0.0068	0.075	-0.0158	3.6
0.009	-0.0046	0.0427	-0.0091	3.6
0.012	-0.0046	0.018	0.0015	3.6
-0.0068	-0.006	0.0157	0.0007	3.8
-0.021	-0.0046	-0.0203	-0.0008	3.4
-0.027	-0.0038	-0.0293	-0.0015	3.6
-0.0323	-0.003	0.003	-0.0023	3.7
-0.0405	-0.003	0.009	-0.0008	3.7
-0.0495	-0.0015	0.0135	-0.0023	3.6
-0.0555	-0.003	0.015	-0.0053	3.7
-0.0383	-0.0038	0.015	-0.0083	3.6
-0.0113	-0.003	0.0127	-0.0083	3.7
0.009	-0.0015	0.0247	-0.0053	3.7
0.018	-0.0008	0.0352	-0.0053	3.7
0.012	0.0022	0.0345	-0.0046	3.8
0.0105	0.0045	0.042	-0.0008	3.6
0.0037	0.0007	0.0465	0.0007	3.7
-0.012	-0.0008	0.0412	0.006	3.7
-0.0091	0.003	0.033	0.0052	3.6
-0.0046	0.003	0.0442	0.0007	3.7
-0.0053	0.0007	0.0465	-0.0015	3.4
-0.0135	-0.0023	0.0502	-0.006	4
-0.0225	-0.0046	0.0502	-0.003	3.6
-0.0195	-0.003	0.0307	-0.0015	3.9
-0.0368	-0.0046	0.0367	-0.003	3.7
-0.0428	-0.0046	0.0367	-0.0015	3.8
-0.0353	-0.003	0.0217	0.0015	3.6
-0.0293	0.0015	0.024	0.0052	3.9
-0.0046	0.0045	0.0225	0.0022	3.6
0.0225	-0.0053	-0.003	-0.003	3.7
0.0547	-0.0091	-0.042	-0.0015	3.6
0.0712	-0.0068	-0.081	-0.0053	3.7
0.057	-0.0091	-0.1095	-0.0068	3.7
0.039	-0.0053	-0.1028	-0.006	3.6
0.0015	0.0007	-0.0683	-0.0068	3.6
-0.0443	0.0082	-0.0278	-0.0046	3.7
-0.057	0.0097	0.009	-0.003	3.6
-0.0615	0.0082	0.0277	-0.0008	3.8
-0.057	0.0082	0.024	0.0015	3.7
