File Name: marcha_3.log
Channel 4: 'Recto Femoral', 10187 values, engineering units: mV, no filters.
Channel 5: 'Biceps Femoral', 10187 values, engineering units: mV, no filters.
Channel 6: 'Vasto Medial', 10187 values, engineering units: mV, no filters.
Channel 7: 'EMG Semitendinoso', 10187 values, engineering units: mV, no filters.
Channel 8: 'Flexo-Extension', 10187 values, engineering units: deg, no filters.

-0.0008	0	0.0022	-0.0008	0
-0.0015	0.0007	0.003	0	-0.2
-0.0008	0.0007	0.003	0.0007	0
-0.0023	0.0007	0.003	-0.0015	-0.1
-0.0008	0.0007	0.0015	0.0007	-0.2
0.0007	0.0007	0.0007	0.0007	0
0	0.0015	0.0007	0.0007	-0.2
0.0007	0.003	0.0037	0.0015	0.1
0	0.0007	0.0052	0.0015	-0.3
0.0022	0	0.0052	0	0.1
-0.0008	-0.0008	0.0052	0	-0.2
-0.0015	0	0.003	-0.0015	0
0	0.0015	0.0015	-0.0015	0
0.0022	0.0007	0.0015	-0.0008	-0.1
0.0037	0	0.0015	-0.0015	0
0	-0.0008	0	-0.0015	0
0.0007	-0.0008	-0.0015	0	0
0	-0.0015	-0.0015	0.0007	-0.2
-0.0008	0	-0.0015	0	0
0	0.0007	-0.0008	0.0007	0
0	0	-0.0008	0.0022	-0.2
0	-0.0008	-0.003	0.0015	0
-0.0015	-0.0008	-0.003	0.003	-0.2
-0.0008	0.0007	-0.0046	0.0045	0
0.0007	0.0015	-0.0053	0.003	-0.2
0.0007	0.0015	-0.0046	0.0022	0
0.0015	0.0007	-0.0046	0	-0.1
0	0	-0.0053	-0.0008	0.1
0.003	0.0007	-0.0038	-0.0008	-0.2
0.003	0.0007	-0.003	0	0.1
0.0007	0	-0.0046	0	-0.1
0.0015	-0.0008	-0.0068	-0.0015	-0.1
0.0007	0	-0.0083	-0.0008	-0.1
0.0007	0.0015	-0.0068	0.0007	-0.2
-0.0008	-0.0008	-0.0068	0.0007	0
-0.003	-0.0008	-0.0068	0.0007	-0.1
-0.0023	0	-0.0083	0.0007	-0.1
-0.0008	0	-0.0091	-0.0015	-0.1
-0.003	0.0007	-0.0083	-0.0008	0
-0.003	0	-0.0083	0	-0.2
-0.0015	0.0007	-0.0068	-0.0008	0
0	0.0015	-0.0068	-0.0008	-0.2
0	0.0015	-0.0053	0.0007	0.1
0.0015	-0.0008	-0.003	0.0007	-0.2
0.0007	0.0015	-0.0008	0	0.1
-0.0008	0.0015	0.003	-0.0008	-0.3
-0.0008	0	0.0045	-0.0015	0.1
-0.0015	0.0015	0.0052	-0.0015	0
-0.0008	0.0007	0.0067	-0.0008	-0.1
0.0015	0.0015	0.006	-0.0008	-0.1
0.0015	0.0007	0.0045	0	-0.1
0.0015	0.0007	0.0022	0.0007	0
0.0007	0.0015	0.0037	0.003	-0.1
0.0007	-0.0008	0.003	0.0022	0
-0.0008	0.0007	0.0045	0.003	0
-0.0015	0.0007	0.0045	0.0045	0
-0.0008	0.0007	0.0015	0.003	-0.1
-0.0008	0.0015	0.0022	0	0
0.0007	-0.0008	0.003	-0.0008	-0.1
-0.0008	-0.0015	0.0045	0	0.1
0.0007	0.0007	0.0067	0.0007	0
0.0007	0	0.0075	-0.0008	0.1
-0.0008	0.0007	0.0067	-0.0015	-0.2
0.0022	-0.0008	0.0067	-0.0008	-0.1
0.0007	-0.0008	0.0045	-0.0008	-0.1
0.0007	-0.0008	0.0015	0	0.1
0.003	-0.0008	0.0007	0.0007	0
0.0007	-0.0008	-0.0008	-0.0008	0
-0.0008	-0.0015	-0.003	-0.0008	-0.1
-0.0008	0	-0.0038	0.0007	0
-0.0008	0.0015	-0.0046	0.0007	0
0	0.0015	-0.0046	0.0022	0
0	0.0015	-0.0046	0.0015	0
-0.0015	0.0015	-0.0046	0.0022	-0.1
-0.0023	0.0007	-0.0046	0.0015	0
-0.0008	-0.0008	-0.0046	0.0015	-0.2
-0.0015	-0.0008	-0.0053	0.0015	0
-0.0008	0.0007	-0.003	0	-0.1
-0.0008	0.0022	-0.0008	0.0007	0
0.0007	0	-0.0023	0	0
0.0015	-0.0008	-0.0023	-0.0008	-0.1
0.0007	-0.0008	-0.003	0	-0.1
0.0007	-0.0008	-0.0023	-0.0008	0
0.0015	0.0007	-0.0023	-0.0008	-0.1
0.0007	0.0022	-0.003	0	0.1
0.0007	0.0022	-0.0046	-0.0015	0.1
0	0.0015	-0.0038	0.0007	0
-0.0008	0.0007	-0.0008	0.0007	-0.2
0.0015	0.0007	-0.0015	-0.0008	0.1
0.0007	0.0015	-0.003	0.0007	0
-0.0008	0	-0.0008	-0.0008	0
-0.0015	-0.0008	0	-0.0008	0
-0.0015	-0.0008	-0.0008	0.0007	0
0.0007	0.0007	0.0015	0	0
0.0007	0	0.0022	0.0007	0
0.003	-0.0008	0.0022	0.0007	0
0.0022	0	0.0052	0.0007	0.1
0	-0.0023	0.0067	0	0
0.0007	-0.0015	0.0067	0.0007	0
0	-0.0008	0.0067	0.0022	0.1
-0.0008	0.0007	0.0052	0.0022	-0.1
-0.0008	0.0007	0.0052	0.0015	0.1
-0.0008	0.0015	0.0045	0.0007	0
0.0007	0.0022	0.0045	-0.0008	0.1
0	0.0007	0.0022	-0.0015	-0.1
0	0	0.0007	-0.0023	0.1
0.0007	-0.0008	0.003	-0.003	-0.1
-0.0008	0	0.003	-0.0046	0
-0.003	0.0007	0.003	-0.0046	-0.1
-0.003	0.0007	0.0022	-0.003	0
-0.0015	0	0.0015	-0.0023	-0.3
-0.0015	-0.0008	0.0022	0	0
-0.003	0.0007	0.0007	0.0015	0.1
-0.0015	-0.0008	-0.0008	0	-0.1
0.0007	0.0007	0.0015	-0.0008	0.1
0.0007	-0.0015	0	0.0015	-0.1
0.0007	-0.0015	-0.0008	0.0037	0.1
0.0007	-0.0008	0.0015	0.0015	-0.2
0.0007	-0.0015	0.0015	0.0015	0.1
0.0007	-0.0008	0	0.0007	-0.2
0	-0.0008	-0.0008	0.0007	0.2
0.0007	0.0007	-0.0015	0.0015	-0.2
-0.0008	0	-0.0038	0.0015	0.1
-0.0008	0.0007	-0.003	0.0022	-0.1
0.0007	0.0007	-0.0038	0.0007	0.1
0.0015	-0.0008	-0.0046	0.0007	-0.2
0.0015	0	-0.0038	0.0007	0.1
-0.0008	0.0007	-0.0046	0	0.1
-0.0008	0.0022	-0.0046	0.0007	0
0	0.0015	-0.0046	0.0015	0
-0.0008	0.0007	-0.0046	0.0015	-0.1
-0.0008	0.0007	-0.003	0.0022	0.1
-0.0008	0.0007	-0.0023	0.0015	-0.2
-0.0008	-0.0008	-0.003	0.0007	0.1
-0.0015	0	-0.0038	0.0015	-0.2
-0.0015	-0.0008	-0.003	0.003	0.1
-0.0008	0	-0.0015	0.0045	-0.1
-0.0008	0.0015	-0.003	0.0045	0.2
-0.0015	0.0007	-0.0015	0.003	-0.2
-0.0015	0	-0.0038	0.003	0.1
-0.0023	0.0007	-0.003	0.0045	-0.2
-0.0008	-0.0008	-0.0008	0.0037	0
0	0.0015	0.0015	0.003	0
-0.0008	0.0007	0.0022	0.0015	0.1
0.0007	-0.0008	0.0015	-0.003	0
0.0015	0	0.0022	-0.012	-0.1
0.0015	-0.0015	0.0015	-0.0195	0.1
0.0015	-0.0015	0.0037	-0.0143	-0.1
0.0015	-0.0023	0.003	-0.0053	0.1
0.0007	-0.0023	0.0015	-0.0015	-0.1
-0.0008	-0.0015	0.0022	0.0022	0.1
0	-0.0008	0.003	0.003	0
0.0007	0.0007	0.003	0.0037	0.1
-0.0008	0.0015	0.0022	0.0067	-0.2
-0.003	0.003	0.0015	0.0045	0.1
-0.0015	0.0015	-0.0008	0.0052	-0.3
-0.0023	0.0007	-0.0008	0.0052	0.1
-0.0038	0.003	0.0015	0.003	0
0.0007	0.0015	0.0022	0.0037	0
0.0007	0.0007	0.0015	0.0022	0.1
0.0007	-0.0008	0.0015	0.0015	0
-0.0015	-0.0015	0.0015	0.0007	0
-0.0008	0.0007	0.0007	0.0007	-0.2
0.0015	0	-0.0008	0.0007	0
0.0015	-0.0008	-0.0008	0	-0.2
0.0015	0.0007	0.0015	-0.0008	0.1
0.003	0.0007	-0.0008	-0.0008	-0.1
0.0022	0.0007	-0.0015	0.0007	0
0.0007	0.0015	-0.0015	0	-0.1
0.0007	0.0007	-0.0023	0.0007	0
0.0007	0.0007	-0.0008	0.0015	-0.1
-0.0015	0.0022	-0.0015	0.0015	0.1
-0.0015	0.0007	-0.0023	0.0015	0
0	0.0015	-0.0015	0.0015	0.1
0.0007	0.0007	-0.0015	0	-0.1
0.0022	0.0007	0.0007	-0.0008	0
0.0022	0.0007	0.0015	-0.0008	0.1
0.0015	0.0007	-0.0008	0	0
0.0007	0.0015	0.0015	0	0
0.0022	0.0007	-0.0008	0.0007	0
0.0037	0	-0.0008	0.0015	0.1
0.0015	-0.0008	0	0.0007	0
0.003	-0.0008	0.0007	0.0015	0
0.0022	-0.0008	0.0015	0.0037	0
-0.0008	0.0007	0.0007	0.0007	0.1
0.0007	0.0007	0	0	-0.1
-0.0008	0.0007	-0.003	0	0
-0.0008	0.0015	-0.0015	-0.0015	0.1
-0.0023	0.0007	-0.0023	-0.0008	0.1
-0.0038	0.0007	-0.0023	0	0
-0.003	0.0015	-0.0008	-0.0015	0
-0.003	0.0015	-0.0008	-0.0008	0
-0.0015	0	0.0015	0.0007	0
-0.0015	0.0015	0.0022	0.0007	0
-0.003	0	0.0022	0.0007	0
-0.0015	0	0.0015	-0.0008	0
-0.0008	0	0.0007	-0.0015	-0.1
0.0007	0	0.0015	-0.0015	0
-0.0008	0.0007	0	-0.0015	0
-0.0008	-0.0008	-0.0008	-0.0008	0
-0.0015	0.0007	-0.0008	-0.0015	0
-0.0015	0.0007	-0.0015	-0.0015	0.1
0.0007	0	-0.0015	-0.0015	-0.1
0.0015	0.0007	-0.0008	-0.0008	0.1
0.0007	0.0015	0	-0.0008	-0.2
-0.0008	0.0007	-0.0015	0.0007	0
0.0007	0.0015	-0.0008	0.0022	-0.2
-0.0008	0.003	0.0007	0.0007	0
0	0.0022	0.0007	0	-0.1
0.0007	0.0015	0.0007	-0.0008	0
0	0.0015	-0.0008	-0.0008	0
0.003	0.0015	0	0.0015	0
0.0015	0.0007	-0.003	0.0007	0
0.0022	0	-0.003	-0.0008	-0.1
0.0022	-0.0015	-0.003	-0.0008	0
0.0007	-0.0008	-0.003	-0.0008	0.1
0.0015	0.0007	-0.0046	-0.0008	0
0	0.0007	-0.0068	0	-0.2
0.0015	-0.0008	-0.0068	-0.0008	0
0.0007	-0.0015	-0.0046	0.0007	-0.1
-0.0023	-0.0008	-0.003	0.0015	0
-0.0015	-0.0015	-0.0023	0.0015	-0.1
-0.0008	-0.0008	-0.0008	0.0015	-0.2
-0.0008	0.0007	-0.0023	0.0022	0
-0.0008	-0.0008	0	0.0007	0
-0.0015	0	0.003	0.0015	-0.1
-0.0008	0.0007	0.003	0.0007	0
0.0022	0	0.003	0	-0.1
0	0.0007	0.003	0.0015	0
-0.0023	0.0007	0.0045	0	0
-0.0015	-0.0008	0.0052	0.0007	0
0.0007	-0.0008	0.0052	0.0015	0
0.0015	-0.0008	0.0067	0.0015	0
0.0007	-0.0008	0.0052	0.0015	0.1
-0.0015	-0.0008	0.0052	0.0007	0
-0.003	-0.0008	0.003	0.0007	0
-0.0023	0.0007	0.0015	0.003	0
-0.0015	0.0007	0.0015	0.0015	0.1
-0.003	-0.0015	0.0015	0.0007	0
-0.0015	0	0.0022	0.0015	0.1
-0.0015	0	0.003	0.0007	0
-0.0008	0	0.003	0.0007	0
0.0007	0.0007	0.0015	0.0015	0
-0.0008	-0.0008	0.0015	0.0007	0.1
0	0.0015	0.0007	0	-0.2
0.0007	0	0.0007	-0.0008	0
-0.0008	0.0007	0.0007	-0.0015	-0.1
-0.003	-0.0008	0	-0.0008	0
-0.0008	-0.0008	0.0015	-0.0008	0
0.0015	0.0007	0.0007	-0.0015	0.1
0.0022	-0.0008	0.0015	-0.0023	0
0.0022	0.0015	0.0007	-0.0015	0
0.0015	0.0007	0.0015	-0.0008	0
-0.0008	0.0007	0.0037	-0.0008	-0.2
-0.0015	0.0007	0.003	0	0
-0.0023	0.0015	0.0015	0.0007	-0.1
0.0007	0.0007	0.0007	0.0007	0
0.0007	0	0.0015	0.0007	0.1
-0.0008	-0.0008	0.0007	-0.0008	0
0.0015	0.0007	0.0007	-0.0008	0
0.0007	0.0007	0.0015	0.0007	0.1
-0.0008	0.0007	0.0007	0.0007	0.1
-0.0008	0.0015	0.0007	-0.003	0
0	0.0007	0.0007	-0.003	-0.1
0.0015	-0.0008	0.0007	-0.0015	0
0.0007	-0.0008	0.0007	-0.0008	-0.1
0.0015	0.0007	0.0007	0.0007	0
0.0015	-0.0008	-0.0023	0	0
0	0.0015	-0.0015	0.0015	0
-0.0015	0.0015	-0.0008	0.003	0
-0.003	0.003	-0.0015	0.003	0.1
-0.003	0.0007	0.0007	0.0022	0
-0.0008	0.0015	0.0015	0.0015	0
-0.0008	0.0015	0.0007	0.003	0.1
0.0007	-0.0008	0.0015	0.0022	-0.2
0.0007	0.0015	0.0015	-0.0008	0
-0.0008	0.0015	0.003	0.0007	0
-0.0008	0.0007	0.003	0.0007	0.1
0.0007	-0.0015	0.0007	0.0022	0
0	-0.0015	0	0.0015	0
-0.0008	-0.0008	0.0007	-0.0008	0
0.0015	-0.0015	0.0007	0.0007	0.1
0.003	0	0.003	0	-0.1
-0.0008	0.0007	0.0007	-0.0008	0.1
0	0.0007	0.0015	-0.003	-0.1
-0.0015	0.0015	0.0022	-0.0053	0.1
-0.0015	0.0015	0.0022	-0.0046	0.1
0	0.0007	0.0015	-0.003	0
-0.0008	0.0015	0.0007	0.0007	0.1
-0.0008	0	0.0007	0.0015	0
-0.0008	-0.0008	-0.0008	0.003	0.1
0.0007	0.0015	-0.0015	0.0052	0.1
0.0015	-0.0008	-0.003	0.006	0
-0.0008	0	-0.0023	0.0045	0
0.0015	0.0015	-0.0023	0.0052	0.1
0.0015	0.0007	-0.003	0.006	0
0.0007	0.0022	-0.0023	0.0037	0
0.003	0.0007	-0.0008	-0.0038	0
0.0007	0.0007	-0.0023	-0.0128	0.1
0.0007	0.0007	-0.0015	-0.0091	0
-0.0008	-0.0008	0	-0.0023	0.1
-0.0015	0	-0.0008	-0.0008	0
-0.0008	0.0007	0	-0.0008	0
-0.0008	0.0015	-0.0008	0.0007	0
-0.0015	0.0015	-0.0015	0.0015	-0.1
-0.0015	0.0022	-0.0023	0.0022	0.1
0.0007	0.0037	-0.0038	0.0007	-0.1
0	0.003	-0.0008	0.0015	-0.1
0	0.0015	0.0007	0.0015	0
0.0007	0.0015	0.0022	0.0015	0
0.0015	0.0007	0.0007	0	0
0.0015	0.0007	0.0007	0	0
-0.0008	-0.0008	0.0022	-0.0008	0
0.0007	-0.0008	-0.0008	-0.0008	0.1
0.0015	0.0007	-0.0023	0	0
0.0015	0	-0.003	-0.0008	0
0.0007	0	-0.003	-0.0008	0
-0.0015	-0.0008	-0.003	-0.0008	0.1
0.0007	-0.0008	-0.0015	0.0007	0
0	0.0015	-0.0023	0.0015	0
-0.0015	0.0007	-0.003	0.0015	0.1
-0.003	0.0015	-0.0015	0.0015	0
-0.0023	0.0015	-0.0015	0.0015	0
-0.0015	0	-0.0008	0	0.1
0.0007	-0.0008	-0.0008	0	0
0.0007	-0.0015	-0.0008	-0.0008	0
0	-0.0008	0.0015	-0.0015	0
0.0015	0	0.0007	-0.0008	0
0.0022	0	0.0015	-0.0015	0
0.0022	-0.0008	0.003	-0.0008	-0.1
0.0007	-0.0023	0.0037	0.0007	0
0.0007	-0.0015	0.0022	-0.0008	0.1
0	0	0.0007	0	0
-0.0008	0	0.0007	0.0007	0
-0.0008	-0.0015	0.0007	0.0007	0.1
-0.0008	0	0.0007	0.0015	0
-0.0008	0	0.0007	0.0015	0
-0.0015	0.0015	-0.0008	0.0022	0
-0.0008	0.0015	-0.003	0.0015	0.1
-0.0038	0.0007	-0.0046	0.0022	0.1
-0.0053	0.0015	-0.003	0.0022	0.1
-0.003	-0.0008	-0.0015	0.0022	0
-0.003	-0.0015	-0.0008	0.0007	0.1
-0.003	-0.0023	-0.0008	0.0007	0
-0.0023	-0.0008	0	-0.0008	0.2
-0.0038	0.0007	0.0015	-0.0008	0
-0.0015	0.0015	0.0015	-0.0008	0
-0.0008	-0.0008	0.0015	-0.0008	0
0.0007	0	0.0022	0.0007	0
0.0007	0.0015	0.0007	0.0007	0
0.0015	0.0015	0.0015	0.0007	0
0.0007	0.0007	0.0022	-0.0008	0
-0.0023	0.0022	0.0022	-0.0023	0
-0.0023	0.0037	0.0007	-0.0008	0
0	0.003	0.0015	-0.0015	0
0.0007	0.0022	0.0015	-0.0008	0.1
0.0022	0	0	-0.0008	0
0.0007	0.0007	0.0007	0	0.1
-0.0008	0.0022	-0.0008	0.0015	0
0.0007	0.0007	-0.0008	0.0007	0
0.0007	-0.0008	-0.0008	-0.0008	0.1
-0.0008	-0.0008	0.0015	-0.0008	0.1
0	-0.0008	0.0022	0	0
-0.0008	-0.0008	0.003	0	0
0.0007	-0.0008	0.0015	0.0015	0
0.003	-0.0008	-0.0008	0.003	0
0.0015	-0.0015	-0.0008	0.0007	0
-0.0023	-0.0015	-0.0015	0.0015	0.1
-0.0023	-0.0015	-0.0008	-0.0008	0
-0.0015	-0.0015	-0.0008	-0.0008	0
0.0007	-0.0008	-0.0023	0.0015	0.1
0.0007	-0.0008	-0.0015	0.0015	-0.1
-0.0008	-0.0008	-0.0015	0.0007	0.1
-0.0008	0.0007	0	0.0007	-0.2
0.0007	0	-0.0008	0.0007	0.1
0.0015	-0.0008	-0.0015	0.0007	-0.1
0.0007	0	-0.0015	0	0.1
0.0007	0	-0.0015	0	-0.1
0.0007	-0.0008	0.0007	0.0015	0
0.003	0.0022	0.0015	0.0015	0
0.003	0.0015	0.0022	0.0015	0.1
0.003	0	0.0015	0.0007	0
0.003	0.0007	0.0007	0.0007	0.2
-0.0008	-0.0008	0	0.0015	0.1
-0.0023	0.0007	-0.0008	0.0015	0
-0.0008	0.0007	0	0.0022	0
-0.0015	0.0015	-0.0008	0.0015	0
-0.0008	0.0015	-0.0015	0	0.1
0.0015	0.0007	0	0.0007	-0.1
0.0007	0	-0.0008	0	0
-0.0008	0	0	0	-0.1
0	0.0007	0.0007	0.0007	0.1
0.0007	0.0015	0.0007	0.0007	0
0.0045	0.0007	0.0015	0.0015	0
0.0037	-0.0008	-0.0008	-0.0015	-0.1
0.0015	0.0015	-0.003	-0.0015	0.2
0.0015	0	-0.0038	0.0007	0
-0.0008	0.0007	-0.003	0.003	0
0	0.0007	-0.003	0.0045	0
0.0007	0.0007	-0.0015	0.0045	0
0.0007	0.0007	-0.0023	0.003	0
0.0015	0.0015	-0.0008	0.003	0
0	0.0015	0	0.003	0
-0.0015	0	-0.0015	0.0015	-0.1
-0.0008	-0.0008	-0.0008	-0.0008	0.1
-0.0008	-0.0008	0.0007	0	0
-0.0008	0.0015	0.0007	-0.0015	0.1
-0.0008	0.0015	0.0015	-0.0015	-0.2
0.0007	0.0015	0.0007	-0.0008	0.1
0.0015	0.0015	0	-0.0008	-0.1
0.0007	0.0007	0.0007	0	0.1
0.0015	0.0007	0.0007	0.0015	-0.1
0.0022	0	0.0022	-0.0008	0.1
0.0015	-0.0008	0.0015	0.0007	-0.2
0.003	-0.0008	0.0007	0.0007	0.1
0.0015	0.0007	-0.0008	-0.0008	-0.1
0.0007	-0.0008	-0.0015	-0.0008	0
0.0015	-0.0008	-0.0008	-0.0008	0.1
-0.0015	0.0015	-0.0023	0.0007	-0.1
-0.0015	0.0007	-0.0023	0	0.1
0	0.0007	-0.0015	0.0007	-0.2
-0.0008	0.0007	-0.0015	-0.0008	0
-0.0023	0	-0.0008	0	0
-0.0015	0.0007	-0.0015	0	0.1
-0.0015	0.0007	-0.003	-0.0023	-0.2
-0.0023	0	-0.0008	-0.0023	0.1
-0.0023	0	0	-0.0046	-0.1
-0.0015	0	-0.0008	-0.0046	0
-0.0015	-0.0008	0.0007	-0.0023	-0.1
-0.0015	-0.0008	0.0007	-0.0008	0.1
-0.0008	-0.0023	0.0007	0	-0.1
-0.0008	-0.0008	0.0007	0	0
0	0	0.0007	0.0015	0
-0.0008	0	0.0022	0.003	0.1
-0.0008	0.0015	0.0015	0.0037	0.1
0.0007	0.0007	0.0007	0.0015	-0.1
-0.0015	-0.0008	0.0007	0.0007	0.1
-0.0015	0.0007	0.0015	0.0015	-0.1
-0.0015	-0.0008	0.0007	0.003	0
-0.0015	0.0007	0	0.0037	-0.1
-0.0015	0.0007	0.0007	0.0045	0.1
-0.0008	0	0.0007	0.003	-0.1
-0.0015	-0.0015	0.0007	-0.0046	0.1
-0.0015	0	0.0015	-0.012	-0.2
0.0007	-0.0008	0.0015	-0.0098	0.2
-0.0015	-0.0015	0.0007	-0.0023	-0.2
0.0015	0.0007	0.0015	-0.0008	0.1
0.003	0.0007	0.0022	0.0007	0.1
0	0.0007	0.0015	0.003	0
0	0.0007	0.0007	0.0007	0
-0.0015	0.0015	0.0007	0.0015	-0.1
-0.0015	0.0015	0.0007	0.0015	0
-0.0008	0.0015	0.0007	0.0015	-0.2
-0.0023	0.0007	0.0007	0.0015	0.1
-0.0008	0.0007	0.0022	0.003	-0.2
-0.0015	0	0.0015	0.0037	0.2
-0.0015	0.0007	0.0015	0.0037	0
-0.0023	0.0007	0.0015	0.0045	0.1
-0.0023	0.0007	0.003	0.0015	-0.2
-0.0008	-0.0008	0.0022	0.003	0.1
-0.0008	0.0007	0.0007	0.0015	-0.1
-0.0008	-0.0008	0.0007	0.0015	0.1
0.0015	-0.0015	-0.0008	-0.0008	0
0	0	0.0007	-0.0008	0
-0.003	-0.0008	0.0007	-0.0008	0
-0.0008	0.0007	0.0007	-0.0008	0
0	0.0007	0.0007	-0.0008	0.1
0.0007	0.0007	0	-0.0008	0
-0.0008	0.0022	-0.0008	-0.0008	0.1
-0.0015	0.0015	0.0015	-0.0008	-0.1
0.0015	0.0007	0.0007	-0.0008	0.1
0.0007	0.0022	-0.0015	-0.0015	0
0.0007	0.0022	-0.0008	-0.0008	0
0.0007	0.0022	-0.0015	-0.0008	-0.2
0.0007	0.0015	-0.0015	0.0007	0.1
0.0022	0.0007	-0.0015	0.0007	-0.1
0.0022	0.0007	0	-0.0008	0.1
0.003	0.0015	0.0007	-0.0008	0
0.0007	-0.0008	0.0022	-0.0008	0
-0.0015	-0.0008	0.003	0.0007	0
0.0007	0	0.0015	0.0007	0
0.0015	0	0.003	0.0007	0.1
0.0007	-0.0008	0.0007	-0.0008	-0.1
-0.0008	0.0007	0.0007	-0.0008	0
0.0007	0	0.0022	0.0015	-0.1
-0.0008	0	0.0015	0	0
-0.003	0.0022	0.0007	0.0007	-0.1
-0.0015	0.0007	-0.0008	0.0007	0
-0.0015	-0.0008	-0.0008	0.0022	-0.1
-0.003	0.0007	-0.0008	0.0015	0.2
-0.0008	0.0015	0	0.0015	-0.1
-0.0008	0.0007	-0.0008	0.003	0.1
0.0007	0.0007	-0.0015	0.003	0
-0.0008	0.0007	-0.003	0.0015	0.1
0	0.0007	-0.0015	0.0007	0
0.0015	0.0007	-0.0015	0.0007	-0.2
-0.0008	-0.0008	-0.0015	0.0007	0
0.0015	-0.0008	-0.0015	0.0007	0
0.0015	-0.0015	-0.0015	0.0015	-0.1
-0.0008	-0.0008	-0.0015	0.0007	-0.1
-0.0008	0.0007	-0.0023	0.0007	0
-0.0015	0.0007	-0.0008	-0.0008	0
0.0015	0.0007	0.0015	-0.0008	-0.1
0.0015	0.0007	0.0022	0.0007	0
-0.0008	0.0022	0.0037	0.0007	0
-0.0008	0.0015	0.0037	0.0015	-0.1
-0.0008	0.0015	0.0015	-0.0008	0.1
0	0.0007	0.0007	-0.0015	0
0.0015	0.0007	0.0007	-0.003	0
0.0007	0	0.0015	-0.003	0
0.003	-0.0015	0.0007	-0.003	0
0.0007	-0.0008	-0.0015	0.0015	0
0	-0.0008	-0.0008	0.0022	-0.1
0.003	0.0007	0.0015	0.0007	0
0.0015	-0.0008	0.0007	0.0015	-0.2
0.0007	-0.0008	-0.0008	0.0007	-0.2
-0.0008	0.0015	-0.0008	0	0
-0.0008	0.0007	-0.0008	0.0007	0
0	0.0007	-0.0015	-0.0008	-0.2
0.0007	0	-0.003	-0.0008	0
-0.0008	-0.0008	-0.0015	0.0007	-0.1
0.0007	0.0007	-0.0015	0.0015	0
0.0007	0.0015	-0.0008	0.0007	0
-0.0008	0.0007	-0.0008	0.0007	-0.1
0	0.0007	0	0.0007	-0.1
0.003	0	0.0007	0.0007	0.1
0.003	0.0007	0.0007	0.0015	0
0.003	0.0015	-0.0015	-0.0008	0
0.003	0.0007	-0.0008	-0.0015	-0.2
0.0037	-0.0008	-0.0008	-0.0015	-0.1
0.006	-0.0008	-0.0008	-0.0015	0
0.0022	0	-0.0015	-0.0008	0
0.0015	-0.0008	0	-0.0008	-0.1
0.003	0.0015	-0.0008	0.0015	0
0	0.0007	-0.0023	0.0015	-0.1
-0.0015	0.0015	-0.0015	0	-0.1
-0.0015	0.0015	-0.0008	0.0007	-0.2
-0.0015	0.0015	-0.0015	0.003	0
-0.0015	0.0015	-0.0023	0.003	-0.1
-0.003	0.0015	-0.003	0.003	0
-0.0015	0.0015	-0.0015	0.0015	0
-0.0008	-0.0008	-0.0038	0.0007	-0.2
-0.0046	0.0007	-0.003	0.0007	-0.2
-0.0038	0.0015	-0.0015	0.0007	0
-0.0015	0.0007	-0.0023	-0.0008	0
-0.0046	0	0.0007	-0.0008	0.1
-0.0015	-0.0008	0.003	-0.0008	0
-0.0008	0	0.0045	-0.0015	-0.1
0.0007	-0.0008	0.003	-0.0015	0
0.0007	-0.0008	0.0037	-0.0015	-0.1
0.0007	0	0.003	-0.0015	0
0.0007	-0.0008	0.0007	-0.0015	-0.2
-0.0023	-0.0015	0	-0.0015	0
0	0	-0.0015	-0.0008	-0.1
-0.0015	-0.0008	-0.0023	0.0007	0
-0.0015	-0.0008	-0.003	0.0007	-0.2
-0.0015	-0.0008	-0.0015	0.003	0
-0.0023	0.0007	-0.0008	0.0022	-0.2
0.0015	0.0015	0	0.0022	0
0.0007	0	0.0015	0.0022	-0.1
0	0.0007	0.003	0.0007	-0.2
0.0007	0.0015	0.003	0	-0.1
0.0007	0.0007	0.0045	-0.0008	-0.2
0	-0.0008	0.003	-0.0015	0
0.0007	0.0007	0.003	-0.0015	-0.2
0.0007	0	0.0045	-0.0015	-0.1
0	0.0007	0.0015	0	-0.2
0.0015	0.0007	0.0007	0.0007	0
0.0007	0	0.0015	0.0022	-0.2
0.0007	0	0.0007	0.003	-0.1
0.0007	0.0007	0.003	0.0022	-0.2
-0.0008	0.0007	0.0037	0.003	0
-0.0023	0.0007	-0.0008	0.0007	-0.2
-0.0015	-0.0008	-0.0015	0.0007	0
0.0007	0.0007	-0.0008	-0.0008	-0.3
-0.0015	0.0015	-0.0008	-0.0008	-0.1
-0.0023	0.0007	0.0007	-0.0008	-0.1
-0.0015	0.0007	-0.0008	-0.0008	-0.2
-0.0008	0.0015	0.0015	-0.0008	0
0.0007	0.0015	0.0015	-0.0008	-0.2
0.0022	0.0007	-0.0015	-0.0008	0
0.0015	0.0007	-0.0015	-0.0008	-0.2
0.0007	0.0007	-0.0008	-0.0008	0
0.0007	0.0015	-0.0008	-0.0008	-0.2
0	0.0015	-0.0015	0.0007	0
-0.0015	0.0007	-0.0015	0.0007	-0.3
-0.0008	0.0007	-0.0015	0.0015	0
-0.0008	0.0007	0.0007	0.0015	-0.3
-0.003	0.0015	0	0.0015	0
-0.003	0.0007	-0.0015	0.0022	-0.3
-0.0015	0.0007	-0.0008	0.0022	0
0	-0.0008	0	0.003	0
0.0007	-0.0008	-0.0008	0.0015	-0.2
0.0015	0	-0.0015	0.0015	-0.2
0.0015	0.0007	-0.0008	0.0015	-0.3
0.0015	-0.0008	-0.0008	0.0015	-0.2
0	-0.0015	0.0007	0.003	-0.2
-0.0008	-0.0015	0.0007	0.0015	-0.1
-0.0008	-0.0015	0.003	0.0007	-0.2
-0.0015	-0.0015	0.003	0.0007	0
-0.0015	-0.0008	0.0015	-0.0008	-0.2
0	0.0007	-0.0008	0	-0.1
0.0007	0.0015	0.0007	-0.003	-0.2
-0.0023	0.0015	0.0015	-0.003	-0.1
-0.0015	0.0007	0.0007	-0.0053	-0.2
-0.003	0.0015	0.0007	-0.0068	-0.1
-0.0038	0.0015	0.0015	-0.0038	0
-0.0015	0.0015	0.0015	-0.0015	-0.2
-0.0008	0.003	0.0007	0.0007	-0.1
0.003	0.0015	0.0015	0.0037	-0.2
0.003	-0.0008	0.0022	0.003	-0.2
0.0015	-0.0015	0.003	0.0015	-0.1
0.0022	-0.0015	0.0022	0.0022	-0.1
0.0007	-0.0023	0.003	0.0015	0
0.0015	-0.0008	0.0022	0.003	-0.1
0.0015	-0.0008	0.0015	0.0037	-0.2
0.0007	-0.0015	0.0007	0.0022	-0.1
-0.0008	-0.0008	-0.0008	0.0052	-0.1
-0.0023	0	-0.0008	0.0045	-0.1
-0.0008	0	-0.0015	0.003	-0.2
-0.0008	0.0007	-0.003	0.003	0
-0.0008	0.0007	-0.003	0.0022	-0.2
0	0.0007	-0.0015	-0.0015	-0.1
0.0007	0	0.0015	-0.0105	0
-0.0008	-0.0015	0.0007	-0.0165	-0.1
-0.003	0.0007	0	-0.012	-0.1
-0.003	0.0015	0	-0.0023	-0.2
0.0007	0.0007	0	0.0015	-0.2
0	0.0015	0.0022	0.0045	-0.1
-0.0008	0.0007	0.0007	0.0052	-0.2
0	0.0007	0.0022	0.006	0
0.0015	0.0015	0.0015	0.0052	-0.2
0.0022	0.0015	0.0015	0.0007	0
0.0015	0.0007	-0.0008	0.0022	-0.2
0.0007	0.0007	-0.0023	0.0015	0
0.0007	-0.0008	0.0007	0.0007	-0.1
0	0	0	0	0
0	0.0015	0	0	-0.2
-0.0008	0.0015	-0.0015	0.0007	0
-0.0015	0.0015	-0.0015	0.0007	-0.1
0.0015	0.0015	-0.0008	0.0015	-0.2
-0.0008	-0.0008	-0.0015	0.0007	0
0.0007	-0.0008	-0.0015	0.0015	-0.2
0.0007	0.0007	0.0007	0.0007	-0.2
0.0007	-0.0008	0.0007	0	-0.1
0.0015	0	-0.0008	-0.0008	0
-0.0008	-0.0008	0	-0.0008	-0.3
0.0007	-0.0008	0.0007	-0.0008	0
0.0007	-0.0008	0.0007	-0.0008	-0.2
0.003	-0.0008	-0.0008	0.0007	0
0	0.0007	-0.0015	0.0007	-0.2
0	0.0007	0	0.0007	-0.1
0.0022	0.0015	-0.0008	0.0007	-0.2
0.0007	0.0015	-0.0015	0.0007	0
-0.0008	0.0015	-0.0015	0.0015	-0.1
-0.0038	0.0007	-0.003	0.0007	-0.2
-0.003	-0.0008	-0.0015	0.0007	-0.2
-0.0008	0.0007	0.0007	0.0015	-0.1
-0.0008	0.0007	0.0007	0	0
-0.0008	0.0007	-0.0015	0	0
-0.0008	-0.0008	-0.0023	0.0007	0
0.0022	-0.0008	-0.003	0.0015	-0.2
0.0015	0.0015	-0.003	0.0007	0
0.0022	0.0015	-0.0015	-0.0008	-0.2
0.003	0.0015	-0.0015	-0.0008	0
0.0015	0	-0.0008	-0.0015	-0.2
0.003	-0.0008	-0.003	-0.0008	-0.2
0	0.0007	-0.0038	0.0007	-0.3
0	-0.0015	-0.0023	0	-0.1
-0.0008	0.0007	-0.0038	0	0
-0.0015	0.0007	-0.0015	-0.0008	0
-0.0015	0.0007	-0.0023	0.0007	-0.2
-0.003	0	-0.0015	0.0007	0
-0.0015	-0.0008	0	0.0015	-0.1
-0.0008	0.0007	0.0007	0.0015	-0.2
0	0.0015	0.003	0.0022	0
0.0007	0.0015	0.003	0.003	-0.2
0.0007	0.0007	0.003	0.003	-0.1
0.0015	0	0.0052	0.0015	0
0.0022	0.0007	0.003	0	-0.1
0.003	0.0007	0.003	-0.0008	-0.1
-0.0008	-0.0008	0.0022	-0.0008	0
0.0007	-0.0008	0.0007	-0.0008	-0.1
0	-0.0015	0.0007	-0.0023	0
0	-0.0015	-0.0008	-0.0015	-0.1
0.0015	-0.0008	0	-0.0015	-0.1
-0.0008	0.0007	0	-0.0015	-0.1
0	0.0007	0.0007	-0.0008	0
-0.0015	0.0007	-0.0008	0.0007	-0.1
-0.0023	-0.0008	-0.0008	0.0022	-0.1
-0.0015	-0.0008	-0.0008	0.0015	-0.1
-0.0023	-0.0008	-0.0008	0.0007	0
-0.0015	-0.003	-0.0008	0.0007	-0.2
-0.0015	-0.0008	0.0015	0	-0.1
-0.0015	0	0.0007	0.0007	0
0.0007	0	0.0007	0.0007	0
0.0007	0.0022	0.003	-0.0008	-0.1
0.0022	0.0007	0.0022	-0.0015	-0.1
0.0007	0	0.0007	-0.0015	0
-0.0008	-0.0008	0.0015	0.0007	-0.1
0.0007	0.0007	0.0015	0.0015	0
-0.0015	0.0015	0.0007	0.0007	-0.1
-0.0008	0.0015	0.0015	-0.0008	-0.1
0.0007	0.0015	0.0022	0.0007	-0.1
-0.0008	0.0015	0.0007	0.0007	-0.1
0	0.0015	0.0015	0	-0.2
0	0.0015	0.0007	-0.0008	-0.2
-0.0008	0.0015	0.0015	-0.0008	0
-0.0008	-0.0008	0.0045	0	-0.1
0.0007	0	0.0015	-0.0008	-0.1
0.0007	-0.0008	0.0045	-0.0008	0
0.0022	-0.0008	0.0022	-0.0008	0
0.003	0	0.0022	-0.0015	-0.1
0.0007	-0.0015	0.0022	-0.0008	0
0.0015	-0.0008	0	0.0007	0
0.0022	-0.0008	-0.0008	0.0015	0
0.0007	0	-0.0015	0.0007	-0.2
-0.0008	-0.0008	-0.003	0	-0.2
-0.0015	-0.0008	-0.003	-0.0008	0
-0.0008	0	-0.0023	0	-0.1
-0.0008	0.0007	-0.0015	0.0007	-0.2
-0.0008	0.0015	0	0.0007	-0.1
-0.0015	0.0015	0	0.0015	-0.1
-0.0023	0.0015	0.0007	0.0015	0
-0.0023	0.0015	0.0007	0.0015	-0.1
-0.003	0.003	0.0007	0.0007	-0.2
-0.003	0.0007	0.0015	0.0022	0
-0.003	0.0007	0.0022	0.0022	-0.1
-0.0008	-0.0008	0.003	0.0007	0
0.0015	-0.0008	0.0007	0.0022	-0.1
0.0015	-0.0008	-0.0008	0.0022	-0.2
0.0007	0	0.0007	0.0007	0
-0.0008	0.0015	-0.0008	0.0007	-0.1
-0.0015	0.0007	-0.003	-0.0008	0
-0.003	0.0007	-0.003	-0.0008	-0.1
-0.0023	0.0007	-0.0023	0	-0.2
-0.0015	0.0007	-0.0015	0.0007	-0.1
-0.0008	-0.0008	-0.003	0.0007	-0.1
-0.0008	0	-0.0046	-0.0008	0
-0.003	0.0015	-0.003	-0.0008	-0.1
-0.0015	0.0015	-0.0046	-0.0015	0
-0.0008	0	-0.0046	-0.0015	-0.1
-0.0008	-0.0008	-0.0023	0.0007	0
0.003	-0.0008	-0.0023	0.0007	0
0.003	0	-0.0008	0.0007	0
-0.0008	0	0.0007	0.0007	0
0.0015	-0.0008	0	0	-0.1
0.0015	0.0007	-0.0015	-0.0008	0
0	0.0015	-0.0008	0.0007	0
0	0.0007	0	0.0022	0
-0.0015	0.0007	0.0007	0.0007	0
0.0007	-0.0008	0.0015	-0.0015	0
0	0	0.0015	-0.0008	0
-0.0008	-0.0008	0.0007	-0.0008	0
0.0007	0.0007	0.0007	-0.0015	-0.2
-0.0015	0.0007	0	0	0.1
-0.0023	0	-0.0008	0.0007	-0.2
-0.0008	-0.0008	0	0.0007	0.1
0.0015	0.0007	0.0007	0.0022	-0.2
0.0007	-0.0008	0	0.0022	0
0.0007	-0.0008	0.0015	0.0007	-0.2
0.0022	-0.0008	0.003	0.0022	0.2
0.0007	0	0.003	0.0015	0
0.0015	0.0007	0.003	-0.0008	0
0.0015	0.0007	0.0015	-0.0008	-0.2
0.0015	0.0007	0.0015	0.0007	0.1
0.0015	0	0	-0.0008	-0.1
0.0007	-0.0008	-0.0015	-0.0046	0.1
-0.0008	-0.0008	0.0007	-0.0053	-0.1
-0.0023	0.0007	-0.0008	-0.0038	0.1
-0.0015	0.0015	-0.0008	-0.0008	0.1
-0.003	0.0015	0.0007	0.0015	-0.1
-0.003	0.0007	0.0007	0.0007	0.1
-0.0015	0.0007	0.0022	0.0022	-0.2
0.0007	0.0007	0.0022	0.0022	0.1
0.0015	0.0007	0.0007	0.0022	-0.1
0.0007	0.0007	0	0.0007	0.1
0.0015	0.0007	0.0007	0.0007	-0.1
0.0007	-0.0008	-0.0015	0.0015	0.1
-0.0008	-0.0008	0	0.0007	-0.1
0.0007	-0.0023	0.0007	0.0007	0.1
0.003	-0.0015	0.0015	0.0007	-0.1
0.0015	0	-0.0008	0.0007	0.1
0.0015	0.0007	0	0.0007	0
0.0015	0.0007	0.0007	-0.0008	0
-0.0008	0	-0.0008	-0.0023	0.1
-0.0008	0.0015	-0.0008	-0.0015	-0.1
0	0.0007	-0.0008	-0.0008	0.1
-0.0015	0.0007	-0.0015	0.0015	-0.1
-0.0008	0.0015	-0.0015	0.0022	0
0.0007	0.0007	-0.0008	0.003	-0.1
0.0007	0.0015	-0.0008	0.0045	0.1
0.0007	0	-0.0008	0.0052	-0.1
-0.0023	0.0007	0.0007	0.0045	0
-0.0008	0.0007	0.0007	0.003	-0.2
0.0022	0	0.0015	0.0007	0.1
0.0022	0.0007	0.0022	-0.0008	-0.2
0.003	-0.0015	0.0015	-0.0015	0.1
0.0007	-0.0015	0.0007	0	0
-0.0008	-0.0008	-0.0008	0	0
-0.0008	-0.0008	0	0.0007	0
-0.0015	0.0015	0	0.0007	0
-0.0015	0.0007	-0.003	0.0007	0.1
0	0.0007	-0.0015	0.0015	-0.2
0	0.0022	-0.0015	0.0015	0
-0.0015	0.0037	-0.0008	0.0015	-0.2
-0.0023	0.003	-0.003	0.0007	0.1
-0.0015	0.0015	-0.003	-0.0008	-0.1
-0.0015	0.0015	-0.003	0	0.1
-0.003	0.0007	-0.003	-0.0008	-0.2
-0.0023	0.0022	-0.0015	0.0007	0.1
0.0007	0.0015	-0.0008	-0.0008	0
0.003	-0.0015	0.0007	-0.0008	0.1
0.0015	-0.0008	0.0007	0.0007	-0.1
0	-0.0008	0.0015	0	0.1
-0.0008	-0.0015	0.0015	-0.0008	0.1
-0.0008	-0.0015	0.0007	-0.0008	0
-0.0008	-0.0008	0	0	0
-0.0008	-0.0008	0	0	-0.1
-0.0008	-0.0008	0	-0.003	-0.1
0	0	0.0015	-0.003	-0.1
-0.0008	0.0015	0.0007	-0.0023	0
-0.0008	0.0007	-0.0008	0.0007	0
0.0015	-0.0008	0	0.0007	0.1
0.0015	0.0007	-0.0008	0.0007	0
0.0022	-0.0015	-0.0015	0.003	0.1
0.003	0	-0.0008	0.003	-0.1
0.0037	0	-0.0023	0.003	0
0.003	0.0007	0.0007	0.003	-0.1
-0.0008	0.0007	-0.0008	0.0007	0.1
-0.0008	0	-0.0015	-0.0008	0
0	0.0007	-0.0046	0	0
-0.0008	0	-0.0053	-0.0008	0
-0.0015	0.0007	-0.0023	-0.0008	0
0	0.0007	-0.003	-0.0008	0.1
0	-0.0008	-0.0023	0	0
0.0007	0.0007	-0.0038	0.0007	0
-0.0008	-0.0008	-0.0038	-0.0008	0
0	0	-0.003	-0.0008	0
0.0015	0.0007	-0.0015	-0.0008	0
-0.0015	-0.0008	-0.0008	0	0.1
-0.0015	0.0015	-0.0008	0	-0.1
0	-0.0008	-0.0008	0.0007	0.1
-0.0015	-0.0008	0.0007	0.0007	0
0	-0.0015	0.0015	-0.0015	0.1
0.003	-0.0015	0.0015	-0.0015	0
0.003	-0.0015	0.0007	-0.0023	0
0.003	-0.0015	0.0007	-0.0008	0
0.0007	0.0007	0.0015	-0.0008	-0.1
0.0022	0.0015	-0.0008	0.0007	0
0.0015	0.0015	0.0007	0.0015	0.1
0	0.0007	0.0007	0.0007	-0.2
0.003	0.0015	0.0007	0.0015	0
0.0015	0.0015	0.0007	0.0015	-0.2
-0.0015	0.0022	-0.0008	0.0007	0.1
-0.0008	0.003	0	0	-0.1
-0.0015	0.0015	-0.0008	0.0022	0
0.0007	0.0007	-0.0008	0.0015	-0.1
0.0015	0.0007	0.0007	0.0007	0
0.0015	-0.0008	0.003	0.0015	0
0.0015	0.0015	0.0037	0.0007	0.1
0.003	0.0022	0.0037	-0.0008	-0.1
0.003	0.0007	0.003	0	0
0.003	0.0007	0.0007	0.0007	-0.1
0.0015	0	-0.0008	0	0.1
0.0007	0	-0.0015	-0.0008	0
0.0015	0.0007	-0.0015	0	0
-0.0008	-0.0015	-0.0015	-0.0008	0.1
-0.0015	-0.0015	-0.003	-0.0008	-0.1
-0.0015	-0.0015	-0.003	-0.0008	0.1
-0.0023	-0.0008	-0.003	0.0007	-0.2
-0.0015	0.0007	-0.0008	0.0015	0.1
-0.003	-0.0008	0.003	-0.0008	-0.1
-0.0015	0.0015	0	0	0.1
0.0007	0.0022	0.0045	0.0007	-0.2
-0.0008	0.0015	0.0045	0	0.1
-0.0008	0	0.0037	0	-0.2
-0.0008	-0.0008	0.0052	0.0007	0
-0.0008	-0.0015	0.0022	0	0
0.0015	-0.003	0.0045	0.0007	0
0.0015	-0.0008	0.0045	0.0015	-0.1
-0.0008	0.0007	0.0045	0.0007	0
-0.0008	0	0.0045	-0.0008	0.2
-0.0015	0.0007	0.003	0.0007	-0.1
-0.003	0.0007	0.003	-0.0008	0
-0.003	0.0015	0.003	0	-0.1
-0.0015	0.0007	0.003	-0.0008	0
0.0007	0.0007	0.0015	0.0007	0
-0.0015	0.0007	0.003	0.0007	0
-0.0015	0	0.0022	-0.0008	-0.1
-0.0008	-0.0008	0.003	0.0007	0.1
0.0015	-0.0008	0.0037	0.0007	-0.1
0.0007	-0.0008	0.0037	0.0007	0
0.0007	0	0.0022	0.0015	-0.2
0.0022	0.0007	0.0007	0.003	0
-0.0008	0.0007	0.003	0.0007	-0.1
0.0015	0.0015	0.003	0.0007	0.1
0.0007	0.0007	0.0015	0.0015	0
-0.0008	-0.0008	0.0007	0.0007	0
-0.0023	0.0007	0.0007	0.0007	0.1
-0.0038	0	-0.0008	0.0007	-0.1
-0.0038	0.0007	-0.0008	-0.0008	0
-0.003	0	-0.0008	0.0015	-0.1
-0.003	-0.0008	0.0007	0.0007	0.1
-0.0046	0.0015	-0.0008	0	-0.1
-0.003	0.0007	-0.0008	0.0015	0
-0.0015	0.0007	0.0015	0.0015	-0.1
0.0007	0.0007	0.0015	0.0015	0
0.0015	-0.0008	0.0007	0.0022	-0.1
0.0015	-0.0008	0.0007	0.0015	0.1
0.0015	-0.0008	0.0007	0.0007	0
-0.0008	-0.0015	0	-0.0015	0
0.0007	-0.0015	0.0007	-0.0023	0
0.0007	-0.0008	0	-0.0015	-0.2
0.0007	0.0007	-0.0008	-0.0038	0
0.0015	-0.0008	-0.0015	-0.0023	0
0	-0.0015	-0.0023	-0.0008	-0.1
-0.0015	0.0007	-0.0015	-0.0008	0
-0.0038	0.0015	-0.0015	-0.0008	0
-0.003	0.0015	-0.0015	-0.0008	0
-0.0008	0.0015	-0.0008	0.0007	-0.1
-0.0008	0.003	-0.003	0	0.1
-0.0008	0.0015	-0.0046	0	0
-0.0008	0.0022	-0.0023	0	0
0.0022	0.0022	-0.003	0.0007	0
0.0022	0.0007	-0.0008	-0.0008	0
0.0007	0.0015	0.0007	0	-0.2
0.0022	0.0007	0	-0.0015	0
0.0022	-0.0008	-0.0008	-0.0015	0
0.0022	-0.0008	-0.0015	-0.0008	0
0.003	0	0.0007	0.0007	0
0.0007	-0.0008	0	0.0037	-0.1
0	-0.0008	-0.0008	0.0037	0
0	0	0	0.0022	-0.1
0	0	0	0.0037	0
-0.0008	0.0015	-0.0008	0.0022	0
0	0.0015	0.0007	0.0015	-0.1
0	0.0022	0.0007	0.0015	-0.1
-0.0015	0.0007	-0.0015	0	0
0.0007	0.0007	-0.0008	0.0007	-0.2
0.0015	0.0015	-0.0015	0.0007	0
-0.0008	0.0015	-0.0015	0.0007	-0.1
0.0015	0.0007	0	0.0007	0
0	0	0.0015	0.0007	0
0.0007	-0.0015	0.0007	0.0007	0
0	-0.0008	-0.0008	-0.0008	-0.1
0.0007	0	0.0015	-0.0008	-0.1
0.003	0	-0.0008	-0.0008	0.1
0	0	-0.0008	-0.0008	0
-0.0015	-0.0008	0	0	0
-0.003	0.0007	-0.0008	0.0015	0
-0.003	0.0007	-0.0015	0.0007	0
-0.0008	0.0015	0	0.0007	-0.1
-0.003	-0.0008	-0.0008	0.0007	0
-0.003	-0.0015	-0.0008	0.0007	-0.1
-0.003	0.0015	0.0007	0.0007	0
0	0.0007	-0.0008	-0.0008	0
0.0007	0	-0.0008	0.0015	0
-0.0008	0	-0.0008	0	-0.2
0.0007	0	-0.0015	0.0007	0
-0.0008	0.0007	0	0.0015	0.1
0.0015	0	0	0.0015	-0.1
0.0015	0	-0.0008	0.0007	-0.1
0.0007	-0.0008	0	-0.0008	-0.1
0.0007	0.0007	0	-0.0008	-0.1
0.0007	0.0007	-0.0008	0	0
-0.0015	0	0	-0.0008	0
0	0	-0.0015	-0.0008	0
0.0022	-0.0008	-0.0015	-0.0015	0
0.0007	-0.0008	-0.0008	-0.0008	0
0.0015	-0.0015	-0.0015	0.0007	0
0.0022	0	-0.0008	0.0007	0
0.0015	0.0007	0.0007	0.0015	0
0	0	0.0015	0.0015	-0.1
0.0007	-0.0015	0.0022	0.0007	0
0	0	0.0015	0.0015	-0.1
-0.0015	0.0007	0.0022	0.0015	-0.1
0.0015	0.0015	0.003	0.0015	0.1
0.0007	0.0015	0.003	0.0007	-0.1
0.0022	0.0015	0.0015	0	0
0.0007	0	0.0015	0.0007	0
0.0007	0	0.003	0.0007	0
0.0007	-0.0008	0.003	0.0007	0
-0.0008	0.0007	0.0022	0.0007	-0.1
-0.0015	0.0015	0.003	0	0
0.0007	0.0015	0.0015	0.0007	0.1
0	0.0015	0.0015	0.0022	0
-0.0008	0.0015	0.0022	0.0015	0.1
-0.0015	0.0022	0.0022	0.0007	-0.1
-0.0015	0.0007	0.003	0.0015	0.1
0	-0.0008	0.0045	0.0007	0
0.0007	-0.0008	0.0045	0	0
0.0007	0.0015	0.0037	0.0007	0.1
0	0.0007	0.0015	0.0007	-0.1
0.0007	0	0.0007	0.0007	-0.1
0.0015	0.0007	0	-0.0008	0
0.0007	0.0007	-0.0023	-0.0008	0
-0.0008	0	-0.0038	-0.0008	0
-0.0015	0.0007	-0.0046	-0.0015	-0.1
-0.0015	0.0007	-0.0053	0	0.1
0.0007	0.0007	-0.0038	0.0007	-0.1
0.0007	0	-0.0038	-0.0015	0.1
0.0007	0.0007	-0.0046	0	-0.2
-0.0015	0.0015	-0.0046	0.0007	-0.1
-0.0023	0.0007	-0.0046	0.0007	-0.1
-0.0008	0.0007	-0.0015	0.0015	-0.1
-0.0008	0.0007	-0.0008	0.0007	-0.2
-0.0015	0.0015	0.0007	0.0015	0
-0.0008	0.0007	-0.0008	0.0007	-0.1
-0.0015	0	0.0015	0.0007	0
-0.0008	0.0015	0.003	-0.0008	0
0.0022	0.0015	0.003	-0.0015	-0.2
0.0015	0.0015	0.003	0	0.1
0.0022	0	0.0015	0.0007	-0.1
0.003	0	0.0022	0.0007	0.1
0.0015	-0.0008	0.0015	0	-0.1
0	-0.0008	0.0015	0.0015	0.1
-0.0023	-0.0008	0.0015	0.0015	-0.1
-0.0015	0.0007	0.0015	0	0.2
-0.0023	0.0015	0.0015	0.0015	-0.1
-0.0015	0.0007	0.0007	0.0022	0
-0.003	-0.0008	-0.0008	0.0007	0
-0.0038	-0.0008	-0.0008	-0.0015	0.1
-0.003	-0.0008	0	-0.0008	0
0	0	0.0022	0	0
0.0015	0	0.0015	-0.0008	0
0.0007	-0.0015	0	-0.0008	-0.2
-0.0008	-0.0015	-0.0008	0.0007	0
-0.0008	-0.0008	0.0007	0	-0.2
0	0.0007	0.0015	0.0007	0.1
-0.0008	0	-0.0008	0.0007	-0.1
-0.0015	-0.0008	-0.0008	-0.0008	0.1
-0.003	-0.0008	-0.0023	0.0007	-0.2
-0.0015	0.0007	-0.0023	-0.0008	0
-0.0008	0.003	-0.0015	0	-0.2
-0.0008	0.0022	-0.0015	0.0007	0.2
-0.0015	0.0022	0	-0.0008	-0.1
-0.003	0.0015	0	0.0007	0
-0.003	0.0015	-0.0015	0.0015	0
-0.0046	0	-0.0008	0.0007	-0.1
-0.0015	0	0.0007	0.0007	-0.1
-0.0008	0.0007	0.0007	0	0
-0.0023	0.0007	-0.0015	0	0
0.0007	0.0007	-0.0015	-0.0008	-0.2
-0.0008	0.0015	-0.0008	0.0015	0
-0.0008	0.0007	0	0.0015	-0.2
-0.0008	-0.0008	0.0007	0	0
0	0.0015	0.0007	0.0007	-0.1
0.0007	-0.0008	-0.0008	-0.0008	0
0	0	-0.0023	0	-0.2
-0.0008	0.0007	-0.0038	-0.0008	0.1
0.0015	-0.0008	-0.0046	0.0007	-0.1
0.0007	0.0007	-0.0038	0.0007	0.1
-0.0015	0.0015	-0.003	0.0007	-0.2
-0.0008	0.0007	-0.0015	0.0015	0
-0.0008	0.0007	-0.0008	0.0015	0
-0.0015	0.0007	-0.0008	0	-0.1
0.0007	0.0007	0	0.0015	0
0.0045	0.0007	0.0007	0.0007	-0.2
0.0037	0.0007	0.0007	-0.0008	0.1
0.003	-0.0008	0.0022	0.0007	0
0.0022	-0.0008	0.003	-0.0008	0.1
0.0045	0.0007	0.0015	-0.0008	-0.2
0.003	-0.0008	0.0037	-0.0008	0
0	-0.0008	0.0022	0.0007	-0.1
0	-0.0008	0.0007	-0.0008	0.1
0.0015	0.0007	0.0015	-0.0015	0
-0.0008	0	0.0007	-0.0015	0
-0.0008	0	0.0015	-0.0015	0
0.0007	0.0007	0	0.0007	0.1
-0.0023	0	-0.0008	0	-0.1
-0.0015	0.0015	-0.0015	-0.0008	-0.1
-0.0023	0.0015	-0.003	0.0007	0
-0.0015	0.0015	-0.0015	0.0007	0
0.0007	0.0007	-0.0015	0.0022	-0.1
0.0015	0.0015	-0.0008	0.0015	0
0.0015	0.0022	0.0007	-0.0008	0.1
-0.0008	0.0015	0.0007	-0.0008	-0.1
0.0015	0.0015	-0.0015	0.0007	0
0.003	-0.0008	-0.003	0	-0.1
0.003	-0.0015	-0.0046	-0.0008	-0.1
0.0045	-0.0015	-0.006	0.0015	-0.1
0.003	-0.0015	-0.0046	0.0015	-0.1
0.0015	0	-0.0053	-0.0008	-0.1
0	0	-0.0053	-0.0008	0
0.0007	0.0015	-0.006	-0.0008	-0.1
0.0015	0.0022	-0.0068	0.0007	-0.2
0.0007	0.0015	-0.0068	0.0007	-0.1
-0.0008	0.0007	-0.0053	0.0007	0
-0.0008	0.0015	-0.0023	0.0007	0
0.0015	0.0015	-0.003	0.0007	0.1
0.0015	0.0015	-0.0023	0.0015	-0.3
0.0007	0.0015	0.0015	0.0007	0.1
0.0015	0.0015	0.003	0.0007	-0.1
0.0007	-0.0008	0.0022	0	0.2
0	-0.0008	0.0037	0.0007	-0.2
0.0015	0.0007	0.0037	0	0.1
0.0015	0	0.0045	-0.0008	-0.2
0	-0.0015	0.0045	0.0015	-0.1
0.0015	-0.003	0.0037	0.0015	-0.2
0.0007	-0.0015	0.003	0.0007	0.1
-0.0015	-0.0015	0.0052	0.0015	-0.2
-0.003	-0.0008	0.0067	0.0007	-0.1
-0.0015	0	0.0082	0.0015	-0.2
-0.0015	-0.0015	0.0067	0.0007	-0.1
-0.0015	-0.0008	0.0067	-0.0015	-0.1
0	0.0007	0.0067	0	-0.2
-0.0008	-0.0008	0.006	0.0007	0
0.0007	-0.0015	0.0082	0.0007	-0.1
0.0007	-0.0015	0.006	0.0007	0
0	-0.0008	0.0052	0	0
-0.0015	0	0.0082	0.0007	0
0.0007	0	0.0075	-0.0008	-0.2
0.0007	0	0.0075	-0.0008	0
-0.0008	0.0015	0.0067	0.0007	-0.1
0.0007	0.0015	0.0045	-0.0008	0.1
0.0007	0.0015	0.003	-0.0008	-0.2
-0.0008	0.0007	0.003	0	0
-0.0023	0.003	0.0022	0	-0.1
-0.003	0.0022	0.0015	0.0007	-0.2
-0.0023	0.0007	0.0015	0.0015	-0.1
-0.0023	0.0015	0.0007	0.0022	-0.2
-0.0008	0.0015	0	0.0015	0
-0.0015	0.0022	-0.0008	0.0007	-0.2
0	0.0015	0	0.0015	0.1
0	0.0007	0.0007	0.0015	-0.2
0	0.0007	0.0022	0	0
0	0.0007	0.003	0.0007	-0.3
-0.0008	-0.0008	0.0007	0.0007	0.1
-0.0008	-0.0008	0.0007	0.0007	-0.2
-0.0008	0	-0.0008	0.0007	-0.1
0.0007	0.0007	-0.0008	0	-0.2
0	-0.0015	-0.0015	0.0007	0
0.0007	0	-0.0046	0.0007	-0.2
0.0007	-0.0008	-0.0038	0	0
0	0	-0.0046	-0.0008	-0.1
0	-0.0008	-0.0053	0.0015	-0.2
-0.0023	0.0007	-0.0053	0.0007	0
-0.0008	0.0007	-0.0046	0.0007	0.1
-0.0008	-0.0008	-0.0038	0.0015	0
-0.0008	0.0007	-0.0046	0.0015	0
0.0007	0.0007	-0.0053	0	-0.2
0.0007	-0.0008	-0.006	-0.0008	-0.3
0.0015	0	-0.0053	-0.0008	0.1
0	-0.0015	-0.0046	-0.0008	0
0.0015	-0.0015	-0.0038	-0.0015	0
0.003	-0.0008	-0.0015	-0.0008	0
0.0015	0.0007	-0.0015	0.0007	0
-0.0008	-0.0008	-0.0046	0	-0.1
-0.0008	-0.0008	-0.006	-0.0008	0
-0.0008	-0.0008	-0.0053	-0.0008	-0.1
-0.0008	-0.0008	-0.0046	0.0007	-0.1
-0.0008	0.0007	-0.0038	0.0015	0
-0.0008	0	-0.0023	0.0007	0
0	0.0007	-0.0008	0.0007	-0.2
-0.0015	0.0007	-0.003	0.0007	-0.1
0	0	-0.003	0.0007	0
0	0.0007	-0.003	-0.0008	0
0.0007	-0.0008	-0.0023	0.0007	0
0	0.0007	-0.0015	0	-0.1
-0.0008	-0.0008	-0.003	0.0007	0
0.0007	0.0007	-0.0015	-0.0008	-0.1
-0.0008	-0.0008	-0.0015	-0.0008	0
0.0007	0	-0.0008	-0.0008	-0.1
0	0.0007	-0.0015	0	0
0	-0.0015	-0.0038	-0.0008	-0.2
-0.0008	-0.0008	-0.0046	0	0
-0.0008	-0.0008	-0.0053	0.0007	-0.2
0.0015	0	-0.0083	0.0007	-0.2
0.0015	0.0015	-0.0083	0	-0.2
0.0007	0.0022	-0.0091	0.0007	-0.1
0	0.0015	-0.0068	0	-0.1
0.003	0.0007	-0.0053	0	0.1
0.0022	0.0007	-0.0046	0.0015	-0.2
0.0007	0.0022	-0.0038	0.0007	0
0.0015	0.0015	-0.0053	0.0007	-0.2
-0.0008	0.0015	-0.0046	0.0015	0
0.0022	0.003	-0.0038	0.0007	0
0.0015	0.0015	0.0015	0.0007	0
-0.0008	0.0022	0.003	0	0
0	0.003	0.0007	0.0007	-0.1
0.0007	0.0015	0.003	0.0007	0
0.0007	0.0007	0.0037	0.0015	0
-0.0008	0	0.0037	0.0015	0
0	0.0015	0.0045	0.0007	0.1
0.0007	0.0015	0.0045	0.0015	0
-0.0015	0.0015	0.006	0.0015	-0.2
-0.0023	0.0022	0.0052	0.0015	0
0	0	0.0052	0	-0.2
-0.0015	-0.0008	0.0075	0.0007	0
-0.0008	0	0.009	0.0015	-0.1
0.0007	-0.0023	0.0082	-0.0008	0.1
0.0015	-0.0023	0.0067	-0.0008	-0.1
0.0007	-0.0015	0.0082	-0.0015	0
-0.0015	-0.0015	0.0105	-0.0015	0
0.0007	-0.0015	0.0105	0	0
0	-0.0015	0.0097	0	0
-0.003	-0.0015	0.0082	0	0
-0.0008	0.0007	0.0067	-0.0008	-0.2
-0.0008	0.0007	0.0075	0.0007	0
-0.0008	0	0.0067	0	0
0	0.0007	0.0067	0	-0.1
-0.0023	0.0007	0.0067	0.0015	0
-0.0015	0.0022	0.006	0.0007	-0.1
-0.0015	0.0015	0.006	0.0015	0
-0.0038	0.0007	0.0052	0	0
0	0.0007	0.0037	0.0007	0
0.0015	0.0007	0.003	0.0015	-0.1
0.0015	0.0007	0.003	0.0007	0
-0.0008	-0.0008	0.0022	0.0015	-0.1
-0.0015	0.0007	0.0022	0.0015	-0.1
0.0015	-0.0008	0.0007	-0.0008	0
-0.0008	-0.0008	-0.0008	-0.0008	0
-0.0008	-0.0008	0	-0.0008	-0.2
0	0	-0.003	0	0
0	0.0007	-0.0053	-0.0008	0
-0.0015	0.0007	-0.006	0	-0.1
-0.003	0.0015	-0.0053	0.0015	0.1
-0.0015	0.0022	-0.0053	0.0007	-0.1
0	0.0015	-0.0046	0.0007	0
-0.003	0.0007	-0.0053	0.0007	0
-0.003	0.0015	-0.0053	0.0007	-0.1
0	0.0007	-0.0038	-0.0008	0
-0.0008	0.0022	-0.0046	-0.0008	0
0	0.0015	-0.003	0.0007	-0.1
0.0007	0	-0.0023	0.0007	0
0	0.0007	-0.003	-0.0008	-0.1
-0.0008	0	-0.0023	-0.0008	0
0.0015	0.0007	-0.0023	-0.0008	-0.2
0.0007	-0.0008	-0.003	-0.0008	0.1
0	0	-0.0015	-0.0015	0
0.0007	0.0007	-0.0015	0	0.1
0.0015	-0.0008	-0.003	0.0015	0
-0.0008	0.0007	-0.0015	0.0015	0
-0.0023	-0.0008	-0.0023	0.0007	0
-0.0038	-0.0008	-0.003	0	0
-0.0023	0.0015	-0.0023	-0.0008	-0.1
-0.0015	0.0022	-0.003	0.0015	0.1
0.0007	0.0015	-0.0015	0.0007	0
0.0015	0.0022	0.0007	0.0007	-0.1
0.0015	0.0015	0	-0.0008	-0.2
0.0022	0.0015	-0.0008	-0.0023	-0.1
0.003	0.0007	-0.0008	-0.0015	-0.1
0.0015	-0.0008	0.0007	-0.0015	0
0.0007	-0.0008	0.0015	0	0.1
0.0007	-0.0023	0.0007	0.0007	-0.1
0.0007	-0.0023	0.0015	0	-0.2
0.0007	-0.0023	0.0007	-0.0015	0
0.0007	-0.0023	0.0015	-0.0008	0
0.0007	-0.0015	0.0022	0.0007	0
0.0022	0	0.0015	-0.0008	0.1
0.0015	0.0007	0.0015	0.0007	-0.1
0.0007	-0.0008	0.0007	0.0007	-0.1
0.0015	-0.0008	-0.0015	0.0007	-0.1
0.0007	0	-0.0023	0.0007	0
0	0.0007	-0.003	0.0007	-0.1
0.0007	-0.0008	-0.003	0.0015	0
0.0015	0.0007	0	0.0007	0
-0.0008	-0.0008	0	0.0015	0
0	-0.003	0.0007	0.0015	-0.3
0.0015	-0.003	-0.0008	0.0015	-0.1
0.0022	-0.0015	0	0.0007	0
0.0045	0	0.0007	0.0007	0
0.003	0.0007	-0.0008	0.0015	0
0.0007	-0.0008	-0.0015	0.0015	-0.1
0.0007	0.0015	-0.0015	0.0007	-0.1
0	0.0015	-0.0023	0.0015	-0.2
-0.0015	0	-0.003	0.0015	0.1
-0.0015	0.0015	-0.0008	0.0015	-0.2
-0.003	0.0015	0.0007	0.0022	0
-0.0008	0.0007	0	0.0022	-0.1
0.0007	0	-0.0008	0.0015	0.1
0.0037	0.0015	-0.0015	0.0007	-0.2
0.003	0.0007	0	0.0015	0
0.0015	0.0007	-0.0008	0.0015	-0.2
0	0	-0.0015	0	-0.1
0.0007	0	-0.0015	0.0007	-0.1
0	0.0007	-0.003	-0.0008	0
0.0022	0.0007	-0.0023	-0.0008	-0.2
0.003	0.0007	-0.0015	0.0007	-0.1
0	0.0015	0.0007	-0.0008	0
-0.0008	0.0007	0.0015	-0.0008	-0.2
-0.0038	0	0.0022	0.0007	0
-0.0008	0.0007	0.0045	0	-0.2
-0.0008	0.0015	0.003	0	0.1
-0.003	0.0007	0.0022	0	-0.2
-0.0008	0.0015	0.0022	0	0.1
-0.003	0.0015	0.0022	-0.0008	-0.3
-0.0023	0.0007	0.0045	-0.0008	0.1
0.0007	0.0007	0.0037	0.0007	-0.3
-0.0008	0	0.0045	0.0007	0.1
-0.0015	0	0.0045	0.0007	-0.2
0	0	0.0045	-0.0008	0.1
-0.0008	0	0.006	-0.0008	-0.2
0	-0.0008	0.0052	-0.0008	0
0.0015	-0.0015	0.0037	-0.0008	-0.1
-0.0008	-0.0015	0.003	-0.0008	0
0.0007	0	0.003	0.0007	0
0	0.0007	0.003	0.0007	-0.1
-0.0023	0.0007	0.003	-0.0008	0
-0.0015	0.0015	0.003	0.0007	0
-0.0015	0.003	0.0007	0	0
-0.003	0.003	-0.0008	0.0015	-0.1
-0.0023	0.0007	-0.0015	0.0007	0
-0.0015	0.0015	-0.0015	0	-0.2
-0.0008	0.0007	-0.0008	0.0015	0
-0.003	0.0015	-0.0015	-0.0008	0
-0.003	0.0007	-0.0015	-0.0015	0
-0.0046	0	-0.0008	-0.0008	-0.2
-0.0046	0	-0.0015	0	0
-0.0015	-0.0008	-0.0015	0.0007	-0.1
-0.0008	0	-0.003	0.0007	0
0	-0.0008	-0.0053	0.003	-0.2
0	-0.0008	-0.0053	0.0015	-0.1
0.0007	-0.0008	-0.0053	0.0007	-0.1
0.0007	-0.0008	-0.006	0.0015	-0.2
0.0022	0	-0.0053	0.0007	0.1
0.0007	0.0007	-0.0046	0.0015	-0.2
0	-0.0015	-0.0038	0.0007	0
-0.0008	0.0007	-0.003	0.0015	-0.2
-0.003	0.0007	-0.0038	0.0022	0
-0.003	0	-0.003	0.0007	0
-0.0046	0.0007	-0.0015	-0.0008	0.1
-0.003	0.0007	-0.0008	-0.0015	-0.2
0.0007	0.0007	0.0007	-0.0015	0.1
0.0007	0.0007	0.0022	0.0007	-0.1
0.0007	0.0007	0.0007	0.0007	0
-0.0015	-0.0015	0.0015	0	-0.1
0.0007	-0.0008	0.0015	-0.0008	-0.2
0.003	0.0015	0.0015	-0.0015	0
0.003	0.0015	0.003	0	0
0.0015	0	0.003	0	0
-0.0008	-0.0015	0.0045	0	0
0.0007	0.0007	0.0045	0	-0.1
0.0022	-0.0008	0.0022	-0.0008	0
0.0007	0.0007	0.0052	-0.0008	-0.1
-0.0015	0.0015	0.0052	0.0007	0
-0.0015	0.0015	0.006	0	0
-0.0015	0.0015	0.006	-0.0008	-0.1
0.0022	0	0.0052	-0.0008	-0.1
0.003	-0.0008	0.0067	0.0015	0
0.0015	-0.0015	0.0067	0.0022	0
0.003	-0.0008	0.009	0.0007	-0.1
0.0022	0.0007	0.0112	-0.0008	-0.1
0.0015	-0.0008	0.009	-0.0008	-0.1
-0.0008	-0.0015	0.009	-0.0008	0.1
0.0007	0.0007	0.0075	0.0007	-0.2
0.0007	-0.0008	0.0045	0.0007	0
-0.0008	-0.0015	0.0015	0.0007	-0.2
0.0007	-0.0015	0.0022	0.0007	0
0	0.0007	0.0052	0.0007	-0.1
0.0007	0.003	0.006	0.0007	0
0.0015	0.0075	0.003	0.0007	0
0.0015	0.012	0.0015	0	0
0.0015	0.0127	-0.0008	-0.0008	0
0.0015	0.0082	-0.0038	-0.0015	0
0.0037	0.0052	-0.0038	-0.0008	0.1
0.0037	0.0015	-0.0023	0.0022	0
0.0015	0	0.0015	0.0015	0
0.0015	-0.0046	0.0015	0.0007	0.1
0.0022	-0.0091	0.0037	0.0007	-0.1
0.0045	-0.006	0.006	-0.0023	0
0.003	-0.0135	0.0052	-0.0008	0
0.0015	-0.0165	0.0037	0	-0.2
0.0015	-0.0128	0.0007	-0.0015	0
0.0015	-0.0068	-0.0008	0.0015	-0.2
0.0015	0.0007	-0.0023	0.003	-0.1
0.0015	-0.0015	-0.0046	0.0015	-0.1
-0.0008	0.0007	-0.0053	0.0007	0.1
-0.003	0.0007	-0.0053	0.0007	-0.1
-0.0023	0.0007	-0.0068	0.0007	0
-0.0015	0.003	-0.006	-0.0008	-0.2
-0.0008	0.0022	-0.0046	0.0007	0
0.0015	0.0015	-0.0053	0.0015	0
0.0015	0.0015	-0.003	0.0022	0
0.0015	0.0015	-0.003	0.0022	-0.1
0.0015	0.0015	-0.0023	0.0022	0
0.0015	0.003	-0.0023	0.0007	0
0.0022	0.0045	-0.0023	-0.0015	-0.2
0.0045	0.0075	-0.003	-0.0015	0.1
0.0022	0.0112	-0.003	-0.0008	-0.1
0.003	0.0157	-0.003	-0.0008	0.1
0.003	0.0135	-0.0046	-0.0015	-0.1
0.0007	0.0052	-0.0053	-0.0015	0.1
-0.0015	0.0045	-0.006	-0.0008	-0.1
0.0007	-0.003	-0.0068	-0.003	0
0.0015	-0.0135	-0.0083	-0.0023	-0.2
0.0007	-0.0143	-0.0053	-0.0015	0.1
-0.0008	-0.0008	-0.006	-0.0015	-0.3
0.0007	0.0097	-0.0068	0	0
-0.0008	0.0172	-0.0053	0.0022	0
0	0.0195	-0.0053	0.003	0
0.0007	0.0067	-0.0046	0.0007	0
-0.003	-0.006	-0.0053	0	0
-0.003	-0.0256	-0.0015	-0.0015	0.1
-0.0015	-0.0278	0	-0.003	-0.1
-0.0015	-0.0083	-0.0008	-0.0008	0.2
-0.0046	-0.0165	0	-0.0008	-0.2
-0.0038	-0.0165	0.0015	0.003	0.1
-0.0023	0.0037	0.003	0.0045	-0.2
-0.0015	0.0082	0.003	0.003	0
-0.0015	0.012	0.0052	0.0015	0
-0.0015	0.0157	0.006	0.0037	0.1
-0.0015	0.0052	0.0067	0.0045	-0.2
-0.0023	-0.0075	0.0105	0.0015	0.1
-0.0008	-0.0143	0.012	0.0015	-0.1
-0.0008	-0.0113	0.0135	-0.0008	0.1
-0.0023	-0.0053	0.012	-0.0008	-0.1
-0.0015	-0.0098	0.0075	-0.0015	0
-0.0023	-0.003	0.0052	0.0022	-0.1
-0.0008	0.009	0.003	0.0037	-0.1
0.0007	0.0067	0.0022	0.0007	0
-0.0008	0.0045	0.003	-0.0008	-0.1
-0.0015	0.0022	0.0015	-0.0008	0.1
-0.0023	0.003	0.0007	-0.0008	-0.2
-0.0023	0.003	-0.0015	0.0007	0.1
-0.003	0.0037	-0.0023	0.0015	-0.2
-0.003	0.0045	-0.003	0.0022	0
-0.0008	0.0045	-0.006	0.0015	-0.2
-0.0046	0.0045	-0.0068	0.0007	0
-0.0038	0.003	-0.0053	-0.0008	-0.2
-0.0015	0.0037	-0.003	-0.0008	0.1
-0.003	0.003	-0.0046	0.0007	-0.1
-0.0015	0.0015	-0.0038	0.0007	-0.1
-0.0008	0.0022	-0.0038	0	0
0	0.006	-0.003	0.0015	-0.2
0.003	0.0075	-0.0015	0.0022	-0.1
0.0015	0.0075	-0.0008	0.0015	0
0.0015	0.009	0.0007	0.0015	0
0.0022	0.0127	0.0007	0.0045	0
0.0015	0.0105	0.0007	0.003	-0.1
0.0015	-0.0015	0.0015	0	-0.1
0.003	-0.0083	0.003	-0.0023	0
0.0037	-0.0023	0.0052	-0.0008	-0.2
0.003	0.0037	0.006	-0.0046	-0.1
0.0007	-0.0105	0.0052	-0.0091	-0.2
-0.0015	-0.0233	0.0045	-0.0075	0
-0.0008	-0.015	0.0045	-0.0075	-0.2
-0.003	-0.0015	0.0045	-0.0053	-0.2
-0.0038	-0.003	0.003	-0.0038	-0.1
0	-0.0068	0.0015	-0.0015	0
0.0007	0.0015	-0.0015	0.0015	0
0.0007	0.0157	-0.003	0.0045	0
0.0007	0.0157	-0.0015	0.0052	-0.1
0	0.0045	-0.0038	0.0015	-0.2
0.0007	-0.0105	-0.0053	-0.0015	-0.1
0.0015	-0.0218	-0.0038	-0.0015	-0.1
-0.0008	-0.0195	-0.006	-0.003	-0.2
-0.0008	-0.0068	-0.0053	-0.003	-0.2
0.0007	0.0165	-0.0038	-0.0015	-0.1
0.0007	0.0097	-0.0008	0.0022	-0.2
0.0007	0.009	-0.0008	0.0015	-0.2
0.0007	0.0052	0	-0.0015	-0.2
0	-0.0225	0.0015	-0.0015	0
0	-0.0165	-0.0008	-0.0015	-0.1
-0.0008	-0.0015	-0.003	-0.003	-0.1
-0.003	0.0067	-0.003	-0.0053	-0.1
-0.0008	0.0112	-0.003	-0.0015	-0.2
-0.0008	0.018	-0.0015	0.0015	-0.2
0.0007	0.0247	-0.0008	0.0022	-0.2
0.0007	0.0217	0.0015	0.0045	-0.2
0.0007	0.0067	0.0015	0.0022	-0.1
0.0007	-0.0023	0.0015	0.0015	-0.1
-0.0008	0.006	-0.0008	0.0007	-0.2
-0.0015	0.0022	-0.003	0.0015	-0.3
-0.0023	-0.0008	-0.0068	0.0037	-0.2
-0.0015	0.0277	-0.0068	0.0045	-0.2
-0.0008	0.0232	-0.0053	0.0015	-0.2
0.0007	-0.0233	-0.0046	-0.006	-0.2
0	-0.033	-0.0046	-0.0083	-0.4
-0.0015	0	-0.0046	-0.0053	-0.2
0.0007	-0.0046	0.0037	-0.003	-0.2
0.0015	-0.0361	0.009	-0.0008	-0.2
0.0022	-0.0195	0.0075	-0.0015	-0.3
0.003	0.0052	0.003	0	-0.1
0.0022	0.0345	0.0007	-0.0068	-0.3
0.0052	0.045	-0.0008	-0.0068	-0.1
0.0052	0.036	-0.0038	0.0052	-0.2
0.006	0.018	-0.006	0.0082	-0.2
0.0045	-0.0053	-0.006	0.009	-0.2
0.003	-0.0503	-0.0015	0.0135	-0.1
0.006	-0.075	0.0045	0.0135	-0.2
0.003	-0.0233	0.0142	0.0075	-0.2
0.003	-0.0068	0.018	0.0075	-0.2
0.0037	0.003	0.0165	0.0142	-0.3
0.0015	0.0427	0.0142	0.0127	-0.1
0.0007	0.0277	0.0097	0.0067	-0.2
-0.0023	-0.0368	0.0045	0	-0.1
-0.0023	-0.0443	-0.0015	-0.0038	-0.4
-0.0023	-0.0443	-0.003	-0.0053	-0.2
-0.0023	-0.0525	-0.0023	-0.0083	-0.2
-0.003	-0.0105	0.0022	-0.0105	0
-0.0023	0.0067	0.003	-0.0135	-0.3
-0.0038	0.0307	-0.0015	-0.0098	-0.1
-0.0053	0.0465	-0.003	-0.003	-0.4
-0.0008	0.048	-0.0038	-0.0008	0
0.0007	0.0607	-0.0038	0.0052	-0.3
0.0007	0.039	-0.0053	0.0082	-0.1
0.0007	0.003	-0.0083	0	-0.4
-0.0008	-0.0338	-0.0046	-0.0046	-0.2
-0.0015	-0.0563	0	-0.003	-0.2
-0.0015	-0.0555	-0.0008	-0.0023	-0.2
-0.003	-0.0308	-0.003	-0.0008	-0.3
-0.0046	-0.0233	-0.0053	-0.0015	-0.2
-0.0046	-0.0113	-0.0068	0.0007	-0.2
-0.0015	0.012	-0.0068	0.0022	-0.2
0.0007	0.0157	-0.0053	-0.0008	-0.2
-0.0015	0.0352	-0.0046	-0.003	-0.2
-0.0023	0.0315	-0.0015	-0.0046	-0.2
-0.0008	0.0255	0.0037	-0.0068	-0.4
-0.0008	0.0255	0.0037	-0.0053	-0.2
-0.0008	0.0195	0.0045	-0.0023	-0.3
0	0.012	0.0067	-0.0046	-0.2
-0.0023	0.0165	0.0067	0.0007	-0.5
-0.003	0.021	0.006	0.0067	-0.2
-0.0046	-0.0068	0.0045	0.003	-0.3
-0.0038	-0.039	0.003	-0.0008	-0.2
-0.0015	-0.0585	0.0052	-0.003	-0.3
-0.0008	-0.0361	0.0097	0.003	-0.1
-0.0008	0.0067	0.012	0.009	-0.3
-0.0015	0.0225	0.0082	0.0097	-0.3
-0.0023	0.0172	0.0067	0.0037	-0.2
-0.0015	0.0105	0.0067	-0.0098	-0.4
-0.0038	0.0217	0.003	-0.0135	-0.2
-0.003	0.0345	0.0015	-0.006	-0.3
-0.0015	0.039	0.003	-0.0008	-0.2
-0.003	0.0412	0.0052	0.0037	-0.2
-0.003	0.0157	0.006	0.012	-0.3
-0.0008	-0.024	0.0067	0.0105	-0.3
0	-0.0436	0.0045	0.0052	-0.2
0	-0.0503	0.003	0.003	-0.4
-0.0008	-0.0375	0	0.0022	-0.2
-0.003	-0.0128	-0.0046	0.0015	-0.5
-0.0038	-0.0038	-0.0075	0.0015	-0.3
-0.0038	0.0082	-0.0068	0.0015	-0.4
-0.0046	0.0075	-0.0083	0	-0.5
-0.0038	0.003	-0.0113	-0.003	-0.5
-0.003	0.003	-0.0128	-0.0068	-0.4
-0.0015	0.0067	-0.0135	-0.003	-0.3
0	0.018	-0.0128	0	-0.4
0.0022	0.0225	-0.0128	0.0007	-0.4
0.003	0.0217	-0.0105	0.0015	-0.4
0.0015	0.0127	-0.012	-0.0008	-0.3
0.0015	-0.0068	-0.0105	-0.003	-0.4
0.0015	-0.027	-0.0083	-0.0068	-0.4
0.0007	-0.027	-0.0091	-0.0091	-0.5
0.0015	-0.0105	-0.0083	-0.0053	-0.3
0.0015	0.0015	-0.0083	0.0007	-0.5
0.0007	0	-0.0053	0.0052	-0.3
0.0007	-0.0008	-0.0053	0.0067	-0.5
0.0015	0.0022	-0.0053	0.0067	-0.4
0.003	0.009	-0.0053	0.0022	-0.5
0.0007	0.0165	-0.0053	-0.0015	-0.5
-0.0008	0.0225	-0.0046	0.0007	-0.5
0.0015	0.024	-0.0053	0.0015	-0.5
0.0022	0.012	-0.003	0.0007	-0.5
0.0022	-0.0015	-0.0008	0.0022	-0.3
0.0045	-0.0203	0	0.0015	-0.4
0.0037	-0.0233	0.0007	0	-0.5
0.0045	-0.0165	0.0015	0	-0.5
0.0052	-0.0158	0.0007	0.0015	-0.3
0.0045	0.0045	0	0.0015	-0.5
0.0067	0.0045	0	0.0007	-0.3
0.0052	-0.0015	0	-0.0038	-0.4
0.0015	0.009	-0.0015	-0.0046	-0.4
0.0037	0.0202	-0.0046	-0.0038	-0.5
0.003	0.0225	-0.003	-0.003	-0.3
0.0007	0.015	-0.003	0.0007	-0.5
0	0.0045	-0.0023	0.0015	-0.5
0.0007	-0.0233	-0.0015	0.0015	-0.5
-0.0015	-0.0346	0.003	0.0105	-0.5
-0.0015	0.024	0.0045	0.018	-0.3
-0.0008	0.0885	0	0.0187	-0.5
0	0.1012	-0.0015	0.0127	-0.3
0.0007	0.096	-0.0015	0.0097	-0.5
0.0022	0.0352	-0.0015	-0.003	-0.5
0.0015	-0.0773	-0.003	-0.021	-0.4
-0.0008	-0.1538	0.0007	-0.0233	-0.4
0	-0.0975	0.0045	-0.0158	-0.5
0	-0.0225	0.0045	-0.0143	-0.4
-0.0023	-0.0548	0.0045	-0.0135	-0.4
-0.0023	-0.075	0.0052	-0.0113	-0.4
-0.0015	-0.0555	0.006	-0.0015	-0.6
-0.0015	-0.0015	0.0075	0.0067	-0.5
-0.0008	0.0217	0.0082	0.003	-0.5
-0.0008	0.0315	0.0052	-0.0015	-0.5
-0.003	0.027	0.0007	-0.0068	-0.4
-0.0046	-0.0038	-0.003	-0.0113	-0.6
-0.0046	-0.0113	-0.0015	-0.012	-0.3
-0.003	-0.0165	-0.0015	-0.0113	-0.6
-0.0008	0.0157	-0.0068	-0.0075	-0.5
-0.0008	0.0427	-0.0098	0.0007	-0.8
0	0.0795	-0.0113	0.009	-0.5
0.0022	0.0967	-0.0098	0.0105	-0.8
0.0015	0.0825	-0.0091	0.009	-0.5
0.0015	0.0607	-0.0075	0.0045	-0.6
0.0015	-0.0075	-0.0083	0.003	-0.5
-0.0008	-0.0773	-0.0098	0.0082	-0.7
-0.0008	-0.1088	-0.006	0.015	-0.5
0.0022	-0.1133	0.0015	0.0232	-0.5
0.0037	-0.093	0.0075	0.0187	-0.5
0.0022	-0.039	0.0052	0.0045	-0.5
0	0.0045	0	-0.0053	-0.5
0.0007	0.0232	-0.0008	0.003	-0.3
-0.0008	0.0202	0.0022	0.009	-0.7
-0.0038	0.027	0.003	0.0037	-0.4
-0.0023	0.036	0.003	-0.0091	-0.7
-0.0023	0.0592	0.006	-0.0233	-0.3
-0.003	0.0817	0.0082	-0.0158	-0.6
-0.0038	0.069	0.0127	-0.0015	-0.4
-0.0015	0.0442	0.0187	0.0045	-0.6
0.0007	-0.0181	0.0232	0.0082	-0.5
-0.0008	-0.0893	0.0232	0.0015	-0.7
-0.0015	-0.1125	0.0195	-0.0068	-0.5
-0.003	-0.0638	0.018	-0.0046	-0.6
-0.0015	-0.0368	0.0187	0.0007	-0.5
-0.0008	-0.0046	0.0202	0.0045	-0.5
-0.0008	0.0285	0.018	0.0052	-0.5
0	0.033	0.0142	0.009	-0.5
-0.0015	0.048	0.0112	0.0105	-0.8
-0.0023	0.0367	0.0075	0.0067	-0.4
-0.0008	0.0412	0.0052	0.0015	-0.7
-0.0015	0.0105	0.0067	-0.0038	-0.6
-0.003	-0.0263	0.0082	-0.0068	-0.8
-0.003	-0.0143	0.0082	-0.0068	-0.5
-0.003	0.003	0.0105	-0.003	-0.8
0.0007	-0.0068	0.0105	0.0015	-0.5
0	0	0.0105	0.0007	-0.7
-0.0015	0.0045	0.0075	0.0007	-0.5
0.0007	-0.0091	0.0007	0.0015	-0.8
-0.0008	0.003	-0.0038	0.003	-0.6
-0.0023	0.0195	-0.0053	0.0067	-0.7
-0.0015	0.0592	-0.0083	0.006	-0.7
-0.0008	0.0795	-0.0098	0.006	-0.7
-0.0008	0.063	-0.0098	0.003	-0.8
0.0007	0.0007	-0.006	-0.0038	-0.8
0.0015	-0.0615	-0.003	-0.0053	-0.6
-0.0008	-0.066	-0.003	0	-0.6
0.0007	-0.0338	-0.0008	0.0045	-0.6
0	-0.0046	-0.0023	-0.0008	-0.7
0	0.003	-0.0091	-0.0068	-0.8
0.0007	0.0037	-0.0128	-0.0143	-0.7
-0.0015	-0.0015	-0.0165	-0.0158	-0.8
-0.0015	0.0172	-0.0195	-0.012	-0.8
0	0.048	-0.0195	-0.003	-0.9
0.0007	0.0532	-0.0181	0.0007	-0.8
-0.003	0.0165	-0.0165	-0.0053	-0.8
-0.0015	-0.0503	-0.0158	-0.0181	-0.8
-0.003	-0.0803	-0.0113	-0.027	-0.7
-0.003	-0.033	-0.0068	-0.0203	-0.8
-0.0015	-0.0046	-0.0046	-0.0083	-0.8
-0.003	-0.0068	-0.0046	0.006	-0.6
-0.0008	-0.0263	-0.0053	0.0202	-0.8
-0.0008	-0.0465	-0.0046	0.0187	-0.6
-0.0008	0.0067	-0.0046	0.0135	-0.9
-0.0008	-0.003	-0.0023	0.0067	-0.7
-0.0008	-0.0165	0	0.0007	-0.9
-0.0008	0.0142	0	0.003	-0.7
0.0007	0.0322	-0.0015	0.006	-0.7
0.003	0.0675	-0.0023	0.0082	-0.6
0.0037	0.057	-0.0015	0.0067	-0.8
0.003	0.024	-0.0023	0.0015	-0.8
0.0022	-0.0278	-0.0046	-0.0038	-0.8
0.003	-0.0758	-0.003	-0.0015	-0.9
0.0052	-0.0518	-0.003	0.006	-0.8
0.0037	0.018	-0.003	0.0105	-0.8
0.003	0.0217	-0.0068	0.009	-0.9
0.0015	0.012	-0.0075	0.0082	-0.9
0	-0.0008	-0.0068	0.003	-0.8
0.0007	-0.0293	-0.0075	-0.0046	-0.9
0.0007	0.0157	-0.0091	-0.0083	-0.8
0	0.0315	-0.0091	-0.0091	-0.9
0.0007	-0.0046	-0.0068	-0.0083	-0.8
0.0015	-0.054	-0.006	-0.0046	-1
0.0052	-0.0578	-0.0053	0.0045	-0.7
0.0082	-0.0091	-0.0053	0.0082	-1
0.0082	0.0075	-0.003	0.0052	-0.7
0.0082	0.0097	-0.0015	0.003	-0.9
0.006	0.0097	-0.0038	0.0007	-0.8
0.003	0.0112	-0.0008	0.0007	-0.8
0.006	0.012	0	-0.0008	-0.9
0.0037	0.0127	0.0007	-0.0015	-0.8
0.003	0.018	0	0	-0.9
0.0022	0.0225	0.0015	0.0007	-0.9
0.0015	0.027	0.003	0.0015	-0.9
0.0015	0.0292	0.0037	0.0015	-1
0.0007	0.018	0.006	0.003	-0.9
-0.0008	-0.0008	0.0052	-0.0015	-0.8
0.0007	0.0045	0.0067	-0.0068	-0.8
0.0015	0.006	0.0082	-0.0046	-0.8
0.0022	0.0082	0.0075	-0.0023	-0.9
0	0.009	0.0082	-0.0015	-0.8
-0.0008	-0.0203	0.0097	0	-0.9
0	-0.027	0.012	0.0007	-0.8
-0.0008	0.0007	0.0157	0.006	-0.9
-0.0008	0.0142	0.0195	0.0052	-0.8
-0.0023	-0.0195	0.018	-0.0015	-0.9
-0.0053	-0.0405	0.0187	0.0007	-1
-0.0053	-0.0158	0.0232	0.0097	-0.9
-0.006	0	0.0232	0.0075	-0.8
-0.0046	-0.0091	0.0217	-0.0008	-0.9
-0.0046	-0.0158	0.0165	-0.0008	-0.9
-0.006	0.0015	0.0165	-0.0023	-1
-0.0075	0.012	0.0187	-0.0008	-0.9
-0.0083	0.0105	0.0202	0.003	-1
-0.0068	0.0202	0.0195	0.0022	-0.9
-0.003	0.039	0.0157	-0.0023	-0.9
-0.003	0.0615	0.0142	-0.0128	-0.9
-0.003	0.0742	0.0142	-0.0248	-1
-0.0015	0.0667	0.0157	-0.0233	-0.9
-0.0015	0.015	0.0142	-0.0195	-0.8
-0.0015	-0.0721	0.0097	-0.0165	-0.8
-0.0015	-0.0848	0.0082	-0.0135	-1
-0.0008	-0.0353	0.0052	0.0015	-0.9
0.0007	-0.024	0.0067	0.0165	-0.9
0.0007	0.0112	0.012	0.0292	-1
0.0007	0.024	0.009	0.0412	-0.8
-0.0015	0.0045	0.006	0.0375	-1
-0.0015	0.0367	0.0022	0.0232	-0.9
-0.0015	0.0832	-0.0008	0.0135	-1
-0.003	0.0637	-0.0038	-0.0015	-0.9
-0.0038	-0.0638	-0.0038	-0.0368	-1
-0.003	-0.165	-0.0015	-0.057	-0.9
-0.0038	-0.1635	0.0007	-0.0443	-1
-0.0008	-0.09	0.0067	-0.024	-1
-0.0008	-0.012	0.0067	-0.0023	-1
-0.0008	0.003	0.0022	0.0082	-1
-0.0015	0.0202	-0.0053	0.0082	-1.1
-0.0015	0.0277	-0.0105	0.0127	-1
-0.0023	0.0187	-0.0143	0.0127	-0.9
-0.0015	0.0165	-0.0181	0.0105	-0.9
-0.0015	0.024	-0.021	0.0097	-1
-0.0008	0.0352	-0.0263	0.0052	-1
-0.0023	0.039	-0.03	0	-0.9
-0.0046	0.057	-0.0346	0.0052	-1.1
-0.0046	0.063	-0.0368	0.006	-1
-0.003	0.051	-0.0361	0.0045	-1.1
-0.0015	-0.0098	-0.0308	0.0045	-0.9
-0.0015	-0.0825	-0.0248	0.0007	-1.2
0	-0.0645	-0.0203	0.0015	-1
-0.0008	-0.0038	-0.0195	0.012	-1
-0.0015	-0.0038	-0.0165	0.0105	-1
0.0015	0.0202	-0.0188	0.006	-0.9
0.0022	0.0457	-0.0203	0.0022	-1
0.0007	0.0352	-0.0188	-0.0015	-1.1
-0.0008	0.048	-0.0158	-0.0068	-1
-0.0008	0.0022	-0.012	-0.0128	-1
0	-0.06	-0.0105	-0.0113	-1
0.003	-0.0623	-0.0091	-0.006	-1
0.003	-0.0181	-0.0128	0.0015	-1
0.003	0.0292	-0.0165	0.0067	-0.9
0.003	0.0502	-0.0128	0.009	-0.9
0.0037	0.0457	-0.012	0.015	-1
0.003	0.0142	-0.0046	0.0142	-1
0.003	-0.0233	0.0022	0.0157	-1
0.0045	-0.012	0.0075	0.012	-0.9
0.0015	0.015	0.0112	-0.012	-1
-0.0015	0.0262	0.009	-0.042	-1
-0.0015	0.0217	0.006	-0.042	-1.1
-0.003	0.0075	0.0052	-0.0203	-1.1
-0.0015	0.0052	0.003	-0.0165	-1
0.003	-0.0503	0.0037	-0.015	-1.1
0.0045	-0.0533	0.0007	-0.0046	-0.8
0.003	0.0352	-0.0015	0.003	-1.1
0.0037	0.0172	0.0007	0.0105	-0.9
0.0052	-0.0323	0.0007	0.0202	-1
0.006	-0.0293	0.003	0.012	-1
0.006	-0.042	0.0022	0.0045	-1.1
0.0037	-0.0368	0.0052	0.0075	-0.9
0.0045	-0.0315	0.012	0.012	-1.3
0.009	0.0142	0.0127	0.018	-0.9
0.0075	0.0232	0.0097	0.0097	-1.1
0.0075	-0.0083	0.0082	0.0105	-1
0.0067	0.0202	0.0037	0.0195	-1
0.006	0.0952	0.0015	0.0202	-1
0.0052	0.1605	0.003	0.0165	-1
0.003	0.093	0.0015	-0.003	-1.1
0.003	-0.0405	0.0037	-0.0256	-1.1
0.0045	-0.1711	0.0105	-0.0173	-1.3
0.0045	-0.1441	0.0157	-0.0015	-1
0.0067	-0.048	0.0157	0.0022	-1.2
0.0045	-0.0346	0.0105	0.0097	-0.9
-0.0008	-0.0091	0.0052	0.0127	-1.3
-0.0023	-0.0015	-0.0008	0.0007	-1
-0.003	0.024	-0.0053	-0.0075	-1.3
-0.003	0.003	-0.0053	-0.0203	-1
-0.003	-0.0308	-0.0053	-0.0263	-1.4
-0.0015	-0.0195	-0.0053	-0.0135	-1
0.0007	-0.0053	-0.0046	-0.0015	-1.2
0.0007	0.003	-0.0046	0.0015	-1
0	0.0067	-0.003	0.0007	-1.2
-0.0015	0.0172	-0.0008	-0.0008	-1.2
-0.003	0.0172	0.0015	0.003	-1.1
-0.0015	0.0232	-0.0008	0.0082	-1.3
0.0007	0.0217	-0.0008	0.0045	-1.1
0.0007	0.03	0.0007	0.0022	-1.4
-0.0015	0.0375	0.0007	0.0015	-1
-0.003	0.033	0.0007	-0.0135	-1.2
-0.0053	0.0217	0.0015	-0.0173	-1.2
-0.0038	-0.0015	0.0067	-0.0091	-1.2
-0.0023	-0.0173	0.0097	-0.012	-1.1
-0.0046	0.0015	0.0105	-0.0181	-1.4
-0.0046	0.027	0.0082	-0.0158	-1.2
-0.006	0.033	0.0082	-0.0091	-1.4
-0.0068	0.057	0.0067	-0.0038	-1
-0.003	0.0697	0.0067	0.0037	-1.4
-0.003	0.039	0.0105	0.0105	-1.3
-0.0038	-0.0195	0.0127	0.0067	-1.2
-0.0008	-0.0863	0.0165	0.003	-1.2
-0.0015	-0.0968	0.0202	0.0045	-1.3
-0.0023	-0.0218	0.0277	0.0127	-1.3
-0.0015	0.0127	0.0277	0.015	-1.4
-0.0008	-0.0068	0.0232	0.0127	-1.3
-0.0015	0.0015	0.024	0.0127	-1.4
-0.0053	-0.0188	0.0187	0.0082	-1.4
-0.003	-0.0315	0.0127	0.003	-1.4
-0.003	-0.0075	0.0082	0.0052	-1.4
-0.0046	0.0165	0.0015	0.0157	-1.5
-0.0053	0.042	-0.0053	0.0195	-1.5
-0.0053	0.0465	-0.0105	0.0052	-1.5
-0.003	0.036	-0.0083	-0.0068	-1.5
-0.0038	0.0045	-0.0091	-0.0068	-1.5
-0.0046	-0.0278	-0.0091	-0.0091	-1.6
-0.003	0.0045	-0.006	0.0015	-1.4
-0.0008	-0.0046	0.0007	0.009	-1.5
0	-0.0555	0	-0.0105	-1.5
-0.0053	-0.063	-0.0105	-0.0203	-1.6
-0.0083	-0.0638	-0.0105	-0.0165	-1.5
-0.0053	-0.0225	0.0015	-0.0068	-1.6
-0.0015	-0.003	0.0075	0.012	-1.6
-0.0023	0.0067	0.0052	0.0172	-1.8
0.0007	0.0165	-0.0015	0.0195	-1.5
0.0015	0.0165	-0.006	0.024	-1.8
0.0022	0.0307	-0.0075	0.0202	-1.6
0.0015	0.03	-0.0068	0.009	-1.8
0.0007	0.0315	-0.0068	0.0022	-1.7
0.0007	0.012	-0.006	-0.0068	-1.7
-0.0008	-0.0128	0.0037	-0.0128	-1.8
0.0015	-0.0346	0.0097	-0.0195	-1.6
0.0007	-0.0233	0.0067	-0.0308	-1.7
-0.003	0.0052	0.0082	-0.024	-1.8
-0.0023	0.0382	0.006	-0.021	-1.8
-0.0008	0.1162	0.0067	-0.0165	-1.7
0.0007	0.171	0.006	-0.0113	-1.7
0.003	0.1642	0.003	-0.0105	-1.6
0.0007	0.1027	0.003	-0.0091	-1.9
-0.003	-0.075	0.0052	-0.0083	-1.8
-0.0046	-0.2288	0.0105	0.003	-1.9
-0.0038	-0.1478	0.0195	0.0157	-1.7
-0.0015	-0.0511	0.0195	0.0202	-1.9
-0.0023	-0.0578	0.0165	0.0255	-1.8
-0.0008	-0.0368	0.0165	0.0232	-2
0.0007	-0.0285	0.009	0.0202	-1.8
0.0015	0.012	0.003	0.0105	-2
0.0022	0.0667	-0.0038	-0.0068	-1.9
-0.0008	0.0495	-0.0083	-0.0105	-1.9
-0.0023	0.0045	-0.0068	-0.0158	-2
-0.0046	-0.0968	0.0007	-0.0188	-1.8
-0.0046	-0.123	0.0082	-0.0143	-1.9
-0.0053	-0.0195	0.0037	-0.0165	-1.9
-0.0053	-0.0038	0.0037	-0.0165	-2.1
-0.0008	-0.012	0.003	-0.0128	-2
-0.0008	0.0105	0.0045	-0.0053	-2.1
0.0015	0.0082	-0.003	0.0015	-2.1
0.0007	0.0195	-0.0091	0.0052	-2.2
-0.0008	0.0195	-0.0128	0.0112	-2
-0.0015	0.0232	-0.0165	0.0157	-2.2
-0.0038	0.021	-0.0181	0.0187	-2.1
-0.0015	0.0247	-0.024	0.0097	-2.3
-0.0008	0.0405	-0.024	-0.0053	-2
-0.003	0.039	-0.0233	-0.0098	-2
-0.0023	0.0315	-0.0218	-0.0053	-2.1
0.0015	0.0082	-0.0195	0.0067	-2.2
0.0007	-0.0293	-0.021	0.0112	-2.2
0.0022	-0.0218	-0.0195	-0.0008	-2.3
0.0045	0.036	-0.0203	-0.0135	-2.1
0.0045	0.0637	-0.0218	-0.0008	-2.3
0.0067	0.0862	-0.0181	0.0352	-2.2
0.0067	0.0555	-0.0143	0.042	-2.3
0.003	-0.021	-0.0098	0.0187	-2.2
0.0022	-0.0878	-0.006	-0.0015	-2.2
0.0015	-0.0818	0.0015	-0.0083	-2.2
0.0015	-0.0181	0.0015	-0.0113	-2.2
0	-0.0315	-0.0053	-0.012	-2.3
-0.0015	-0.033	-0.0083	-0.0046	-2.3
-0.0008	-0.0098	-0.0113	-0.0038	-2.3
0.0007	0.003	-0.0128	-0.0098	-2.3
0.0007	0.009	-0.0105	-0.0091	-2.2
-0.0015	0.0097	-0.0105	-0.0105	-2.2
-0.0008	0.009	-0.0105	-0.0038	-2.3
0.0015	0.003	-0.0113	0.003	-2.3
0.0007	0.0105	-0.012	0.0015	-2.3
0.0015	0.0052	-0.0105	0.003	-2.2
0.0015	0.0127	-0.0105	0.0015	-2.4
0.0022	0.033	-0.0158	-0.0046	-2.3
0.0052	0.0825	-0.0188	-0.0046	-2.5
0.0052	0.135	-0.0225	0.0007	-2.3
0.0045	0.1515	-0.0256	0	-2.5
0.003	0.1395	-0.027	-0.0053	-2.3
0.0015	0.0142	-0.024	-0.0218	-2.4
0.0007	-0.1688	-0.015	-0.0458	-2.4
-0.0008	-0.213	-0.0046	-0.0398	-2.3
-0.0015	-0.216	0.0097	-0.0068	-2.2
0.0015	-0.1785	0.0232	0.0382	-2.3
0.0067	-0.0368	0.036	0.0652	-2.3
0.0082	0.0082	0.0367	0.051	-2.2
0.0067	0.0225	0.021	0.0285	-2.4
0.0052	0.0277	0.0082	0.0105	-2.3
0.0022	0.0202	0.0015	0.003	-2.3
-0.0008	0.0307	-0.0008	0.0007	-2.2
-0.0008	0.0157	0	-0.0008	-2.4
0.0007	0.0232	0.0037	-0.0023	-2.1
0	0.0165	0.0082	-0.0046	-2.4
-0.0015	0.0195	0.012	-0.0023	-2.3
-0.0008	0.0195	0.009	-0.0038	-2.2
-0.003	0.0165	0.009	-0.003	-2.2
-0.003	0.018	0.0082	-0.0046	-2.4
-0.0038	0.0135	0.0037	-0.0046	-2.2
-0.0046	0.0157	-0.0008	-0.0023	-2.4
-0.0023	0.0127	-0.0015	-0.0046	-2.3
-0.0023	0.0127	-0.0008	-0.0046	-2.3
-0.0008	0.009	-0.0015	-0.0046	-2.3
0.0007	0.009	0	-0.0046	-2.3
-0.0008	0.0075	-0.0015	-0.0046	-2.2
0.0015	0.006	-0.003	-0.003	-2.3
0.0007	0.0037	-0.003	-0.0023	-2.2
0	0.0015	-0.0015	-0.0046	-2.3
0.0007	0.0015	-0.0015	-0.0046	-2.2
-0.0038	0.0015	-0.0015	-0.003	-2.2
-0.0046	0.0052	0	-0.0015	-2.2
-0.003	0.009	0	-0.0023	-2.2
-0.003	0.0112	0.0007	-0.0008	-2.3
-0.0038	0.0075	-0.0015	-0.0015	-2.2
-0.0068	0	-0.0046	-0.003	-2.2
-0.0083	-0.0181	-0.0053	-0.003	-2.3
-0.0091	-0.0203	-0.0046	-0.0023	-2.2
-0.0075	-0.0008	-0.003	0.0007	-2.2
-0.0053	-0.0015	-0.0008	0.0007	-2.2
-0.006	0	0.0022	0.0007	-2.2
-0.0075	0.0015	0.0045	0.0007	-2.3
-0.0053	-0.0008	0.0067	-0.0015	-2.1
-0.0053	0.003	0.0067	-0.0008	-2.4
-0.0068	-0.0008	0.0067	-0.0015	-2
-0.0038	0.0067	0.0075	-0.0023	-2.3
-0.0023	0.0157	0.0067	-0.0015	-2.2
-0.0038	0.012	0.0052	-0.003	-2.2
-0.0046	0.0082	0.0045	-0.0015	-2.1
-0.0038	0.003	0.0015	0	-2.3
-0.0046	-0.006	0.003	0.0045	-2.2
-0.0038	0.0157	0.003	0.0082	-2.3
-0.003	0.0225	0.0015	0.0052	-2.1
-0.0046	-0.0256	0.0015	0.0007	-2.2
-0.0046	-0.06	0.003	-0.0046	-2
-0.0023	-0.063	0.0052	-0.0098	-2.1
0.0007	-0.0173	0.0082	-0.0068	-2.3
0.0007	0.021	0.0105	0.0022	-1.9
0.0015	0.018	0.009	0.006	-2.3
0.0007	0.0127	0.0127	0.003	-2
0.0022	0.006	0.0127	-0.003	-2.2
0.003	0	0.0127	-0.0068	-1.9
0.0015	0.0045	0.0142	-0.0188	-2.2
0.003	0.057	0.012	-0.024	-2.1
0.003	0.09	0.0127	-0.0091	-2.2
0.0045	0.102	0.009	0.012	-1.8
0.003	0.066	0.0067	0.033	-2.2
0.0045	-0.0691	0.0097	0.0382	-1.9
0.0052	-0.1396	0.0165	0.0187	-2.1
0.0037	-0.1245	0.0202	-0.0068	-2.1
0.0022	-0.063	0.0142	-0.0181	-2.1
0.0022	-0.0053	0.0105	-0.0165	-2
0.0022	-0.003	0.0075	-0.0165	-1.9
0	0.027	0.003	-0.0135	-2.1
0.0022	0.0457	0.0037	-0.0083	-2.1
0.0045	0.0367	0.0015	-0.0023	-2.1
0.0022	0.0315	0.003	0.0157	-2.1
0.0045	-0.0293	0.0052	0.033	-2.2
0.0045	-0.0856	0.0097	0.033	-1.9
0	-0.0256	0.0127	0.0165	-2.1
0.0007	0.033	0.012	-0.0038	-2
0.0015	0.0255	0.0082	-0.0128	-2
0	-0.0181	0.003	-0.0195	-1.9
-0.0015	-0.063	0.0007	-0.0091	-2
-0.0008	-0.0128	0.003	0.0022	-1.9
0.0045	0.024	0.0097	0.0015	-1.9
0.0052	0.0262	0.0075	0.0112	-1.9
0.0045	0.0052	0.0007	0.006	-1.8
0.0015	-0.0188	-0.0038	0.0067	-1.9
0.0015	-0.0008	-0.006	0.012	-2
0.0067	-0.0068	-0.0053	0.0127	-1.9
0.0075	0.021	-0.0068	0.0232	-2
0.009	0.0277	-0.0053	0.024	-1.9
0.009	0.0232	-0.0053	0.027	-2.1
0.0075	0.033	-0.0068	0.0157	-2
0.0105	0.0247	-0.0015	-0.0046	-2
0.0067	0.0435	0.0022	-0.0181	-1.9
0.0045	0.045	0.0045	-0.0315	-1.9
0.0015	0.024	0.0015	-0.0413	-1.9
0.0022	-0.0248	-0.0046	-0.0473	-1.8
-0.0008	-0.1028	-0.0038	-0.0436	-2
0.0007	-0.0938	-0.0053	-0.024	-2
0	-0.012	-0.0075	-0.0105	-1.9
-0.003	-0.0046	-0.0075	-0.0038	-2
-0.003	0.012	-0.006	0.0045	-2.1
-0.0046	0.0225	-0.0068	0.0082	-1.8
-0.0023	0.0157	-0.0091	0.0157	-2.1
-0.0015	0.0262	-0.0083	0.0157	-1.8
0	0.0007	-0.0083	0.0142	-2.1
0.0015	0.0135	-0.0091	0.0127	-1.7
0.0022	0.0165	-0.0098	0.0097	-1.9
0.003	0.0292	-0.0098	0.012	-1.8
0.003	0.09	-0.0098	0.0202	-1.9
0.003	0.093	-0.0091	0.0225	-1.9
0.0045	0.0217	-0.0105	0.0127	-1.9
0.0037	-0.09	-0.012	0.003	-1.9
0.0015	-0.108	-0.0128	-0.0046	-1.9
0.0007	-0.012	-0.0105	-0.0083	-1.8
0.0015	0.0082	-0.0068	-0.0083	-1.8
0.0007	-0.0098	-0.0053	-0.0128	-1.8
-0.003	-0.0278	-0.003	-0.0203	-1.6
-0.0053	-0.0105	-0.0015	-0.0181	-1.9
-0.006	0.0067	-0.003	-0.0165	-1.7
-0.0053	-0.0083	-0.0008	-0.0083	-1.9
-0.0053	0.0112	-0.0008	0	-1.6
-0.0083	-0.0263	-0.0015	-0.0068	-1.9
-0.0098	-0.015	-0.003	0.003	-1.7
-0.0098	0.0315	-0.0023	0.0105	-2
-0.0068	0.075	0	0.0127	-1.6
-0.0068	0.075	0.0022	0.018	-2
-0.0068	-0.027	0.0007	0.0015	-1.6
-0.0068	-0.0765	-0.0008	-0.0083	-1.8
-0.0083	-0.0608	0.0045	-0.0098	-1.8
-0.0068	-0.0413	0.0082	-0.0105	-1.8
-0.0083	-0.0218	0.012	0.0015	-1.7
-0.0091	0.0105	0.0067	0.0105	-1.8
-0.0083	0.0112	0.0022	0.0105	-1.6
-0.0083	0.0142	0.0007	0.009	-1.8
-0.0068	0.0112	0	0.0067	-1.7
-0.0053	0.0067	0.003	0.0022	-1.8
-0.0038	0.0082	0.0007	-0.0053	-1.6
-0.0046	-0.0008	0.0007	-0.0038	-1.8
-0.0015	0.006	0.0007	0.0022	-1.7
0	0.0037	0.0007	0.0045	-1.6
0.0007	0.0127	-0.0015	0.0007	-1.7
0.0037	0.0232	-0.0068	-0.0046	-1.8
0.0045	0.0495	-0.0098	0.0007	-1.8
0.0045	0.0877	-0.012	0.0105	-1.6
0.006	0.0855	-0.0098	0.0195	-1.8
0.0082	0.0442	-0.0068	0.0202	-1.8
0.0097	-0.0293	-0.0015	0.0142	-1.7
0.0105	-0.1095	0	-0.0023	-1.8
0.0082	-0.1163	0.0007	-0.0218	-1.8
0.003	-0.0645	0.0037	-0.0218	-1.6
0.0015	-0.0323	0.0015	-0.0225	-1.8
0.0007	-0.0053	0.0015	-0.0233	-1.6
-0.0008	-0.0105	-0.0008	-0.0158	-1.7
-0.0008	-0.006	-0.003	-0.0038	-1.6
0.0015	0.0127	-0.003	0.0045	-1.7
0.0045	0.033	-0.0046	0.0082	-1.6
0.0037	0.0645	-0.003	0.0195	-1.6
0.0007	0.0607	-0.0038	0.0307	-1.6
0	0.0097	-0.0015	0.0232	-1.6
-0.0023	-0.0413	-0.0046	0.0105	-1.7
-0.0053	-0.012	-0.0083	0.0037	-1.6
-0.0053	0.0217	-0.0068	-0.0143	-1.7
-0.0053	-0.0083	-0.0046	-0.03	-1.7
-0.0083	-0.0578	0.003	-0.0233	-1.5
-0.0083	-0.0323	0.009	-0.0105	-1.5
-0.003	-0.0015	0.021	-0.0068	-1.8
-0.0015	-0.0195	0.0202	-0.0143	-1.6
-0.003	0.0097	0.0127	-0.0195	-1.6
-0.0015	0.003	0.0142	-0.0083	-1.6
0.0015	-0.0008	0.0105	-0.003	-1.5
0.003	0.0037	0.0075	0.0007	-1.4
0.003	0.0097	0.0067	0.0067	-1.4
0	0.0195	0.003	-0.0008	-1.4
0.0015	-0.0008	0.006	0.003	-1.6
0.0045	0.003	0.0082	0.0075	-1.4
0.0022	0.006	0.0082	0.0082	-1.5
0.003	0.0082	0.0052	0.0105	-1.4
0.0022	0.009	0.0015	0.0082	-1.4
0.0007	0.0127	0.0015	0.0105	-1.5
0.0007	0.0157	0.0007	0.009	-1.4
0.0007	0.0217	-0.0015	0.0135	-1.4
-0.0008	0.0405	-0.0038	0.024	-1.4
0.0015	0.0487	-0.003	0.0217	-1.5
0.0022	0.0285	-0.0008	0.0127	-1.4
0.003	-0.0165	-0.0008	-0.003	-1.4
0.0015	-0.0585	-0.003	-0.0128	-1.4
-0.0038	-0.054	-0.0046	-0.003	-1.4
-0.0046	-0.0105	-0.0046	0.0105	-1.3
-0.0023	0.0045	-0.0038	0.0142	-1.4
0	0.0135	-0.0038	0.0045	-1.4
-0.0038	0.0172	-0.0075	-0.012	-1.6
-0.006	0.0045	-0.0105	-0.0218	-1.4
-0.0068	-0.0008	-0.0128	-0.03	-1.4
-0.0068	-0.0135	-0.0135	-0.033	-1.4
-0.0053	-0.012	-0.0128	-0.0218	-1.5
-0.0046	-0.0083	-0.0128	-0.0075	-1.5
-0.0038	0.0067	-0.0128	0.0105	-1.5
-0.0046	0.0352	-0.0135	0.0217	-1.4
-0.0046	0.042	-0.0128	0.0255	-1.5
-0.0008	0.027	-0.012	0.0262	-1.4
0.0022	0.0015	-0.0098	0.012	-1.4
0.003	-0.024	-0.006	-0.0015	-1.3
0.006	0.0007	-0.0038	-0.012	-1.5
0.0052	0.027	-0.0015	-0.027	-1.5
0.003	-0.0293	-0.0008	-0.0285	-1.4
0.0045	-0.0465	0.0007	-0.015	-1.5
0.0045	-0.0398	0.003	-0.0165	-1.4
0.003	-0.0361	0.0052	-0.012	-1.3
0.0037	0.018	0.0067	0.0082	-1.4
0.0045	0.0172	0.0052	0.0127	-1.4
0.0037	-0.0233	0.0082	0.0157	-1.4
0.0015	-0.0278	0.0127	0.018	-1.4
-0.0008	0.0045	0.0165	0.015	-1.4
-0.0023	0.0127	0.0217	0.0187	-1.5
-0.0023	0.0052	0.0195	0.0165	-1.4
-0.0038	0.0097	0.0157	0.012	-1.6
-0.003	0.0135	0.0135	0.0142	-1.4
-0.0068	0.0232	0.0112	0.0097	-1.6
-0.0053	0.0165	0.015	0.0045	-1.5
-0.003	0.0097	0.015	-0.0038	-1.6
-0.0023	-0.0046	0.0172	-0.0075	-1.4
-0.0015	0.0015	0.018	-0.0008	-1.6
-0.0023	0.006	0.0142	0	-1.4
-0.0046	-0.006	0.0112	-0.0068	-1.6
-0.0038	-0.0128	0.0105	-0.0015	-1.6
-0.003	-0.0135	0.009	0.006	-1.6
-0.0023	-0.0068	0.006	0.0045	-1.6
-0.003	-0.0135	0	0.0052	-1.6
-0.006	-0.0068	-0.0038	0.0195	-1.8
-0.0046	0.0082	-0.0015	0.0255	-1.5
-0.003	0.0255	-0.0008	0.015	-1.8
-0.0008	0.0457	-0.0008	0.0007	-1.6
-0.0008	0.0465	-0.003	-0.0195	-1.8
-0.003	0.0232	-0.0068	-0.048	-1.6
-0.003	-0.0225	-0.0068	-0.0458	-1.9
-0.003	-0.0405	-0.0091	-0.0256	-1.6
-0.0008	-0.0195	-0.0068	-0.0128	-1.7
0.003	0.0097	0.0007	0.0075	-1.5
0.0045	0.0105	0.0067	0.0105	-1.7
0.0015	-0.0233	0.0067	-0.0053	-1.5
-0.0008	-0.054	0.0067	-0.0053	-1.8
0.0007	-0.0383	0.0082	-0.015	-1.8
-0.0015	-0.0098	0.0067	-0.0256	-1.8
-0.0015	0.0232	0.006	-0.0158	-1.8
-0.0046	0.09	-0.0008	-0.0143	-1.7
-0.0046	0.1155	-0.012	-0.0165	-2
-0.0015	0.0705	-0.0158	-0.0143	-1.8
-0.0015	-0.0623	-0.0158	-0.0053	-2
0.0015	-0.1635	-0.012	0.018	-1.7
0.0015	-0.1448	-0.0015	0.0397	-1.9
0.0045	-0.0465	0.003	0.0442	-1.7
0.0052	0.021	-0.0015	0.0292	-1.9
0.0045	0.0127	-0.003	0.018	-1.6
0.0075	0.0135	-0.0046	0.0075	-2.1
0.0045	0.009	-0.0083	0.0045	-1.8
0.0022	0.0127	-0.012	0.0045	-2.1
0.0015	0.0195	-0.015	-0.003	-2.1
0.0007	0.033	-0.0143	0.0037	-2.2
0.003	0.0232	-0.012	0.0052	-2
0.0045	0.0135	-0.012	0	-2
0.0067	0.0082	-0.012	0	-2.1
0.006	-0.0008	-0.0128	0.003	-2
0.0075	0.024	-0.0128	0.0015	-2.2
0.0082	0.003	-0.015	-0.0128	-2
0.0097	-0.021	-0.0135	-0.0181	-2.2
0.012	0.012	-0.0091	-0.012	-1.9
0.0127	0.0105	-0.0046	-0.0128	-2.2
0.012	-0.0293	-0.0046	-0.0068	-1.9
0.0127	-0.024	0	0.0052	-2.2
0.0142	-0.0428	0.0007	0.0097	-1.9
0.012	-0.012	-0.0008	0.0097	-2.3
0.0127	0.024	-0.0015	0.0105	-2.1
0.0105	0.0015	-0.0038	0.0082	-2.1
0.009	0.0127	-0.003	-0.0046	-2.2
0.0082	-0.0046	-0.006	-0.0075	-2.3
0.009	0.0247	-0.006	0.003	-2.3
0.009	0.0292	-0.0075	0.0067	-2.3
0.0052	0.0135	-0.0075	0.003	-2.3
0.0037	0.0112	-0.0075	0.0007	-2.2
0.003	-0.0188	-0.0068	-0.0008	-2.3
0.003	-0.0233	-0.0046	-0.0105	-2.4
-0.0015	-0.0105	-0.0038	-0.0113	-2.3
-0.0023	0.0217	0.0015	0.003	-2.2
-0.0008	0.021	0.0052	-0.0015	-2.5
-0.0015	-0.0008	0.0052	-0.0083	-2.2
-0.003	-0.0225	0.003	-0.0068	-2.3
-0.0038	-0.0256	0.0007	-0.0091	-2.3
-0.003	-0.012	-0.0015	-0.006	-2.4
-0.006	-0.006	-0.003	-0.0015	-2.3
-0.0105	0.003	-0.003	-0.0083	-2.3
-0.015	0.003	-0.0053	-0.0068	-2.3
-0.0158	0.0067	-0.0083	-0.0038	-2.5
-0.0135	0.0015	-0.0135	-0.0075	-2.4
-0.0158	-0.0008	-0.0128	-0.0023	-2.7
-0.0158	0.0015	-0.0098	0.0037	-2.6
-0.015	0.0007	-0.0091	0.006	-2.7
-0.0158	0.0082	-0.0113	0.0022	-2.5
-0.0165	0.039	-0.0105	-0.003	-2.7
-0.0143	0.0637	-0.0075	-0.0008	-2.3
-0.0158	0.0517	-0.0068	0.0052	-2.6
-0.0173	0.0112	-0.0068	0.0075	-2.6
-0.015	-0.0885	-0.0083	0.003	-2.7
-0.012	-0.0878	-0.006	0.0045	-2.6
-0.0068	0.012	-0.0015	0.0067	-2.7
-0.003	0.009	0.0045	0.0067	-2.6
0	0.0075	0.009	0.0075	-2.6
0.0015	-0.0158	0.012	0.003	-2.6
0.0022	-0.027	0.0097	0.0015	-2.5
0.0007	0.0105	0.009	0.0037	-2.8
-0.0015	-0.0015	0.0082	0.0015	-2.6
-0.003	0.009	0.0097	0.0007	-2.7
-0.0053	0.0045	0.0142	0.0007	-2.7
-0.0038	0.003	0.0142	0	-2.9
-0.0053	0.0082	0.0142	-0.0015	-2.7
-0.0083	0.0045	0.0105	-0.0008	-3
-0.0091	0.009	0.0105	0.0015	-2.7
-0.0113	0.003	0.0135	0.0015	-3
-0.0091	0.0067	0.015	-0.0008	-2.7
-0.0075	0.003	0.0172	-0.0008	-2.9
-0.0091	0.0052	0.0165	0.0007	-2.6
-0.0091	0.0045	0.0157	0.0007	-2.9
-0.0091	0.003	0.0135	0.0007	-2.9
-0.012	0.0045	0.012	0.0007	-2.9
-0.012	0.003	0.0105	0.0007	-3
-0.0091	0.003	0.0105	-0.0008	-2.9
-0.0083	0.0007	0.0097	-0.0023	-3.1
-0.0083	0	0.0082	-0.0008	-2.9
-0.0083	-0.0015	0.0045	-0.0008	-3
-0.0083	-0.0015	-0.0015	-0.0015	-2.8
-0.0083	-0.0015	-0.0046	0	-3
-0.0113	-0.0008	-0.0046	-0.0008	-2.9
-0.006	0	-0.0015	-0.0008	-3.1
-0.0015	-0.0015	-0.0015	0.0007	-2.8
0.0007	-0.0008	0.0015	-0.0008	-3.1
0.0045	-0.0015	0.0045	-0.0015	-3
0.009	0	0.0045	-0.0008	-3.2
0.0142	0.0015	0.0052	0.0007	-3.1
0.0142	0	0.0045	0	-3.1
0.0165	-0.0015	0.0045	-0.0008	-3.2
0.018	0	0.0045	0.0007	-3
0.018	-0.0008	0.0037	-0.0008	-3.2
0.0157	-0.003	0.0015	-0.0015	-3.2
0.0105	-0.003	0.0007	-0.0008	-3.2
0.0105	-0.003	-0.0008	0.0007	-3.1
0.0097	0.0007	-0.0038	0.0015	-3.2
0.0052	0.0007	-0.0046	0.0007	-3.2
0.003	0.0007	-0.0046	0.0007	-3.3
0.0045	0.0007	-0.0023	0	-3.3
0.0067	0.0007	-0.0038	-0.0015	-3.3
0.0067	0.0007	-0.0046	0	-3.2
0.009	0	-0.0046	0	-3.4
0.0105	0	-0.0046	-0.0008	-3.2
0.0097	0.0007	-0.0046	0.0007	-3.3
0.0097	-0.0015	-0.0046	0.0007	-3.6
0.0105	-0.0015	-0.0053	-0.0008	-3.4
0.012	-0.0015	-0.0046	-0.0015	-3.5
0.0127	-0.0008	-0.0053	-0.0008	-3.6
0.012	0.0022	-0.0083	0	-3.5
0.012	0.009	-0.0098	0.0007	-3.7
0.0127	0.012	-0.0113	0.0015	-3.6
0.0157	0.0067	-0.0113	0.0007	-3.7
0.0135	-0.0046	-0.0091	0	-3.6
0.0142	-0.0203	-0.0083	0	-3.7
0.0157	-0.0128	-0.0083	0.0007	-3.6
0.0157	0	-0.0113	0	-3.7
0.015	-0.0046	-0.0135	0.0007	-3.6
0.012	-0.003	-0.015	0.0015	-3.7
0.0082	-0.0008	-0.0158	0.0015	-3.7
0.0082	0.0007	-0.0158	0.0015	-3.7
0.0082	0.0007	-0.0181	0	-3.6
0.0082	-0.0008	-0.0195	0.0007	-3.7
0.0075	0.0015	-0.0195	0.0007	-3.8
0.0067	0.0015	-0.0203	-0.0008	-3.7
0.0052	0.0022	-0.0218	0.0007	-3.9
0.0052	0.0007	-0.0225	0.0007	-3.8
0.0052	0.0015	-0.0218	0	-4
0.003	0.0015	-0.0195	0.0007	-3.9
0.0015	0.0022	-0.0181	-0.0008	-4
0.0007	0.003	-0.0173	-0.0015	-3.9
-0.0015	0.0015	-0.0143	-0.0008	-4
-0.003	0.0007	-0.012	-0.0008	-3.9
-0.003	0.0022	-0.0098	-0.0008	-4
-0.0053	0.003	-0.0091	0.0007	-4
-0.0083	0.0015	-0.0068	0.0015	-3.9
-0.0083	0.0037	-0.0046	0.0052	-4
-0.006	0.0052	-0.0015	0.0112	-4
-0.0068	0.0052	0.0022	0.0082	-4
-0.0075	0.0045	0.003	0.0045	-3.9
-0.0083	0.0037	0.0067	0.003	-4.1
-0.012	0.0007	0.009	-0.0046	-4.1
-0.0105	-0.0023	0.0127	-0.0068	-4.1
-0.0105	-0.0015	0.0157	-0.0015	-4
-0.0143	-0.0008	0.0195	0.006	-4.2
-0.015	0.0015	0.0247	0.0067	-4
-0.0181	0.0007	0.0307	-0.0015	-4.1
-0.0181	-0.0053	0.033	-0.0143	-4
-0.0195	-0.0075	0.0345	-0.021	-4.2
-0.0195	-0.0053	0.0375	-0.0181	-4
-0.0195	0.0007	0.0405	-0.003	-4.1
-0.015	0.0045	0.0442	0.009	-4.2
-0.0105	0.012	0.0465	0.0142	-4.1
-0.0091	0.0157	0.0465	0.0112	-4.2
-0.0068	0.0075	0.048	0.0045	-4.3
-0.0091	-0.0046	0.0472	-0.0008	-4.4
-0.0083	-0.021	0.0457	-0.0091	-4.2
-0.0023	-0.0165	0.045	-0.0105	-4.2
0.0007	0	0.0435	-0.0091	-4.2
0.003	-0.003	0.042	-0.012	-4.2
-0.0015	-0.0053	0.0405	-0.0091	-4.4
-0.0083	-0.003	0.039	-0.0015	-4.1
-0.0113	0.0045	0.0367	0.0052	-4.3
-0.0128	0.0127	0.0322	0.009	-4.2
-0.0135	0.0105	0.027	0.0135	-4.1
-0.0128	0.0067	0.0187	0.015	-4.4
-0.012	0	0.0127	0.012	-4.2
-0.0128	-0.0053	0.0052	0.0052	-4.3
-0.0105	0.003	-0.0008	-0.0008	-4.2
-0.0105	0.0052	-0.0091	-0.0023	-4.5
-0.0143	-0.0015	-0.0165	0	-4.4
-0.0143	0.006	-0.024	0.0052	-4.3
-0.0143	0.0082	-0.03	0.0082	-4.3
-0.012	0.0255	-0.033	0.006	-4.6
-0.0091	0.036	-0.0361	0.0022	-4.3
-0.006	0.0127	-0.0338	-0.0038	-4.5
-0.006	-0.0225	-0.0308	-0.0083	-4.4
-0.0083	-0.045	-0.0256	-0.0046	-4.6
-0.0053	-0.0068	-0.021	0.0015	-4.4
-0.0053	0.0127	-0.024	0	-4.6
-0.006	-0.0008	-0.0256	0.0007	-4.5
-0.0046	-0.0068	-0.0293	-0.0053	-4.6
-0.0008	-0.0233	-0.033	-0.0083	-4.5
0.0082	-0.0068	-0.0346	-0.0113	-4.7
0.0097	-0.0046	-0.0375	-0.0218	-4.6
0.0067	-0.015	-0.0368	-0.0105	-4.7
0.0075	-0.03	-0.0308	-0.0008	-4.5
0.0075	-0.0315	-0.0256	0.0097	-4.6
0.0067	0.012	-0.0218	0.012	-5
0.0052	0.018	-0.021	0.0045	-4.6
0.003	0.024	-0.0165	0.0067	-5
0.0045	0.012	-0.0135	-0.0015	-4.7
0.009	-0.0293	-0.0098	-0.0113	-5
0.0112	-0.0375	-0.0091	-0.012	-4.7
0.0157	-0.0105	-0.0091	-0.0015	-4.9
0.018	0.0082	-0.0083	0.006	-4.7
0.018	0.009	-0.0091	0.009	-5
0.0217	0.0165	-0.0083	0.012	-4.8
0.024	0.0142	-0.0083	0.009	-4.9
0.024	0.0165	-0.0105	0.0105	-4.8
0.0225	0.015	-0.0105	0.0097	-4.9
0.0202	0.0135	-0.0091	0.0082	-4.9
0.0202	0.0157	-0.0068	0.0067	-5
0.0202	0.012	-0.0046	0.0067	-5
0.0202	0.0112	0	0.0067	-5
0.0157	0.0075	0.0015	0.0045	-4.9
0.018	0.0082	0.003	0.0037	-4.9
0.0217	0.0052	0.0082	0.003	-5
0.024	0.0045	0.0127	0.003	-5
0.0255	0.003	0.0165	0.0022	-5.1
0.0217	0.003	0.0195	0.0007	-5.1
0.0187	0.003	0.0195	0.0007	-5.2
0.0165	0.0007	0.021	0	-5.2
0.0142	0.0022	0.021	0.0007	-5.2
0.0142	0	0.0217	0.0007	-5.2
0.0142	0.0015	0.0217	0.0007	-5.3
0.0165	0.0007	0.021	-0.0023	-5.4
0.0127	0.0015	0.0202	-0.0015	-5.2
0.0105	0.0007	0.0195	0.0007	-5.4
0.0112	0.0007	0.0195	-0.0023	-5.4
0.009	0.0015	0.0157	-0.0015	-5.3
0.003	-0.0008	0.0142	-0.0008	-5.4
-0.0008	0.0007	0.0135	-0.003	-5.3
0.0015	-0.0008	0.012	-0.0015	-5.5
0.0007	-0.0015	0.0127	-0.0008	-5.5
-0.0008	-0.003	0.0142	-0.0023	-5.8
-0.0038	-0.003	0.0135	-0.003	-5.5
-0.0105	-0.0008	0.012	-0.0023	-5.8
-0.015	-0.0015	0.0097	-0.0046	-5.8
-0.0203	-0.003	0.0082	-0.0046	-5.9
-0.0256	-0.0023	0.009	-0.003	-5.9
-0.0293	-0.0015	0.0067	-0.0023	-5.9
-0.0308	-0.0015	0.0052	0.0007	-6
-0.0293	-0.0008	0.0052	0.0007	-6
-0.024	-0.0015	0.0037	-0.0008	-6.1
-0.0233	-0.0023	0.003	-0.0015	-6
-0.0188	-0.0053	0.0007	-0.003	-6.3
-0.012	-0.0068	-0.0038	-0.0015	-5.9
-0.0135	-0.003	-0.0068	0	-6.4
-0.012	0	-0.0068	0	-6.2
-0.0091	0.0015	-0.0098	-0.0015	-6.6
-0.0091	-0.0008	-0.012	-0.003	-6.3
-0.0068	0	-0.0128	-0.0008	-6.6
-0.006	0.0007	-0.015	0.0007	-6.5
-0.0075	-0.0038	-0.0173	-0.0015	-6.8
-0.0083	-0.0046	-0.0195	-0.0015	-6.6
-0.012	-0.0015	-0.0225	-0.0015	-6.8
-0.0158	-0.0015	-0.0233	-0.003	-6.6
-0.0135	-0.0008	-0.0233	-0.0038	-6.8
-0.0128	0.0015	-0.0248	-0.0008	-6.9
-0.012	0.0037	-0.024	0.0007	-6.9
-0.0091	0.003	-0.024	0.0007	-7.2
-0.0053	0.0022	-0.0225	-0.0008	-7
-0.0015	0.0022	-0.0195	-0.0008	-7.2
-0.0015	0.0022	-0.0173	0.0015	-7
0.0007	0.0037	-0.0143	0.0015	-7.3
0.0037	0.0045	-0.0113	0	-7.1
0.0037	0.003	-0.0105	0.0007	-7.3
0.0075	0.0007	-0.0083	0.003	-7.2
0.0112	0.0007	-0.0053	0.0067	-7.4
0.0127	0.0037	-0.0015	0.0127	-7.2
0.0127	0.0052	0.0007	0.012	-7.6
0.0127	0.0045	0.0015	0.0105	-7.5
0.0135	-0.003	0.0037	0.0015	-7.7
0.012	-0.0128	0.0052	-0.0075	-7.7
0.0045	-0.012	0.0082	-0.0068	-7.8
0.0007	-0.0083	0.012	-0.0046	-7.7
0.0007	-0.0046	0.0157	0.0045	-7.8
0.0007	0.0007	0.0187	0.009	-7.9
0.0015	-0.0015	0.0225	-0.003	-7.9
-0.0023	-0.0053	0.027	-0.0158	-8
-0.0053	-0.0046	0.0307	-0.0203	-8.1
-0.0083	-0.0023	0.0322	-0.0173	-8.1
-0.0091	-0.0038	0.033	-0.0218	-8.1
-0.0098	-0.0068	0.0345	-0.0293	-8.3
-0.0105	-0.0053	0.0352	-0.0128	-8.2
-0.0128	-0.003	0.033	-0.0015	-8.4
-0.0158	-0.003	0.0307	-0.0068	-8.3
-0.0181	0.0015	0.027	0.0007	-8.6
-0.0165	0.0052	0.0247	0.0052	-8.6
-0.0158	0.0045	0.0217	0.0052	-8.6
-0.0128	0.003	0.018	0.0105	-8.6
-0.0083	0.006	0.015	0.0105	-8.8
-0.0046	0.006	0.0112	0.0112	-8.8
-0.003	0.0045	0.0075	0.0105	-8.9
-0.0053	0.0015	0.0067	0.0082	-9
-0.006	-0.0008	0.006	0.0067	-9
-0.006	-0.0008	0.006	0.003	-9.1
-0.0046	0.0007	0.0067	0.0037	-9.1
-0.0008	0.0015	0.003	0.0075	-9.1
-0.0008	0.0045	0.0015	0.0097	-9.2
0	0.0052	0.0007	0.0127	-9.4
0.0052	0.006	-0.0015	0.018	-9.4
0.0105	0.006	-0.0038	0.0165	-9.5
0.0105	0.006	-0.0075	0.0082	-9.6
0.0097	0.0015	-0.0098	-0.0015	-9.8
0.0112	-0.0046	-0.012	-0.012	-9.8
0.0135	-0.0015	-0.0128	-0.0143	-9.9
0.0195	0.003	-0.0113	-0.0158	-10
0.0247	0.0007	-0.0091	-0.0128	-9.9
0.024	-0.0023	-0.0098	-0.0075	-10
0.0195	0	-0.0105	-0.003	-10.3
0.018	0.0007	-0.0135	0.003	-10.2
0.0142	-0.0008	-0.0165	0.0045	-10.5
0.0105	-0.0015	-0.0188	0.0067	-10.5
0.0142	0	-0.0195	0.0142	-10.5
0.0135	0.0052	-0.0195	0.018	-10.5
0.009	0.0067	-0.0195	0.018	-10.8
0.0037	0.0082	-0.021	0.0127	-10.8
0.003	0.0067	-0.0195	0.0037	-10.9
-0.0015	0.0015	0.0075	-0.0038	-10.9
-0.006	-0.0008	0.0277	-0.0075	-11.1
-0.0091	-0.0068	0.0135	-0.012	-11.1
-0.012	-0.0091	-0.0083	-0.012	-11.3
-0.012	-0.0046	-0.0233	-0.0053	-11.5
-0.012	-0.0023	-0.0195	-0.0008	-11.4
-0.0113	-0.0008	-0.0023	0.0015	-11.6
-0.012	0.0015	0.0277	0.0037	-11.8
-0.0105	0.0015	0.0577	0.0015	-11.8
-0.0083	0.0022	0.0847	0.0015	-11.9
-0.0091	0.003	0.1087	0.0015	-12.1
-0.0083	0.0022	0.1102	0	-12.1
-0.006	0.0007	0.099	0.0015	-12.3
-0.0046	0.0015	0.0892	0.0022	-12.4
-0.0053	0.003	0.0975	0.0007	-12.7
-0.0068	0.0015	0.1387	0.0015	-12.6
-0.0053	0.0015	0.2025	0.0015	-12.8
-0.0023	0.0007	0.237	0.003	-12.8
0	0.0007	0.2205	0.0015	-13.1
-0.0015	0.0022	0.1702	0.0015	-13.2
-0.0008	0.0022	0.1147	0.0022	-13.2
-0.0008	0.0022	0.066	0.006	-13.4
-0.0046	0.0045	-0.0046	0.0082	-13.4
-0.003	0.0045	-0.108	0.0067	-13.9
-0.003	0.0067	-0.2483	0.0082	-13.8
-0.0023	0.0082	-0.3713	0.0052	-14.1
-0.0015	0.003	-0.366	-0.0015	-14.2
-0.0046	-0.0008	-0.3383	-0.0068	-14.4
-0.0038	-0.0038	-0.3518	-0.0098	-14.4
-0.0046	-0.0053	-0.2543	-0.0113	-14.7
-0.0053	-0.0091	-0.153	-0.0158	-14.6
-0.0038	-0.0143	-0.1006	-0.0158	-15
-0.0053	-0.0113	-0.063	-0.0083	-15.1
-0.0046	0.0007	-0.06	0.0045	-15.4
-0.0053	0.0082	-0.0555	0.012	-15.4
-0.006	0.0105	-0.117	0.0097	-15.6
-0.003	0.0067	-0.192	0.0015	-15.7
-0.0053	-0.0015	-0.24	-0.0091	-16
-0.0068	-0.0091	-0.2333	-0.0181	-16
-0.0046	-0.0135	-0.1396	-0.0165	-16.2
-0.0083	-0.0098	-0.0615	-0.0068	-16.4
-0.0083	-0.003	-0.0593	0.0007	-16.5
-0.0091	0.0052	-0.033	0.0075	-16.8
-0.0091	0.009	0.042	0.0105	-16.9
-0.0053	0.0082	0.0727	0.0112	-17.1
0.0007	0.0082	0.1005	0.0127	-17.2
0.006	0.0082	0.12	0.0097	-17.4
0.009	0.0067	0.1365	0.0037	-17.6
0.0097	0.0015	0.15	-0.0008	-18
0.0105	0.0015	0.1545	-0.0038	-17.9
0.0097	0.0007	0.171	-0.0046	-18.3
0.0105	-0.0053	0.1702	-0.0023	-18.5
0.0105	-0.0046	0.1747	0.003	-18.6
0.0105	0	0.1852	0.0075	-18.7
0.0112	-0.0015	0.216	0.0037	-19.1
0.0067	-0.006	0.2542	0.003	-19.1
0.0052	-0.0046	0.2955	0.003	-19.4
0.0037	-0.0015	0.339	0.0022	-19.5
0.0045	0.0007	0.3517	0.0022	-19.9
0.0045	0.0007	0.3255	0.0007	-19.9
0.003	0	0.2782	0.0007	-20.3
0.0045	0.0015	0.2032	0.0007	-20.4
0.0015	0.0007	0.1215	0.0015	-20.7
0	0.0007	0.096	0.0007	-20.8
0	0.0022	0.093	-0.0008	-21.1
0.0007	0.0037	0.0937	0	-21.2
0.0015	0.0067	0.0675	-0.0008	-21.5
0.0015	0.0097	0.048	0.0015	-21.6
0.003	0.012	0.099	0.0015	-21.8
0.0045	0.0105	0.1627	0.0015	-22.1
0.0037	0.0105	0.195	0.0022	-22.2
-0.0015	0.0097	0.147	0.0015	-22.5
-0.0046	0.0075	-0.0203	0.0037	-22.7
-0.0075	0.0097	-0.243	0.0082	-23
-0.0091	0.0067	-0.4058	0.0052	-23
-0.0053	0.0015	-0.5363	0	-23.2
-0.003	-0.0053	-0.6405	-0.0075	-23.4
-0.0008	-0.012	-0.6975	-0.0158	-23.7
0.0007	-0.0173	-0.7163	-0.0181	-23.8
-0.0008	-0.021	-0.6841	-0.0165	-24
0.0015	-0.0165	-0.642	-0.012	-24.3
-0.0015	-0.012	-0.5895	-0.0075	-24.3
-0.0023	-0.0068	-0.5483	-0.0053	-24.5
-0.003	-0.0023	-0.498	-0.0008	-24.8
-0.003	0.0015	-0.4478	0.003	-24.9
-0.0015	0.0082	-0.426	0.0067	-25.1
-0.0015	0.0075	-0.3878	0.006	-25.4
-0.003	0	-0.3391	0.0022	-25.3
0.0045	-0.0023	-0.2858	0.0037	-25.7
0.0127	0.0037	-0.228	0.0052	-25.8
0.012	0.0052	-0.1688	0.0067	-26
0.0075	0.0067	-0.096	0.0082	-26
0.003	0.006	-0.0188	0.0037	-26.3
0.0015	-0.0015	0.051	-0.0046	-26.2
-0.0008	-0.006	0.105	-0.0105	-26.6
0.0007	-0.0135	0.1365	-0.0158	-26.6
0.0022	-0.015	0.1665	-0.0143	-27
0.0007	-0.0091	0.1927	-0.0068	-26.8
0.003	-0.0068	0.2062	-0.0015	-27.1
0.0045	-0.003	0.2175	0.0007	-27.2
0.009	-0.0015	0.2265	0.0022	-27.5
0.0105	-0.0008	0.2362	0.0045	-27.8
0.0135	0.0007	0.246	0.0037	-27.8
0.0142	0.0007	0.2535	0.003	-28
0.0097	0.0045	0.258	0.0052	-27.9
0.0082	0.0067	0.2655	0.0052	-28.3
0.0052	0.0082	0.273	0.0075	-28.3
0.006	0.0112	0.2782	0.0075	-28.5
0.009	0.012	0.2737	0.0052	-28.6
0.006	0.0075	0.2542	0.003	-28.9
0.006	0.003	0.2385	0.0007	-28.9
0.0075	0.0052	0.2385	0.0007	-29.2
0.009	0.0015	0.2392	0	-29.2
0.009	-0.0008	0.2362	0.0007	-29.7
0.009	-0.0008	0.2302	0.0015	-29.7
0.0105	-0.0046	0.219	-0.0008	-30
0.0112	-0.006	0.207	0.0007	-30
0.0127	-0.0068	0.1912	-0.0008	-30.2
0.0165	-0.0068	0.171	0.0007	-30.4
0.0165	-0.0053	0.15	0.0015	-30.6
0.0157	-0.0068	0.126	0.0015	-30.6
0.009	-0.0075	0.105	0	-30.8
0.0082	-0.0068	0.0847	-0.0008	-31
0.015	-0.0075	0.0667	-0.0008	-31.4
0.0157	-0.0068	0.0517	-0.0008	-31.5
0.012	-0.006	0.0382	-0.0015	-31.7
0.009	-0.0075	0.027	-0.003	-32
0.0045	-0.006	0.0157	-0.0038	-32.2
0.0022	-0.0075	0.006	-0.0046	-32.3
0.0007	-0.0068	-0.0008	-0.0015	-32.5
-0.0008	-0.0038	-0.0053	-0.0015	-32.8
-0.0008	-0.0023	-0.0105	-0.0008	-33.1
0.0015	-0.0015	-0.0165	0	-33
0.0015	-0.0008	-0.0256	-0.0008	-33.4
0.0007	-0.0008	-0.0315	-0.0015	-33.7
-0.0038	0.0015	-0.0353	-0.0008	-33.6
-0.0068	0.0022	-0.039	-0.0015	-34.2
-0.0105	0.0022	-0.0405	-0.0015	-34
-0.0135	0.003	-0.0428	-0.0008	-34.3
-0.0203	0.0015	-0.042	-0.0008	-34.3
-0.0256	0.0015	-0.0383	0.0015	-34.7
-0.0233	0.0015	-0.0346	0.0015	-34.7
-0.0256	0.0015	-0.0315	0	-35.1
-0.0263	0.0007	-0.027	0	-35.2
-0.024	0	-0.0203	0	-35.5
-0.024	0	-0.012	-0.0008	-35.6
-0.0195	-0.0015	-0.003	-0.0015	-35.8
-0.0158	-0.0015	0.0045	-0.0008	-35.9
-0.0143	-0.0015	0.009	-0.0008	-36.1
-0.0143	-0.0038	0.0105	-0.0023	-36.3
-0.0181	-0.0046	0.0142	-0.0023	-36.4
-0.021	-0.0053	0.018	-0.0008	-36.7
-0.0233	-0.006	0.0195	0	-36.7
-0.0233	-0.006	0.012	0.0007	-37
-0.0203	-0.0053	0.0067	0.0015	-37
-0.0181	-0.0068	0.003	0.0015	-37.4
-0.0181	-0.0046	-0.003	0.0015	-37.4
-0.0181	-0.0038	-0.0068	0.0015	-37.8
-0.0113	-0.0046	-0.0143	0.0015	-37.8
-0.0053	-0.0046	-0.0181	0.0007	-38.2
-0.0068	-0.003	-0.0225	-0.0008	-38.2
-0.0083	-0.0015	-0.0248	-0.0008	-38.6
-0.0075	-0.0023	-0.0248	-0.003	-38.6
-0.003	-0.0008	-0.0233	-0.0015	-38.7
-0.0023	0.0015	-0.0181	-0.0015	-39
0.0007	0.0007	-0.0128	-0.0015	-39.2
0.0045	0.0015	-0.0046	-0.0015	-39.3
0.0007	0.0015	0.0052	-0.0023	-39.5
-0.0023	0.0022	0.012	-0.0015	-39.6
-0.0015	0.0045	0.0157	0.0007	-39.7
-0.0053	0.0067	0.018	0.0015	-39.9
-0.0046	0.0082	0.0217	0.0022	-40.2
0.003	0.009	0.0232	0.0015	-40.2
0.0082	0.0097	0.0277	0.0015	-40.5
0.0142	0.0097	0.0337	0.0022	-40.5
0.0195	0.0097	0.0382	0.0022	-40.7
0.0195	0.0097	0.042	0.0022	-41
0.018	0.009	0.0427	0.0022	-41
0.012	0.0075	0.042	0.0022	-41.1
0.0067	0.0082	0.042	0.0022	-41.3
0.0007	0.0082	0.0427	0.0015	-41.3
-0.0143	0.006	0.0412	0.0015	-41.6
-0.0256	0.0067	0.039	0.0007	-41.7
-0.033	0.009	0.0322	0.003	-41.8
-0.0368	0.0105	0.0292	0.0037	-42.1
-0.0383	0.0105	0.0277	0.0022	-42
-0.039	0.009	0.021	0.0015	-42.3
-0.0346	0.009	0.0157	0.003	-42.5
-0.0308	0.0105	0.0105	0.0045	-42.6
-0.0256	0.009	0.0045	0.0015	-42.6
-0.0158	0.0067	0.0015	0.0007	-42.9
-0.0113	0.0075	0	0.0015	-43
-0.0098	0.0067	-0.0046	0.0015	-43.2
-0.0083	0.0067	-0.012	0.0015	-43.2
-0.0098	0.0082	-0.0203	0.0007	-43.5
-0.0105	0.006	-0.0263	0.0022	-43.6
-0.0128	0.0052	-0.0338	0.0015	-43.6
-0.0113	0.006	-0.0413	0.0015	-43.8
-0.0053	0.0052	-0.0495	0.0015	-43.9
-0.0015	0.0045	-0.0555	0	-44
0.003	0.0015	-0.0578	-0.0008	-44.2
0.006	0.0007	-0.0638	0.0007	-44.2
0.0105	-0.0008	-0.0683	0.0015	-44.4
0.0142	-0.0008	-0.0728	0.0015	-44.3
0.0172	-0.0015	-0.0803	0.0022	-44.6
0.0187	-0.0075	-0.0856	0.0045	-44.6
0.0187	-0.0083	-0.0885	0.0052	-44.7
0.0217	-0.0053	-0.0908	0.0045	-44.7
0.024	-0.0053	-0.0938	0.0015	-44.9
0.0255	-0.0046	-0.096	0.0022	-44.9
0.0255	-0.0046	-0.0983	0.0015	-45.1
0.0262	-0.0053	-0.1006	0	-45.1
0.027	-0.0046	-0.099	0.0007	-45.3
0.027	-0.0053	-0.0975	-0.003	-45.5
0.0255	-0.006	-0.0968	-0.0105	-45.4
0.0232	-0.0075	-0.096	-0.0165	-45.8
0.0202	-0.006	-0.0953	-0.0105	-45.5
0.0172	-0.0046	-0.0945	-0.003	-45.9
0.015	-0.0053	-0.0938	-0.003	-45.6
0.0127	-0.0053	-0.09	-0.0015	-46
0.0105	-0.0053	-0.0878	-0.0008	-45.7
0.0142	-0.0053	-0.0818	0.0015	-46.1
0.0157	-0.003	-0.0743	0.0067	-46
0.018	-0.0015	-0.0653	0.0067	-46.3
0.0217	0	-0.0578	0.0082	-46.1
0.0217	0.0015	-0.0518	0.0045	-46.3
0.0187	0.003	-0.042	-0.0015	-46.3
0.015	0.0022	-0.0315	-0.0046	-46.3
0.0195	0.003	-0.0233	-0.0038	-46.3
0.018	0.003	-0.0135	-0.0083	-46.3
0.0142	0.0015	-0.0046	-0.0105	-46.4
0.0157	-0.0038	0.0075	-0.0091	-46.4
0.0142	-0.0143	0.0165	-0.0023	-46.6
0.0112	-0.0143	0.027	0.009	-46.3
0.0067	0.0015	0.0367	0.0045	-46.5
0.0052	0.0105	0.0457	0.0045	-46.4
0.0045	0.0172	0.0525	0.009	-46.4
0.0015	0.0217	0.0615	0.0037	-46.3
0.003	0.0135	0.069	0.0045	-46.6
0.0045	0.0052	0.0727	-0.0008	-46.4
0.0052	0.0007	0.0765	-0.0046	-46.6
0.0082	0.0007	0.0802	-0.0046	-46.4
0.009	-0.024	0.084	-0.0091	-46.6
0.006	-0.0308	0.0855	-0.0053	-46.5
0.0052	-0.006	0.0877	0	-46.5
0.0082	-0.0068	0.0907	0.0165	-46.4
0.006	0.012	0.093	0.0352	-46.6
0.0007	0.015	0.0952	0.0367	-46.5
-0.006	0.0045	0.093	0.0337	-46.8
-0.0068	0.0097	0.0922	0.027	-46.6
-0.006	0.0097	0.0937	0.0195	-46.7
-0.006	0.003	0.0967	0.0127	-46.6
-0.0046	-0.0218	0.0982	0.009	-46.7
-0.003	-0.0068	0.099	-0.0008	-46.6
0	0.0232	0.0967	-0.0346	-46.8
0.0015	0.03	0.0937	-0.0593	-46.8
-0.003	0.0262	0.0915	-0.0608	-46.7
-0.0023	0.009	0.0892	-0.0495	-46.6
-0.0023	-0.0225	0.0877	-0.03	-46.6
-0.0023	-0.0578	0.0862	-0.0105	-46.5
0.003	-0.0511	0.0825	0.0037	-46.6
0.0022	-0.0278	0.075	0.0007	-46.6
0	-0.0181	0.0675	0.0015	-46.5
-0.003	-0.003	0.0637	0.0112	-46.8
-0.0046	-0.003	0.063	0.0225	-46.5
-0.0046	0.0007	0.0577	0.0435	-46.6
-0.003	0.0127	0.0502	0.0517	-46.3
-0.003	0.0142	0.0367	0.0562	-46.6
-0.0046	0.0232	0.0232	0.048	-46.3
-0.003	0.0285	0.0105	0.024	-46.5
-0.0091	0.0285	-0.0008	0.0202	-46.3
-0.0128	0.024	-0.0083	0.0097	-46.6
-0.0128	0.0142	-0.015	-0.021	-46.3
-0.015	-0.0135	-0.0195	-0.0668	-46.4
-0.0143	-0.0585	-0.024	-0.1006	-46.4
-0.0165	-0.0503	-0.0263	-0.0938	-46.4
-0.0173	-0.0075	-0.0263	-0.0525	-46.2
-0.0181	-0.0015	-0.0315	-0.012	-46.2
-0.021	0.0082	-0.0383	0.0007	-46.2
-0.0195	0.015	-0.0428	0.012	-46.1
-0.0188	0.012	-0.0473	0.0135	-46.1
-0.0181	0.015	-0.0503	0.012	-46.1
-0.0173	0.0097	-0.0555	0.0127	-45.9
-0.0173	0.0127	-0.0593	0.006	-46
-0.0181	0.0097	-0.0615	0.0112	-45.7
-0.0195	0.0105	-0.0638	0.0097	-45.7
-0.0165	0.0097	-0.0645	0.0097	-45.6
-0.0165	0.0082	-0.066	0.0075	-45.7
-0.0128	0.0105	-0.0668	0.006	-45.6
-0.012	0.0067	-0.0668	0.0082	-45.6
-0.0105	0.0067	-0.0653	0.0067	-45.5
-0.0091	0.0037	-0.0645	0.0082	-45.5
-0.0083	0.0037	-0.0638	0.0045	-45.2
-0.0068	0.003	-0.0653	0.0052	-45.3
-0.0105	0.0015	-0.0638	0.0045	-45.4
-0.0105	0	-0.0623	0.0045	-45.1
-0.0098	-0.0008	-0.0615	0.0022	-45.2
-0.0105	-0.0008	-0.0585	0.0007	-44.9
-0.0091	-0.0008	-0.054	0.0022	-45
-0.012	-0.0008	-0.0503	0.0015	-44.9
-0.0105	-0.0015	-0.0443	0.0015	-44.9
-0.0098	-0.0008	-0.0405	0.0007	-44.7
-0.0083	-0.0008	-0.0353	0.0007	-44.6
-0.0068	0.0007	-0.0293	0.0015	-44.5
-0.0046	0.0007	-0.0256	0.0015	-44.6
-0.0053	0	-0.021	0.0015	-44.3
-0.006	-0.003	-0.0158	0.0015	-44.4
-0.003	-0.0015	-0.0143	0.0015	-44.3
0.0007	-0.0008	-0.012	0.0015	-44.1
0.0037	-0.003	-0.0083	0.0007	-44.1
0.0037	-0.0015	-0.0046	-0.0008	-43.8
0.0045	-0.003	-0.0015	0.0007	-43.8
0.0037	-0.0023	0.0007	0.0007	-43.7
0.0022	-0.0015	0.0015	0.0007	-43.7
0.0037	-0.0015	0.0015	0.0015	-43.5
0.003	0	0.003	0.0007	-43.7
0.0045	-0.0015	0.003	0.0007	-43.4
0.0037	-0.0015	0.0037	0	-43.5
0.0045	-0.0008	0.003	0	-43.2
0.0067	0	0.0022	-0.0008	-43.4
0.006	-0.0008	0.0045	-0.0023	-43.1
0.0082	-0.0008	0.0052	-0.0008	-43.2
0.0112	-0.0008	0.0075	-0.0008	-42.9
0.0127	-0.0008	0.0052	0.0007	-42.9
0.0127	0.0007	0.0075	0.0007	-42.8
0.0157	-0.0008	0.0082	-0.0015	-42.6
0.0157	0.0015	0.009	0.0007	-42.6
0.015	0.003	0.0082	0.0007	-42.4
0.018	0.0007	0.0067	-0.0015	-42.3
0.0187	0.0015	0.0067	-0.0038	-42.3
0.018	0.0067	0.0045	-0.0075	-42.2
0.0165	0.0232	0.0022	-0.0046	-41.9
0.015	0.0397	0	0.003	-41.9
0.0135	0.0457	0	0.0082	-41.9
0.0127	0.0502	-0.0015	0.0142	-41.6
0.0112	0.057	-0.006	0.009	-41.6
0.0082	0.0292	-0.0083	-0.0023	-41.6
0.003	-0.0278	-0.0105	-0.0053	-41.3
0	-0.06	-0.0128	-0.0091	-41.3
0.0015	-0.0765	-0.012	-0.015	-41.1
0.0067	-0.0758	-0.0128	-0.0233	-40.8
0.0067	-0.111	-0.0158	-0.027	-40.7
0.0082	-0.1133	-0.0158	-0.0158	-40.7
0.0165	-0.021	-0.0195	0.0037	-40.3
0.0202	0.0007	-0.0233	0.0187	-40.5
0.024	0.0165	-0.0233	0.0277	-40
0.024	0.033	-0.024	0.0285	-40.1
0.0172	0.0217	-0.0233	0.027	-39.7
0.018	0.0142	-0.0218	0.0217	-39.8
0.0165	-0.0046	-0.0203	0.0127	-39.3
0.0157	0.012	-0.015	0.0075	-39.4
0.0187	0.0052	-0.0128	-0.0091	-39.1
0.0172	0.0067	-0.0105	-0.0256	-39.1
0.0165	0.009	-0.0068	-0.0338	-38.6
0.0127	-0.003	-0.006	-0.039	-38.5
0.0082	0.0045	-0.006	-0.039	-38.3
0.006	0.0082	-0.006	-0.027	-38.2
0.0007	0.0105	-0.006	-0.0046	-38
-0.003	0.012	-0.0046	0.0045	-37.7
-0.0091	0.0172	-0.006	0.0082	-37.7
-0.0075	0.039	-0.0068	0.0105	-37.3
-0.0098	0.0727	-0.0091	0.0097	-37.3
-0.0128	0.084	-0.012	0.0105	-36.9
-0.0105	0.0735	-0.0083	0.0052	-36.8
-0.012	0.063	-0.0023	0.003	-36.5
-0.012	0.012	0.003	-0.003	-36.3
-0.0158	-0.1073	0.0067	-0.0113	-36
-0.0143	-0.1665	0.0135	-0.0053	-36
-0.0143	-0.084	0.0217	0.0112	-35.6
-0.0188	-0.006	0.0262	0.0195	-35.4
-0.0181	-0.0008	0.027	0.0165	-35.1
-0.0165	0.0082	0.0255	0.015	-35
-0.0158	0.0052	0.027	0.0082	-34.7
-0.0188	-0.0098	0.0315	0.0015	-34.4
-0.0165	-0.006	0.0345	0.0015	-34.1
-0.0128	0.0052	0.0352	0.003	-34.1
-0.0105	0.0082	0.0367	0.0075	-33.7
-0.012	0.0097	0.0367	0.0007	-33.6
-0.0181	0.0135	0.0382	0.0015	-33.1
-0.0256	0.0097	0.0382	0.0112	-32.9
-0.027	0.009	0.0367	0.0037	-32.6
-0.0143	0.0082	0.033	0	-32.4
-0.0053	0.0067	0.0292	0.0052	-32.1
-0.003	0.0082	0.0262	0.0037	-32
-0.003	0.0075	0.0225	0.003	-31.6
-0.0053	0.0097	0.0165	-0.0023	-31.5
-0.0068	0.0105	0.0135	-0.0015	-31.1
-0.0053	0.012	0.012	0.0015	-30.8
0	0.0105	0.009	0.0007	-30.6
0.0015	0.0067	0.0067	-0.003	-30.2
0.003	0.0052	0.0045	-0.012	-30.1
0.0015	0.0067	0.0015	-0.0083	-29.7
0.0015	0.0082	-0.0015	0.0045	-29.7
0.003	0.0052	-0.0053	0.003	-29.3
0.0067	0.003	-0.0068	0.006	-29.3
0.0067	0.0007	-0.0083	0.012	-28.7
0.0075	-0.0015	-0.0068	0.0165	-28.7
0.0082	0.0007	-0.0083	0.0202	-28.2
0.0052	0.018	-0.0083	0.012	-28.2
0.0052	0.0322	-0.0068	0.0105	-27.7
0.0045	0.0337	-0.0068	-0.0046	-27.7
0.0007	0.03	-0.0091	-0.0248	-27.2
-0.0008	0.015	-0.0068	-0.0218	-27.1
0	-0.0263	-0.0046	-0.0278	-26.7
0.0022	-0.0765	-0.0008	-0.0375	-26.6
0	-0.0713	0.0052	-0.0413	-26.4
-0.0046	-0.0473	0.0067	-0.015	-26
-0.0158	-0.0361	0.009	0.0307	-25.8
-0.0158	-0.0008	0.0082	0.039	-25.7
0.0045	0.0052	0.0045	0.0382	-25.3
0.009	0.0105	0.003	0.0315	-25.1
0.0015	0.0195	0.003	0.0157	-24.8
0.0097	0.012	0.0015	0.012	-24.5
0.0142	0.0157	0.0045	0.009	-24.5
0.0097	0.0067	0.0045	0.0097	-24
0.0052	0.0022	0.0075	-0.0195	-23.9
0.0052	-0.0105	0.0105	-0.0638	-23.5
0.0015	0.0015	0.012	-0.0525	-23.4
-0.0008	0.0255	0.0135	-0.0233	-23.2
0.0007	0.0232	0.009	-0.0203	-23
-0.0008	0.018	0.0067	0.0015	-22.8
0.0007	-0.0083	0.006	0.0165	-22.6
0.0007	-0.0443	0.003	0.0067	-22.3
-0.0015	-0.0533	0.0022	0.0105	-22.1
-0.0008	-0.0278	0.0022	0.003	-21.9
-0.0023	-0.0068	0.003	0.0007	-21.9
-0.0015	0.0015	0.0015	0.0015	-21.4
-0.0008	0.0037	-0.0008	-0.0053	-21.3
-0.0053	0.0052	0.0007	-0.0098	-20.9
-0.0075	0.0067	0.0007	-0.0128	-20.8
-0.0091	0.012	0.0015	-0.003	-20.6
-0.0091	0.0217	-0.0015	0.0045	-20.4
-0.0105	0.0315	-0.0225	0.009	-20.2
-0.0098	0.0315	-0.0278	0.0127	-20.1
-0.0091	0.024	-0.0098	0.0157	-19.7
-0.0083	0.0165	0.009	0.0217	-19.5
-0.0083	0.003	0.0217	0.0127	-19.3
-0.0053	-0.0188	0.0247	0.006	-18.8
-0.006	-0.0346	0.0247	0.0007	-18.9
-0.0143	-0.0338	0.0292	-0.0053	-18.5
-0.0158	-0.0195	0.0292	-0.0105	-18.5
-0.0158	-0.0105	0.0277	-0.0195	-18
-0.0165	-0.0083	0.0255	-0.0203	-17.9
-0.0128	-0.0023	0.0187	-0.0105	-17.7
-0.0083	0.0007	0.0105	-0.0038	-17.5
-0.003	0.003	0.0037	-0.0046	-17.3
-0.0008	0.0067	-0.003	0.0015	-17.2
0.0052	0.009	-0.0068	0.0052	-16.9
0.012	0.0105	-0.0068	0.009	-16.8
0.012	0.0127	-0.0046	0.0142	-16.3
0.012	0.0202	-0.0008	0.0195	-16.3
0.012	0.036	0	0.018	-15.9
0.012	0.0577	0.0007	0.0142	-15.9
0.0157	0.0652	-0.0008	0.0157	-15.7
0.0165	0.0577	-0.0046	0.0142	-15.6
0.0172	0.0412	-0.0046	0.0097	-15.2
0.0202	0.0172	-0.0023	0.0007	-15.2
0.0202	-0.0256	-0.0023	0.003	-14.9
0.021	-0.0863	0.0007	0.0075	-14.8
0.0157	-0.0878	0.0075	0.0052	-14.5
0.0112	-0.0525	0.0105	0.0022	-14.4
0.0075	-0.0405	0	-0.0046	-14.2
-0.0008	-0.0128	0.0007	-0.0143	-14.2
0	-0.0091	0.003	-0.015	-14
0.0007	-0.0158	-0.0023	-0.0165	-13.8
0.0067	-0.0105	0.0045	-0.0353	-13.6
0.0165	-0.0218	0.0097	-0.0473	-13.4
0.021	-0.0218	0.0165	-0.0353	-13.2
0.0232	-0.0218	0.0202	-0.0256	-13.1
0.0247	-0.012	0.021	-0.0233	-12.9
0.0195	-0.0053	0.0202	-0.0158	-12.6
0.0135	-0.0135	0.018	-0.0068	-12.8
0.009	-0.0143	0.0157	0.0015	-12.2
0.0007	-0.0023	0.012	0.0097	-12.2
-0.003	0.0135	0.012	0.0142	-11.9
-0.0053	0.0217	0.009	0.0195	-11.9
-0.0113	0.0285	0.0045	0.0262	-11.7
-0.0128	0.0367	0.0015	0.0292	-11.7
-0.015	0.048	-0.0053	0.0292	-11.3
-0.0181	0.0495	-0.0105	0.0277	-11.3
-0.0188	0.0397	-0.0135	0.021	-11
-0.0158	0.0255	-0.0165	0.021	-11
-0.0158	0.0165	-0.0195	0.0225	-10.8
-0.0158	0.009	-0.0181	0.0165	-10.4
-0.0128	-0.0083	-0.0143	0.006	-10.4
-0.0053	-0.0195	-0.0083	0	-10
0.0022	-0.012	-0.003	-0.0068	-10.2
0.0067	-0.0015	-0.0015	-0.0158	-9.8
0.0157	-0.0068	0	-0.0248	-9.6
0.027	-0.0195	0.0007	-0.03	-9.3
0.0367	-0.0256	0.0015	-0.0278	-9.4
0.0352	-0.0293	0.0007	-0.0233	-9
0.0307	-0.0323	-0.0046	-0.0195	-9
0.0262	-0.0383	-0.0038	-0.0143	-8.6
0.021	-0.0368	-0.003	-0.0091	-8.7
0.0157	-0.0165	-0.0075	-0.003	-8.4
0.012	-0.0046	-0.0083	0	-8.3
0.012	0.0015	-0.0091	0.0045	-7.8
0.0112	0.0165	-0.0113	0.006	-7.9
0.0082	0.0172	-0.0158	0.0022	-7.6
0.0075	0.0142	-0.0225	-0.0068	-7.5
0.0067	0.012	-0.0256	-0.0173	-7.3
0.0082	0.0075	-0.0293	-0.0075	-7
0.009	0.0135	-0.0315	0.009	-6.8
0.0097	0.003	-0.0315	0.0142	-6.6
0.0082	0.0052	-0.0315	0.0195	-6.5
0.0067	0.0322	-0.0338	0.0202	-6.2
0.006	0.0352	-0.0346	0.0165	-6.2
0.0052	0.0127	-0.033	0.0142	-5.9
0.0037	-0.0091	-0.0308	0.0112	-5.7
0.0037	-0.0083	-0.0285	0.0127	-5.5
0.0015	-0.015	-0.03	0.0097	-5.4
-0.0015	-0.012	-0.0308	0.0052	-5.2
-0.0053	0.0067	-0.033	0.0015	-5
-0.0105	0.0105	-0.0353	0	-4.8
-0.0105	0.0195	-0.0346	-0.003	-4.6
-0.0105	0.0202	-0.033	-0.0053	-4.4
-0.0128	0.0232	-0.03	0	-4.5
-0.0128	0.0142	-0.027	0.003	-4.1
-0.0158	0.0067	-0.0256	0.0052	-4.1
-0.0165	0.018	-0.0256	0.006	-3.6
-0.0203	0.015	-0.024	0.003	-3.7
-0.0218	0.0195	-0.024	0.003	-3.3
-0.0233	0.0292	-0.0256	0.0045	-3.4
-0.0248	0.018	-0.0225	0.0045	-3
-0.027	0	-0.0173	0.0052	-3.1
-0.0285	-0.0015	-0.0105	0.0067	-2.7
-0.0278	-0.024	-0.0053	0.0015	-2.7
-0.027	-0.0465	0.0052	0.0007	-2.3
-0.0285	-0.0346	0.0232	-0.0046	-2.3
-0.0315	-0.0315	0.0427	-0.0128	-2.1
-0.0293	-0.0098	0.0622	-0.0158	-1.9
-0.0285	0.0195	0.0817	-0.0143	-1.8
-0.0315	0.0135	0.0982	-0.0075	-1.7
-0.0338	-0.0068	0.1027	0.0022	-1.6
-0.0368	-0.0068	0.0892	0.0112	-1.3
-0.0346	-0.0143	0.0532	0.0142	-1.4
-0.0293	-0.0091	0.0067	0.0157	-1
-0.0233	0.054	-0.0368	0.0157	-1.1
-0.0165	0.066	-0.093	0.0097	-0.7
-0.0143	0.048	-0.1898	0.0045	-0.9
-0.0091	0.0315	-0.3555	0	-0.5
-0.0046	-0.0225	-0.5498	-0.0083	-0.8
-0.0008	-0.057	-0.6308	-0.0091	-0.2
0.006	-0.0773	-0.588	-0.0068	-0.5
0.0142	-0.0713	-0.51	-0.0091	0
0.0195	-0.0405	-0.4313	-0.0105	-0.2
0.018	-0.0098	-0.3608	-0.0091	0
0.0127	0.0127	-0.2618	-0.0083	0
0.0105	0.0172	-0.1223	-0.0023	0.1
0.0112	0.0225	0.0412	0.0015	0.4
0.0105	0.0255	0.1935	-0.003	0.2
0.009	0.0337	0.3382	-0.006	0.4
0.0082	0.0532	0.4867	-0.0091	0.3
0.006	0.0592	0.627	0.0007	0.6
0.0045	0.0435	0.7185	0.0217	0.4
0.0007	0.018	0.705	0.039	0.7
-0.0008	0.0052	0.6277	0.0495	0.7
-0.0023	0.0075	0.5422	0.0367	0.7
-0.0023	-0.0143	0.45	0.0157	0.7
0.003	-0.0458	0.3202	0.0015	0.9
0.0067	-0.0346	0.1845	-0.0075	0.7
0.0075	-0.0068	0.0682	-0.0015	0.9
0.012	-0.0091	-0.0195	0.003	0.7
0.0105	-0.0285	-0.0968	-0.0128	0.9
0.003	-0.027	-0.1508	-0.033	0.9
-0.0015	-0.012	-0.1426	-0.0533	0.9
-0.003	-0.0181	-0.1065	-0.0683	0.9
0.0045	-0.024	-0.0608	-0.0585	0.9
0.012	-0.0308	-0.0203	-0.054	0.9
0.018	-0.0353	0.0187	-0.0361	0.9
0.0157	-0.012	0.0465	-0.0053	1
0.009	-0.015	0.066	-0.006	1
0.0105	-0.0495	0.1042	-0.0098	1
0.0082	-0.0533	0.1627	-0.0075	0.9
0.0015	-0.057	0.2062	-0.003	0.9
-0.0053	-0.0653	0.1875	0.0022	0.7
-0.0128	-0.0563	0.2032	-0.0038	0.8
-0.015	-0.0203	0.294	0.0105	0.9
-0.0113	0.015	0.3577	0.051	0.7
-0.0098	0.0142	0.3667	0.0727	0.9
-0.0105	0.0217	0.3255	0.057	0.8
-0.0068	0.0247	0.2595	0.0397	0.7
-0.0038	0.0457	0.1635	0.0375	0.7
-0.0008	0.0727	0.0465	0.018	0.6
0.0045	0.0915	-0.0533	-0.0233	0.6
0.009	0.105	-0.1358	-0.0585	0.5
0.0135	0.0922	-0.1988	-0.0518	0.6
0.0142	0.0862	-0.249	-0.0053	0.5
0.0172	0.063	-0.2655	0.0307	0.4
0.021	0.0165	-0.258	0.03	0.5
0.024	-0.024	-0.231	0.0045	0.4
0.0247	-0.0518	-0.1935	-0.0285	0.4
0.024	-0.0765	-0.1605	-0.054	0.4
0.0232	-0.0488	-0.1335	-0.0691	0.4
0.0195	-0.0083	-0.117	-0.0683	0.4
0.0187	-0.0165	-0.0983	-0.0346	0.4
0.0202	0.0045	-0.0848	-0.0008	0.2
0.0202	-0.0143	-0.06	0.012	0.3
0.0232	-0.012	-0.0233	0.0217	0.3
0.024	0.0052	0.009	0.0292	0.3
0.0232	-0.0308	0.0277	0.0382	0.3
0.0217	-0.0256	0.039	0.048	0.3
0.0202	-0.0143	0.0465	0.0607	0.1
0.0187	-0.0068	0.0412	0.0592	0.4
0.0165	0.015	0.0397	0.0555	0.1
0.0157	0.0502	0.0382	0.051	0.2
0.0195	0.0202	0.0345	0.0277	0
0.0232	-0.027	0.027	0.0127	0.1
0.024	-0.021	0.018	0	0
0.0232	-0.0256	0.0105	-0.0181	0.2
0.0172	-0.0181	-0.0091	-0.0368	0.1
0.0127	-0.0105	-0.0315	-0.0533	0.2
0.009	0	-0.0488	-0.0615	0.2
0.003	0.0202	-0.0653	-0.0465	0.1
-0.0083	0.0397	-0.0788	-0.0165	0.2
-0.0135	0.0787	-0.0915	0.0037	0.1
-0.0195	0.09	-0.1035	0.012	0.3
-0.0278	0.063	-0.1073	0.012	0.1
-0.0315	0.0525	-0.1088	0.0082	0.3
-0.0353	0.0202	-0.1043	0.0052	0.2
-0.0353	-0.0473	-0.0975	0	0.4
-0.0375	-0.1178	-0.0938	-0.0015	0.3
-0.0405	-0.0975	-0.093	0.0015	0.4
-0.045	-0.0068	-0.0915	0.0015	0.2
-0.0488	0.0045	-0.0893	-0.0015	0.3
-0.0465	0.0315	-0.09	0.0007	0.3
-0.0488	0.0727	-0.0945	0.0007	0.4
-0.0488	0.0742	-0.1013	0.0015	0.3
-0.0458	0.0555	-0.1118	-0.0008	0.4
-0.039	0.0292	-0.1313	0.0007	0.3
-0.0293	0.0015	-0.1575	-0.0023	0.4
-0.0225	-0.0668	-0.1815	-0.0105	0.1
-0.012	-0.1365	-0.2055	-0.0225	0.5
-0.0015	-0.162	-0.2318	-0.0285	0
0.009	-0.1163	-0.2573	-0.015	0.3
0.0172	-0.0518	-0.2633	-0.0091	0.2
0.0202	-0.0143	-0.2678	-0.0023	0.4
0.0255	0.0097	-0.2761	0.0082	0.2
0.0322	0.0172	-0.2761	0.003	0.5
0.0352	0.0352	-0.2708	0.0067	0.3
0.0352	0.051	-0.2498	0.009	0.4
0.0352	0.057	-0.2123	0.0045	0.4
0.033	0.0615	-0.1665	0.0037	0.4
0.0262	0.0435	-0.1298	0.0022	0.4
0.0232	0.009	-0.09	-0.0046	0.2
0.0202	-0.0353	-0.0413	-0.0075	0.4
0.0112	-0.0398	0.0082	0.0007	0.4
0.0007	0.0217	0.0502	0.0165	0.7
-0.0083	0.105	0.0802	0.027	0.4
-0.0113	0.135	0.1065	0.0315	0.7
-0.012	0.1162	0.1297	0.0322	0.4
-0.0181	0.1042	0.1455	0.0217	0.7
-0.024	0.042	0.159	0.0142	0.4
-0.0256	-0.0856	0.1762	0.0127	0.7
-0.027	-0.2145	0.186	0.0015	0.4
-0.0256	-0.2168	0.1875	-0.012	0.7
-0.024	-0.1006	0.1897	-0.0338	0.4
-0.0203	-0.0608	0.1897	-0.0436	0.4
-0.0203	-0.048	0.1897	-0.0158	0.4
-0.0233	-0.0158	0.1897	0.0127	0.4
-0.027	0.027	0.195	0.024	0.5
-0.024	0.0795	0.2047	0.021	0.4
-0.0218	0.0712	0.21	-0.0038	0.3
-0.0278	0.0622	0.21	-0.0143	0.3
-0.03	0.0577	0.2107	-0.0105	0.1
-0.0308	0.0472	0.2062	-0.0188	0.1
-0.027	0.0285	0.2032	-0.0346	0
-0.0233	0.0105	0.2032	-0.0436	-0.2
-0.021	0.006	0.1965	-0.039	0.1
-0.0203	0.0067	0.1912	-0.0173	-0.2
-0.0173	0.0105	0.183	-0.0038	-0.2
-0.0128	-0.0008	0.177	0	-0.3
-0.0053	0.0082	0.1762	0.0105	-0.4
-0.0008	0.018	0.1672	0.0105	-0.4
0.0015	-0.0075	0.1575	0.003	-0.5
0.0075	-0.0503	0.1447	-0.0015	-0.6
0.0082	-0.045	0.1252	-0.0046	-0.7
0.0127	0.0142	0.1005	0	-0.8
0.018	0.057	0.0742	-0.0038	-0.7
0.0195	0.1027	0.0465	-0.0015	-0.8
0.018	0.1215	0.018	0.0052	-0.8
0.0157	0.078	-0.0015	0.0052	-0.9
0.0142	0.0015	-0.0158	0.0082	-1.1
0.0105	-0.1328	-0.0218	0.0082	-1
0.0082	-0.2573	-0.027	0.0067	-1.1
0.006	-0.2715	-0.027	0.0217	-1.3
0.003	-0.1028	-0.0315	0.0337	-1.3
0.003	0.024	-0.048	0.024	-1.4
0.003	0.0075	-0.0713	0.0142	-1.3
0.0067	0.0397	-0.099	0	-1.4
0.0052	0.0262	-0.1283	-0.0083	-1.4
0.0045	0.0465	-0.1613	-0.0143	-1.5
0.0037	0.099	-0.1913	-0.024	-1.6
0.0052	0.1162	-0.2085	-0.0218	-1.4
0.0052	0.0892	-0.2183	-0.0218	-1.7
0.0037	0.0255	-0.222	-0.0128	-1.6
0.0082	-0.0165	-0.2198	0.006	-1.7
0.0097	-0.0721	-0.2093	0.0157	-1.5
0.0127	-0.0923	-0.192	0.0187	-1.8
0.0135	-0.0608	-0.1711	0.0142	-1.6
0.012	0.0405	-0.1493	0.0097	-1.8
0.0157	0.084	-0.12	0.0187	-1.6
0.0232	0.0832	-0.0893	0.0232	-1.8
0.0225	0.1252	-0.0623	0.0195	-1.6
0.0165	0.105	-0.0413	0.012	-1.8
0.0202	0.0457	-0.0233	0.0037	-1.7
0.021	-0.057	-0.0083	-0.006	-1.7
0.018	-0.108	0.0067	-0.0181	-1.6
0.0195	-0.1328	0.024	-0.021	-1.6
0.021	-0.2063	0.0457	-0.0083	-1.6
0.0277	-0.093	0.0555	0.0255	-1.6
0.03	0.0247	0.0562	0.0427	-1.7
0.0292	0.0277	0.042	0.0397	-1.5
0.027	0.0892	0.0262	0.0352	-1.8
0.0247	0.0952	0.015	0.0277	-1.6
0.0277	0.0855	0.0082	0.0157	-1.8
0.0315	0.054	0.0105	-0.0023	-1.6
0.0292	-0.003	0.0007	-0.0173	-1.8
0.0277	-0.0458	-0.027	-0.0256	-1.6
0.0262	-0.0645	-0.0285	-0.033	-1.8
0.0247	-0.0615	0.0135	-0.0465	-1.6
0.0255	-0.0743	0.0457	-0.0353	-1.6
0.024	-0.0083	0.0502	-0.0083	-1.6
0.024	0.0427	0.0345	-0.0135	-1.6
0.0255	0.0427	0.0142	-0.027	-1.5
0.024	0.066	0.0135	-0.0195	-1.7
0.0202	0.0645	0.0225	0.0022	-1.6
0.018	0.042	0.0442	0.0217	-1.6
0.015	0.0352	0.06	0.0217	-1.4
0.0097	0.003	0.0712	-0.0008	-1.5
0.0037	-0.063	0.081	-0.0113	-1.5
0.0007	-0.0915	0.084	-0.0015	-1.4
-0.0015	-0.0346	0.0855	0.0052	-1.4
-0.0053	0.0075	0.0825	0.0045	-1.5
-0.0083	-0.0008	0.0802	0.003	-1.4
-0.012	0.0112	0.0712	0.0015	-1.5
-0.0158	0.0015	0.0615	0.0022	-1.4
-0.0233	0.0015	0.0495	0.0067	-1.4
-0.027	-0.0053	0.036	0.012	-1.3
-0.0315	-0.012	0.0217	0.0187	-1.4
-0.0368	0.009	0.0075	0.0217	-1.4
-0.0353	0.03	-0.003	0.0202	-1.2
-0.0398	0.0495	-0.0143	0.0202	-1.4
-0.0405	0.0427	-0.0195	0.0202	-1.1
-0.0413	0.042	-0.0233	0.0127	-1.4
-0.045	0.0345	-0.0263	0.003	-1.2
-0.0443	0.009	-0.024	-0.0083	-1.3
-0.048	-0.012	-0.021	-0.0143	-1.1
-0.0473	0.0135	-0.0188	-0.0203	-1.3
-0.0458	0.075	-0.0173	-0.0308	-1.3
-0.0443	0.0975	-0.0105	-0.027	-1.3
-0.0428	0.1372	-0.0083	-0.0383	-1
-0.0398	0.1357	-0.012	-0.0555	-1.1
-0.0353	0.012	-0.0158	-0.0346	-1.3
-0.0323	-0.1013	-0.0181	-0.0188	-1
-0.0308	-0.129	-0.0143	-0.0038	-1
-0.0218	-0.1988	-0.0128	0.012	-1
-0.0135	-0.3533	-0.0181	-0.0083	-0.9
-0.0098	-0.2325	-0.0293	-0.012	-0.9
-0.0075	-0.0346	-0.0383	-0.0038	-0.9
-0.0075	-0.0488	-0.0525	0	-0.9
-0.0075	-0.006	-0.06	0.0045	-0.8
-0.0091	0.0015	-0.0615	0.0052	-0.9
-0.0091	0.0157	-0.0683	0.0075	-0.9
-0.0091	0	-0.0856	-0.0083	-0.8
-0.012	-0.0181	-0.1133	-0.0091	-0.8
-0.0128	0.0532	-0.1298	0.0045	-0.7
-0.0158	0.042	-0.1478	0.0037	-0.7
-0.0158	0.039	-0.1673	-0.0023	-0.7
-0.0128	0.018	-0.1785	-0.0105	-0.8
-0.0105	0.0315	-0.1875	-0.003	-0.7
-0.0098	0.0855	-0.1845	0.0157	-0.7
-0.0068	0.099	-0.1696	0.0315	-0.5
-0.0068	0.0817	-0.1381	0.0345	-0.7
-0.0046	0.0307	-0.1013	0.0255	-0.5
0.003	-0.0181	-0.063	0.027	-0.6
0.0052	-0.0683	-0.012	0.0277	-0.5
0.0082	-0.0698	0.039	0.024	-0.5
0.009	-0.0383	0.0802	0.018	-0.5
0.009	0.009	0.12	0.0097	-0.5
0.0135	0.0465	0.1635	-0.0008	-0.5
0.0157	0.0382	0.1957	-0.021	-0.5
0.0165	0.0427	0.21	-0.0308	-0.4
0.018	0.0412	0.2175	-0.012	-0.4
0.0202	0.057	0.2197	0.0165	-0.3
0.0195	0.0862	0.2175	0.0292	-0.4
0.0172	0.1087	0.2145	0.0337	-0.4
0.0157	0.123	0.2107	0.03	-0.4
0.012	0.084	0.2062	0.0082	-0.4
0.009	0.0037	0.2002	-0.0233	-0.1
0.0052	-0.0856	0.1972	-0.033	-0.5
0.0052	-0.1223	0.1965	-0.0293	-0.2
0.0045	-0.0968	0.1912	-0.0285	-0.3
0.003	-0.0578	0.174	-0.0105	0
0.006	-0.0233	0.1447	0.003	-0.2
0.0082	0.003	0.1095	-0.0023	-0.2
0.0052	0.0082	0.0765	-0.0135	-0.2
0.0015	0.0052	0.063	-0.0248	-0.1
0.0007	0.0007	0.0412	-0.0368	-0.2
-0.0015	0.006	-0.0008	-0.0383	-0.2
0	0.012	-0.0218	-0.0188	-0.4
0.0015	0.0067	-0.015	-0.0008	-0.2
0.0045	0.0127	-0.006	0.009	-0.1
0.009	0.0082	-0.0046	0.012	-0.2
0.009	0.0082	-0.0105	0.0157	-0.1
0.0045	0.0045	-0.0225	0.0165	-0.3
0.0045	-0.003	-0.0368	0.0157	-0.1
0.0075	-0.0046	-0.0495	0.015	-0.4
0.009	-0.0113	-0.06	0.012	0
0.0112	-0.012	-0.0721	0.012	-0.3
0.015	-0.0158	-0.0825	0.0105	0
0.012	-0.015	-0.093	0.0105	-0.4
0.012	-0.012	-0.099	0.012	-0.2
0.0157	-0.012	-0.1035	0.0135	-0.5
0.0135	-0.0053	-0.1065	0.018	-0.2
0.018	0.0007	-0.1095	0.0195	-0.5
0.0195	-0.0053	-0.1253	0.0165	-0.4
0.0172	0.0067	-0.1426	0.003	-0.5
0.0112	0.084	-0.147	-0.0091	-0.4
0.0052	0.1402	-0.1411	-0.0038	-0.5
-0.0008	0.0697	-0.1283	-0.0091	-0.5
-0.015	-0.0353	-0.1155	-0.0308	-0.5
-0.0233	-0.1523	-0.1043	-0.0353	-0.7
-0.0263	-0.2573	-0.0938	-0.0293	-0.5
-0.0278	-0.231	-0.0803	-0.0165	-0.7
-0.0278	-0.1118	-0.0578	0.009	-0.5
-0.0233	0.0082	-0.0405	0.021	-0.8
-0.0181	0.045	-0.0263	0.018	-0.7
-0.0173	0.0465	0	0.0135	-0.9
-0.0113	0.045	0.0255	0.0082	-0.7
-0.012	0.0435	0.0517	0.0037	-1
-0.0113	0.003	0.0787	-0.0046	-0.8
-0.0053	-0.0555	0.099	-0.006	-1
-0.003	-0.0285	0.114	-0.003	-0.9
0.0015	0.0045	0.126	-0.0046	-1
0.0045	0.0022	0.1342	-0.006	-1
0.003	0.0075	0.1312	-0.006	-0.9
0.003	0.006	0.1237	-0.0068	-1.1
0.0015	0.009	0.1162	-0.0046	-1
0.0015	0.018	0.114	-0.003	-1.1
0.0007	0.0307	0.105	0.0007	-1.1
-0.003	0.057	0.0892	0.0045	-1.4
-0.003	0.0855	0.0697	0.0105	-1.1
-0.0008	0.1185	0.057	0.0165	-1.4
0.0007	0.1282	0.048	0.024	-1.2
0.0007	0.114	0.0367	0.0307	-1.4
0.0022	0.0615	0.0285	0.0307	-1.3
0.0045	-0.0473	0.0187	0.0217	-1.4
0.0067	-0.1275	0.0045	-0.0038	-1.4
0.009	-0.147	-0.0068	-0.0218	-1.5
0.0112	-0.1245	-0.0098	-0.0285	-1.6
0.0135	-0.0818	-0.0165	-0.057	-1.6
0.0127	0.0067	-0.0188	-0.0653	-1.5
0.0157	0.0427	-0.0203	-0.0525	-1.7
0.0157	0.0142	-0.0323	-0.024	-1.5
0.0157	0.0067	-0.0458	0.0135	-1.6
0.0165	-0.0203	-0.0548	0.0225	-1.6
0.0172	-0.021	-0.0578	0.0307	-1.6
0.0202	-0.0135	-0.0623	0.0337	-1.6
0.0217	0.0075	-0.0706	0.0202	-1.6
0.0232	0.0067	-0.0795	0.0105	-1.6
0.0255	0.0277	-0.0856	0.0067	-1.7
0.0277	0.042	-0.0893	0.003	-1.7
0.0322	0.027	-0.093	0.0015	-1.6
0.0322	0.027	-0.0938	0.0067	-1.6
0.0352	0.003	-0.0953	0.0067	-1.6
0.033	0.012	-0.0908	0.0157	-1.8
0.0322	0.0195	-0.084	0.0255	-1.7
0.0322	0.039	-0.0758	0.0255	-1.8
0.0292	0.0435	-0.0668	0.0195	-1.6
0.027	-0.0008	-0.0555	0.0022	-1.8
0.0232	-0.0181	-0.0428	-0.012	-1.6
0.018	-0.0308	-0.0368	-0.03	-1.7
0.0135	-0.0443	-0.0338	-0.048	-1.6
0.0105	0.0337	-0.0353	-0.039	-1.7
0.006	0.0742	-0.0346	-0.0165	-1.6
0.0067	0.0307	-0.0308	0.0015	-1.6
0.0052	-0.003	-0.027	0.018	-1.6
-0.0023	-0.075	-0.0181	0.0165	-1.7
-0.0046	-0.0683	-0.0105	0.006	-1.7
-0.0046	0.0082	-0.0075	0.0037	-1.7
-0.0046	0.0855	-0.0053	0.018	-1.5
-0.0046	0.1245	0.0052	0.0307	-1.7
-0.003	0.0817	0.0247	0.0292	-1.6
-0.0053	0.0037	0.0262	0.033	-1.4
-0.0068	-0.0518	0.0232	0.0247	-1.6
-0.0068	-0.0698	0.0315	0.0015	-1.6
-0.0068	-0.1245	0.0322	-0.0173	-1.7
-0.0083	-0.0593	0.0277	-0.0278	-1.4
-0.0105	0.12	0.0202	-0.0233	-1.6
-0.0083	0.1725	0.009	0.0037	-1.4
-0.0083	0.1042	-0.0015	0.0232	-1.7
-0.0098	0.0075	-0.0023	0.0232	-1.6
-0.0083	-0.105	0.0112	0.018	-1.7
-0.006	-0.1875	0.027	-0.0105	-1.4
-0.0083	-0.1185	0.0277	-0.0495	-1.6
-0.0091	-0.012	0.012	-0.084	-1.5
-0.0091	-0.0383	-0.0075	-0.1013	-1.6
-0.012	-0.0728	-0.0315	-0.0871	-1.5
-0.015	-0.033	-0.0473	-0.0525	-1.5
-0.0158	0.0052	-0.057	-0.0075	-1.7
-0.0135	0.0292	-0.0675	0.0247	-1.4
-0.0143	0.021	-0.0691	0.0277	-1.8
-0.012	-0.045	-0.0653	0.0217	-1.4
-0.0091	-0.0675	-0.0578	0.0202	-1.7
-0.0098	-0.0368	-0.0503	0.0075	-1.5
-0.0098	0.033	-0.0428	-0.0046	-1.8
-0.0068	0.0555	-0.0458	0.0067	-1.4
-0.006	0.0352	-0.045	0.0247	-1.7
-0.0053	0.03	-0.042	0.0217	-1.6
-0.003	0.0367	-0.039	0.0225	-1.7
-0.0046	0.075	-0.0323	0.0255	-1.6
-0.0046	0.0945	-0.0256	0.0165	-1.6
-0.0015	0.096	-0.0165	0.0142	-1.7
-0.0015	0.0465	-0.0038	0.009	-1.8
0	-0.0323	0.0127	0.0127	-1.8
0.0052	-0.0825	0.0337	0.0285	-1.8
0.0082	-0.0503	0.054	0.024	-1.7
0.0052	-0.0075	0.0735	0.0142	-1.9
0.0067	0.0007	0.081	0.006	-1.8
0.0045	0.0172	0.0802	0.0052	-1.8
0	0.0195	0.0847	0.0142	-1.9
-0.003	0.0262	0.0855	0.012	-1.8
-0.0015	0.0142	0.0825	-0.0068	-1.9
-0.0015	0.0082	0.0832	-0.0346	-2
-0.0008	0.0052	0.0832	-0.0465	-1.9
0.0007	0.0067	0.0892	-0.0278	-2.1
0.0022	0.0082	0.0915	-0.0091	-2
0.0052	0.003	0.0892	-0.0015	-2
0.0067	0.0082	0.0862	0.0022	-2.1
0.0067	0.0037	0.0847	-0.0008	-2.1
0.0075	0.0045	0.084	-0.0053	-2.1
0.0067	0.0015	0.0832	-0.0046	-2.2
0.0045	-0.0008	0.069	-0.003	-2.2
0.0045	-0.0046	0.0465	-0.0008	-2.2
0.0082	-0.006	0.0405	0.0015	-2.3
0.0075	-0.0053	0.0457	0.0022	-2.2
0.006	-0.0046	0.0465	0.0022	-2.5
0.0022	0.0045	0.039	0.0007	-2.2
-0.0015	0.009	0.0262	0.003	-2.5
-0.003	0.0097	0.0157	0.0067	-2.3
-0.003	0.0045	0.0045	0.0105	-2.4
-0.003	-0.0083	-0.0053	0.0105	-2.5
-0.0038	-0.0248	-0.015	0.006	-2.6
-0.0046	-0.0015	-0.0233	0.0135	-2.5
-0.0068	0.0352	-0.033	0.024	-2.7
-0.0053	0.0315	-0.042	0.0165	-2.6
-0.0098	0.012	-0.0495	-0.0075	-2.6
-0.0143	-0.048	-0.057	-0.027	-2.7
-0.0158	-0.0578	-0.06	-0.027	-2.6
-0.0165	-0.0008	-0.0623	-0.0203	-2.7
-0.0181	-0.0158	-0.0653	-0.0218	-2.9
-0.0203	-0.0361	-0.0653	-0.0083	-2.9
-0.0195	-0.0256	-0.0668	0.0045	-2.8
-0.0165	-0.0083	-0.0668	0	-3.1
-0.015	-0.003	-0.0653	-0.0046	-2.9
-0.0165	-0.0038	-0.0645	-0.0105	-3.1
-0.0181	-0.0038	-0.0623	-0.015	-2.9
-0.0188	-0.0068	-0.0578	-0.0113	-3.1
-0.0195	0.0015	-0.0525	-0.0015	-3
-0.0158	0.009	-0.0495	0.0082	-3.2
-0.0158	0.0195	-0.0458	0.0142	-3.2
-0.0165	0.0315	-0.0398	0.0172	-3.1
-0.0181	0.0427	-0.0346	0.0142	-3.3
-0.0203	0.03	-0.0285	0.006	-3.3
-0.0188	0.0217	-0.0195	-0.0023	-3.3
-0.0188	0.009	-0.0158	-0.0091	-3.3
-0.0173	-0.0091	-0.0098	-0.003	-3.3
-0.0143	0.018	-0.0046	0.0007	-3.3
-0.0128	-0.0008	-0.0046	-0.0015	-3.3
-0.0143	-0.0608	0	0.0022	-3.3
-0.0113	-0.0706	0.0067	-0.0038	-3.4
-0.012	-0.0578	0.0105	-0.012	-3.4
-0.012	-0.0346	0.0127	-0.0046	-3.6
-0.0083	-0.0068	0.0165	0.0015	-3.5
-0.0105	0.0052	0.018	0.0075	-3.5
-0.0113	0.0105	0.0202	0.0105	-3.6
-0.0091	0.0127	0.0232	0.006	-3.5
-0.0075	0.0105	0.0262	0.0045	-3.6
-0.0053	0.012	0.0307	0.0045	-3.6
-0.0068	0.0105	0.0307	0.0045	-3.6
-0.0068	0.0105	0.0322	0.0052	-3.8
-0.0046	0.0127	0.0345	0.0067	-3.6
-0.0053	0.0135	0.0352	0.0052	-3.7
-0.0053	0.0127	0.0367	0.0037	-3.6
-0.0038	0.0105	0.0345	0.0007	-3.8
-0.0008	0.0037	0.0315	-0.0008	-3.6
-0.0008	-0.0008	0.03	0.0022	-3.8
-0.0023	0.0067	0.03	0.003	-3.7
-0.0038	0.0082	0.03	0.0015	-3.9
-0.0046	0.0045	0.0262	0.0007	-3.6
-0.0046	0.0075	0.0232	0.0007	-3.9
-0.0046	0.0045	0.0195	-0.0008	-3.7
-0.0053	0.0045	0.012	-0.0046	-3.8
-0.0053	0.0165	0.0082	-0.0046	-3.7
-0.0053	0.0367	0.0052	0.0015	-4
0	0.0457	-0.0195	0.003	-3.9
0.0037	0.0465	-0.0405	0.0045	-3.9
-0.0008	0.0202	-0.0518	0.0097	-4.1
0	-0.042	-0.0593	0.003	-3.9
0.003	-0.0668	-0.0638	-0.0075	-4.1
0.003	-0.0563	-0.0691	-0.0128	-3.9
0.0037	-0.0405	-0.0608	-0.012	-4.1
-0.0015	0.003	-0.06	-0.0083	-3.9
-0.0083	0.0045	-0.0645	-0.0091	-4.1
-0.0165	-0.0225	-0.0691	-0.0046	-3.9
-0.0256	-0.0075	-0.0668	0.009	-4.1
-0.0256	0.0195	-0.054	0.012	-3.9
-0.0195	0.0135	-0.0443	0.0052	-4.1
-0.0158	0.0007	-0.0338	0.0007	-4.1
-0.0135	-0.0008	-0.0218	-0.003	-4.2
-0.0091	-0.0091	-0.0008	-0.0015	-4.1
-0.0008	0.0022	0.0255	-0.0015	-4.2
0.0067	0.0037	0.042	-0.0023	-4.2
0.009	-0.0008	0.054	0.0007	-4.1
0.012	-0.0008	0.0607	0.0022	-4.2
0.0142	0.0007	0.063	0.0045	-4.1
0.018	0.0045	0.0615	0.0082	-4.3
0.0225	0.0067	0.06	0.0127	-4.1
0.0225	0.009	0.0637	0.0127	-4.2
0.024	0.0067	0.066	0.012	-4.2
0.0202	0.0082	0.0667	0.009	-4.4
0.0195	0.006	0.0675	-0.0008	-4.3
0.012	0.0037	0.0675	-0.0038	-4.5
0.0015	0.006	0.0667	0.0067	-4.4
-0.0046	0.0165	0.0645	0.0112	-4.5
-0.0008	0.033	0.0607	0.003	-4.3
0.0067	0.0592	0.06	0.003	-4.4
0.0112	0.069	0.057	0.0112	-4.5
0.0127	0.0352	0.0555	-0.0083	-4.4
0.012	-0.0353	0.0532	-0.0413	-4.5
0.0135	-0.0983	0.0435	-0.0563	-4.5
0.0165	-0.0818	0.0337	-0.0585	-4.5
0.0195	-0.0488	0.0262	-0.0525	-4.5
0.0217	-0.0383	0.018	-0.0315	-4.4
0.0232	-0.0518	0.0082	-0.0083	-4.4
0.0285	-0.057	-0.0008	0.0172	-4.6
0.0285	-0.015	-0.012	0.0382	-4.5
0.0232	0.0187	-0.024	0.0352	-4.5
0.0165	0.0307	-0.0346	0.021	-4.5
0.0127	0.0255	-0.0428	0.0052	-4.5
0.0135	0.0082	-0.0488	-0.0098	-4.5
0.015	-0.0075	-0.057	-0.0083	-4.5
0.0127	0.0075	-0.057	0.0067	-4.5
0.0172	0.0397	-0.054	0.0097	-4.6
0.0232	0.0322	-0.0511	0.0022	-4.5
0.027	0.0052	-0.0458	0.0007	-4.7
0.0277	-0.0256	-0.042	0.0052	-4.5
0.0247	-0.0383	-0.0383	0.0082	-4.8
0.0255	-0.0091	-0.0323	0.0165	-4.5
0.0232	0.0067	-0.0278	0.0285	-4.7
0.0195	0.0142	-0.0233	0.0315	-4.5
0.0142	0.0217	-0.0225	0.0232	-4.7
0.012	0.0195	-0.0233	0.0195	-4.6
0.009	0.018	-0.0218	0.0052	-4.6
0.006	0.0217	-0.0181	-0.0128	-4.4
0.0045	0.0375	-0.0128	-0.0173	-4.5
0.0007	0.0555	-0.0128	-0.012	-4.6
-0.0008	0.0712	-0.0128	-0.0008	-4.5
0.0007	0.039	-0.0105	0.0015	-4.5
0	-0.0278	-0.0113	-0.0098	-4.5
-0.0008	-0.0713	-0.0053	-0.0128	-4.6
-0.0015	-0.0968	0.0045	-0.0098	-4.5
-0.0023	-0.0938	0.0097	-0.0158	-4.6
-0.0015	-0.039	0.0112	-0.021	-4.3
-0.0053	-0.0023	0.009	-0.0173	-4.5
-0.0083	0.0007	0.003	-0.0098	-4.4
-0.0105	0.012	-0.0015	-0.0068	-4.6
-0.0135	0.0067	-0.0038	-0.0008	-4.5
-0.0135	0.015	-0.0068	0.0067	-4.7
-0.0143	0.0157	-0.0128	0.0067	-4.4
-0.0173	0.0127	-0.0143	0.009	-4.5
-0.0188	0.0195	-0.015	0.0127	-4.5
-0.0233	0.0157	-0.0158	0.0112	-4.5
-0.021	0.021	-0.0158	0.0127	-4.6
-0.0181	0.0165	-0.0135	0.012	-4.5
-0.0181	0.012	-0.012	0.0082	-4.5
-0.0181	0.003	-0.012	0.0082	-4.5
-0.0173	-0.003	-0.0128	0.0105	-4.5
-0.0158	-0.0038	-0.0113	0.0105	-4.5
-0.015	-0.0015	-0.0105	0.0075	-4.5
-0.0128	0.0105	-0.0075	0.0007	-4.4
-0.0105	0.027	-0.0053	-0.006	-4.5
-0.0105	0.03	-0.003	-0.0091	-4.4
-0.0098	0.021	-0.0008	-0.0091	-4.5
-0.0098	0.0022	-0.0008	-0.0083	-4.4
-0.0083	-0.0413	-0.0008	-0.0038	-4.5
-0.0053	-0.0398	0	0.0075	-4.3
-0.0015	-0.0075	0.0052	0.0142	-4.5
-0.0053	0.0015	0.009	0.0127	-4.5
-0.0046	0.0045	0.0127	0.009	-4.5
-0.0038	0.0007	0.0165	0.0052	-4.5
-0.0068	0.0075	0.0202	0.0105	-4.5
-0.0068	0.0165	0.027	0.0195	-4.5
-0.0053	0.0195	0.03	0.0195	-4.6
-0.0068	0.0165	0.0322	0.0105	-4.4
-0.0068	0.0037	0.033	-0.0053	-4.6
-0.0105	-0.0091	0.03	-0.027	-4.5
-0.0128	-0.0158	0.0277	-0.042	-4.5
-0.012	-0.0143	0.0292	-0.0405	-4.6
-0.0143	-0.0165	0.0292	-0.024	-4.6
-0.0105	-0.0128	0.0292	-0.0046	-4.7
-0.003	-0.012	0.027	0.0067	-4.6
-0.0046	-0.0143	0.024	0.0075	-4.8
-0.0068	-0.0008	0.0217	0.0082	-4.7
-0.0053	0.0075	0.0187	0.0067	-4.7
-0.003	0.003	0.018	0.009	-4.8
0.0007	0.0037	0.0157	0.0172	-4.7
0.0052	0.0142	0.0127	0.0277	-4.6
0.0105	0.027	0.0135	0.039	-4.8
0.0135	0.0322	0.0135	0.0382	-4.7
0.0127	0.0315	0.0127	0.0247	-4.9
0.0187	0.0165	0.0112	-0.006	-4.8
0.015	-0.0143	0.0127	-0.0443	-5
0.009	-0.0353	0.0157	-0.0653	-4.8
0.009	-0.0465	0.0157	-0.0728	-5
0.0067	-0.0458	0.015	-0.0615	-4.9
0.006	-0.0278	0.0135	-0.0346	-5
0.0052	-0.003	0.0142	-0.0105	-4.8
0.0067	0.0165	0.0127	0.0037	-5
0.0067	0.0292	0.012	0.0052	-5
0.0052	0.0262	0.0112	0.003	-5.1
0.0045	0.018	0.009	0.0052	-5.1
0.0015	0.0285	0.0067	0.009	-5.1
0.0045	0.0022	0.0045	0.0135	-5.3
0.0045	-0.0315	0.0007	0.0217	-5.1
0.003	-0.021	0.0015	0.0315	-5.2
0.0015	-0.027	0.0015	0.0277	-5.1
