File Name: dePie.log
Channel 4: 'Recto Femoral', 16572 values, engineering units: mV, no filters.
Channel 5: 'Biceps Femoral', 16572 values, engineering units: mV, no filters.
Channel 6: 'Vasto Medial', 16572 values, engineering units: mV, no filters.
Channel 7: 'EMG Semitendinoso', 16572 values, engineering units: mV, no filters.
Channel 8: 'Flexo-Extension', 16572 values, engineering units: deg, no filters.

-0.0015	0.0015	0.0007	-0.0008	3.3
-0.003	0.0015	-0.0008	-0.003	3.1
-0.0015	-0.0023	-0.0008	-0.0015	3.2
-0.0008	-0.0008	-0.0023	-0.0015	3.1
-0.0008	-0.0008	-0.0023	-0.0008	3.3
0.0007	-0.0008	-0.0015	-0.0015	3.1
0	0	-0.0008	-0.0015	3
-0.0008	0.003	-0.0008	0	3.2
-0.0008	0.0015	-0.0015	0.0022	3.1
-0.0008	0	-0.003	0.0022	3.1
-0.0008	0.0015	-0.0023	0.0022	3.2
-0.0015	0.0015	-0.0008	0.0015	3
-0.0008	-0.0008	-0.0015	0.0007	3.3
0.0007	-0.0015	-0.0015	0.0015	2.9
0.0007	-0.0015	-0.0015	0.0022	3.2
0.0007	-0.0053	-0.0008	0.0015	3.2
-0.0008	-0.0015	-0.003	0.0015	2.9
0.0007	0.006	-0.0023	-0.0008	3.1
0.0015	0.0015	-0.0015	-0.0008	3.2
0.0015	0.0015	-0.0023	0.0007	3.1
0.0015	0.0112	-0.0015	-0.0008	3.1
-0.0008	0.0172	0	0.0015	3.1
-0.0008	0.0172	0.003	0.0015	3.3
0	0.0112	0.0007	0.0007	3
0.0015	0	-0.0008	0.0007	3.3
0.0007	-0.0165	-0.0015	0.003	3.1
0	-0.0203	-0.003	0.003	3.2
-0.0023	-0.0068	-0.0015	0.0045	3.1
-0.003	0.009	-0.0023	0.0045	3.3
-0.0015	0.0195	-0.0008	0.0007	3
-0.003	0.018	-0.0015	-0.0015	3.2
-0.0008	0.009	-0.0015	-0.0038	3
-0.0008	-0.0128	-0.0008	-0.0053	3.2
-0.0008	-0.0346	-0.0008	-0.003	2.9
-0.0008	-0.027	0	-0.0008	3.1
-0.0015	-0.0091	0.0015	0.0015	3.2
-0.0008	-0.0015	0.0007	0.003	3.1
-0.0015	0.0082	0.0015	0.0007	3.2
-0.0008	0.0127	0.0007	0.0007	3.2
0	0.0097	-0.0008	0.0015	3.2
0.0007	0.009	0.0007	0.0037	3.2
-0.0008	-0.003	0.0037	0.0067	3.1
-0.0015	0.0022	0.0052	0.009	3.2
0.0015	0.0045	0.0037	0.0052	3.1
0.0007	-0.021	0.003	-0.0008	3.2
-0.0008	-0.0361	0.0007	-0.0015	3.1
0.0007	-0.0195	-0.0008	0	3.2
0.0007	0.0052	0.0015	0.0022	3
0.0015	0.003	0.0015	0.0007	3.1
0.0015	-0.0008	0.0015	0	3.1
0.0015	0.003	0.003	-0.0008	3.2
0.0022	0.0082	0.0037	-0.0038	3.1
0.003	0.009	0.0022	-0.0023	3.1
0.0007	0.009	0	0	3.2
-0.0008	0.0075	0	0.0015	3.2
0	0.0067	-0.0008	0.003	3.2
-0.0008	0.012	0.0007	0.0037	3.1
-0.0008	0.012	0.0022	0.003	3.1
-0.0008	0.0127	0.0022	0.0045	3.1
0	0.0082	0.0015	0.0052	3.1
0	0.003	0.0007	0.003	3.1
0.0015	-0.003	-0.0008	-0.0008	3
0.0007	-0.006	-0.0008	-0.0068	3.3
-0.0015	-0.0068	-0.0008	-0.0165	3.1
0	-0.0091	-0.0008	-0.0195	3.3
-0.0015	-0.0038	-0.0023	-0.0083	3
0.0007	-0.0008	-0.0008	-0.003	3.2
-0.0008	0.0045	-0.0008	-0.0015	3.1
0	0.0082	-0.0015	-0.0008	3.1
0.0015	0.009	-0.0008	-0.0015	3.2
0.0007	0.0082	-0.0008	0	3
0.003	0.0067	0	-0.0008	3.2
0.003	0.0015	0.0015	0.0015	3.1
0.003	-0.0053	0.0015	0.003	3.3
0.0037	0.0022	0.0007	0.003	3
0.003	0.0082	0	0.0067	3.2
0.003	0.0052	-0.0008	0.0052	3.1
0.0022	0.0022	-0.0015	0.0067	3.2
0.0007	-0.0075	0.0007	0.0052	3
0.0015	-0.003	-0.003	0.003	3.2
0.0015	0.0052	-0.0023	0.0037	3.1
-0.0008	-0.0038	-0.0015	0.0022	3.3
-0.0015	-0.0083	-0.0015	0.003	3.2
-0.0008	-0.0068	0	0.003	3
-0.0008	-0.0098	-0.0008	0.003	3.1
-0.003	-0.012	0.0015	0	3.1
-0.0015	-0.0053	0.0007	0	3.1
0	-0.0008	-0.0008	-0.0008	3.2
-0.0023	-0.0008	-0.0015	-0.0015	3
-0.0008	0.0037	-0.0015	-0.0023	3.2
-0.0015	0.0045	-0.0015	-0.003	3
-0.0008	0.003	-0.0008	-0.0008	3.3
0.0007	-0.0008	0	-0.0023	3
0.0015	-0.0008	0	-0.003	3.2
-0.0008	0.0015	0.0015	-0.003	3
-0.0015	0.003	0.0007	-0.003	3.2
-0.0008	0.006	-0.0008	0	3
-0.0015	0.0052	-0.0008	0.0007	3.2
0.0007	0.003	0.0007	-0.0008	3.1
0.0007	-0.0015	-0.0008	-0.0046	3.1
-0.0008	-0.0023	-0.0015	-0.0053	3
0.0015	-0.003	-0.0015	-0.0038	3.2
0.0015	0.0007	-0.0015	-0.003	3
0.003	0.0082	-0.0023	-0.0015	3.2
0.0015	0.0067	-0.003	0	3.1
0.0015	0.003	-0.0008	0.003	3.2
0	-0.0008	0.0015	0.0045	3.1
-0.0008	-0.012	0	0.0007	3.2
0	-0.0143	0.0007	-0.003	3
0	0.0007	0	-0.0023	3.1
0.0015	0.003	0.0007	0.0015	3.1
0.0007	0.0052	0.0007	0.0045	3.1
-0.0008	0.0082	0	0.0067	3
0.0007	-0.0015	-0.0008	0.0075	3.1
0	-0.0008	0	0.0082	3.2
0	0	0.0015	0.003	3.2
-0.0008	0.0052	0.0015	0.0022	3.1
-0.0008	0.0067	0.0015	0.0022	3
0	-0.0038	0.0015	-0.0008	3.1
-0.0015	0.0015	0.0007	-0.0015	3.2
-0.0015	0.0007	0.0022	-0.0023	3.1
-0.0015	-0.0068	0.0037	-0.0015	3.2
-0.0008	-0.003	0.0037	-0.003	3
0.0015	0.0015	0.0015	-0.0053	3.3
0.003	0.0007	0.003	-0.003	3
0	-0.0053	0.003	-0.006	3.2
-0.0008	-0.0083	0.0015	-0.0038	2.9
0.0022	-0.0015	0.0007	-0.0015	3.2
0.003	0.0045	0.0007	-0.0008	3
0.0015	0.0067	0	0.0022	3.2
0.0022	0.012	0.0007	0.0037	3
0.0015	0.0105	0.0007	0.0045	3.2
0.0007	0.0112	0.0007	0.0015	3.3
0.0007	0.0067	0.0015	-0.0008	3
0.0007	-0.0068	-0.0008	-0.0015	3.1
0.0007	-0.0046	0	0.0007	3.1
-0.0008	0.012	0.0007	0	3.2
0	0.0195	0.0015	-0.003	3
-0.0008	0.0127	0	-0.003	3.2
-0.0015	0	0.0007	-0.0015	3
-0.0015	-0.0128	0.0022	-0.0008	3.1
-0.0015	-0.0046	0.0022	0.0015	3
0	-0.0165	0.0045	0.0007	3.2
0.0015	-0.039	0.0015	0.0015	3
0.0015	-0.0293	0.0007	0.003	3.1
0	-0.0053	0.003	0.0015	3.1
-0.0023	0.0075	0.0007	0.0007	3.1
-0.0015	-0.0053	0	-0.0015	3.1
-0.0008	-0.0165	-0.0008	-0.0015	3
0	-0.0083	0.0007	0.0045	3
-0.0008	0.0082	0.0007	0.006	3.2
-0.0015	0.009	0.0007	0.0022	3
-0.0015	0.0075	0.0007	0.0015	3.3
-0.003	0.0082	0.0015	0.0007	3
-0.0008	0.0015	-0.0008	-0.0015	3.3
-0.0008	0.0052	-0.003	-0.0015	3
-0.0015	0.0075	-0.0015	0.0015	3.1
-0.0015	0.0067	-0.0008	0.0007	3
-0.0023	0.0052	0	0.0007	3.2
-0.0008	0.0067	-0.0008	0.0037	3.1
-0.0015	0.0045	0	0.003	3.2
-0.0023	0.0037	-0.0008	0.003	3.1
-0.003	0.0045	0	0.0007	3.1
-0.0008	0.0015	-0.0008	-0.0008	3.1
0	0.0007	-0.0015	0.0007	3.2
-0.0008	-0.0008	-0.0023	-0.0023	3.1
0.0015	-0.0008	-0.0038	-0.0015	3.1
-0.0008	0.0007	-0.0038	-0.0015	3.1
-0.003	0.003	-0.0046	-0.0015	3.2
-0.0015	0.0075	-0.0046	0.0022	3
0	0.0097	-0.0008	0.0015	3.1
0	0.0142	-0.0015	0.0022	2.9
0.0007	0.027	-0.0015	0.003	3.1
-0.0008	0.0315	-0.0008	0.0015	3
0	0.0232	-0.0023	0	3.1
0	0.009	-0.0015	-0.0068	3.1
-0.003	-0.0218	-0.0015	-0.0083	3
-0.003	-0.0495	0	-0.0046	3
-0.0023	-0.0495	0.0007	-0.003	3.1
-0.0008	-0.0165	0.0015	0	3.2
-0.0008	0.009	0.0015	0.0052	3.1
0.0007	0.0067	0.0007	0.0082	3.1
0.0022	0.0045	0.0015	0.0052	3.2
0.0015	-0.0158	0.0022	0.0037	3.1
0.0007	-0.021	0.003	0.006	3.2
0.0007	-0.0015	0.0015	0.0045	3.1
0.0007	0.0045	0.0007	0.0015	3.2
0	-0.0015	0.0007	0.0007	3
-0.0008	-0.0083	0.0015	-0.0015	3.1
-0.0008	-0.0023	0.0022	0.0015	3.1
-0.0008	0.0037	0.0022	0.0015	3.2
0.0007	0.0022	0.0015	0.0015	3
0.0007	0.0082	0.003	0.003	3.2
0.0015	0.0037	0.0022	0	3.1
0.003	-0.0038	0.0015	-0.0008	3.1
0.0045	0.0022	0.0007	-0.0023	3.2
0.003	0.0097	0.0007	-0.0046	3.1
0.0007	0.009	0.0015	-0.0046	3.1
0.003	0.0015	0.0007	-0.003	3.1
0.003	-0.0046	0	-0.0046	3.2
0.0015	0.0007	0.0007	-0.0053	3.2
0.0015	0.0067	0.0015	-0.0053	3.2
0.003	-0.0023	0.0007	-0.0038	3.1
0.003	-0.003	0.0007	-0.0015	3.2
0.0007	0.0052	0.0015	0.0007	3.1
0.003	0.0052	0	0.0045	3.1
0.003	0.003	0.0015	0.009	3.1
0.003	0.0045	0.0022	0.009	3.1
0.0045	0.0052	0.003	0.0097	3.1
0.0045	0.0037	0.0015	0.0075	3.1
0.0045	0.003	0.0007	0.003	3.2
0.003	0.0052	-0.0008	0.0022	3
0.0037	0.0052	0.0007	0.003	3
0.0015	-0.0023	0.0015	-0.0008	3.2
-0.0008	-0.0075	0.0007	-0.0083	3.1
0.0007	-0.0046	0	-0.0143	3.2
0.0007	-0.0008	0.0007	-0.0218	3
0.0007	-0.0046	0	-0.0181	3.2
0.0015	-0.0038	0	-0.0068	3
0.0022	-0.0038	0.0007	-0.0023	3.2
-0.0008	-0.0015	-0.0008	0.003	3
-0.0008	0.0052	-0.0008	0.009	3.2
-0.0008	0.0037	-0.0008	0.009	3.1
-0.0015	0.0022	-0.0015	0.009	3.2
0.0015	0.0007	-0.0008	0.006	3
0.0015	-0.003	-0.0008	0.0045	3.1
0.0007	-0.0046	-0.0053	0.003	3
0.0015	-0.003	-0.0046	0.003	3.1
-0.0008	-0.0023	-0.003	0.0015	3.2
0.0007	0.012	-0.0023	0.0007	3
-0.0008	0.0217	-0.003	-0.0008	3.1
-0.0015	0.0135	-0.003	0.0007	3.3
-0.0015	0.0105	-0.0015	-0.0008	3
-0.003	0.0082	-0.0015	-0.0023	3.2
-0.0023	0	-0.003	0.0007	3.1
-0.0015	-0.0068	-0.003	0.003	3.2
-0.0023	0.0015	-0.003	0.0052	3.1
0	-0.0053	-0.0015	0.0015	3.2
-0.0008	-0.0375	0	-0.0015	2.9
-0.0015	-0.042	-0.0023	-0.003	3.1
-0.0023	-0.0165	-0.0015	-0.0008	3.1
-0.0023	0.006	-0.0008	0.0037	3.2
-0.0015	0.009	0	-0.0015	3.2
-0.0015	0.009	-0.0008	-0.0015	3
-0.0008	0.0052	-0.0023	-0.0008	3.1
-0.0023	0.0007	-0.0023	0	3.1
-0.0015	-0.0008	-0.0023	0.003	3.1
-0.0038	0.0015	-0.0008	0.003	3.2
-0.0038	0.0067	-0.0008	0.0037	3.1
-0.003	0.012	-0.0008	0.003	3.2
-0.003	0.0247	-0.0008	0.0015	3
-0.003	0.039	-0.0015	0.0007	3.1
-0.0015	0.0465	0	0.003	3
0	0.0375	-0.0008	0	3.2
-0.003	0.0052	-0.0008	-0.0053	3
-0.0038	-0.048	-0.0023	-0.0098	3.2
-0.0053	-0.0863	-0.0015	-0.0091	3
-0.0046	-0.057	0.0015	-0.0015	3.2
-0.0015	-0.0046	0.0007	0.0015	3.1
-0.0015	0.0037	0.0015	0.0007	3.1
-0.0015	-0.0038	0.0007	0	3.2
-0.0023	-0.0068	-0.0008	-0.0008	3.1
-0.0023	-0.0105	0.0007	0.0015	3.2
-0.003	0.0045	0.0015	0.0015	3.1
-0.003	0.009	0.0022	-0.0008	3.2
0	0.0105	0.003	-0.0008	3.1
-0.0015	0.0127	0.0015	-0.0015	3.2
-0.0023	0.009	-0.0008	-0.003	3.1
-0.0015	0.012	-0.0008	-0.0046	3.1
-0.0015	0.012	0	-0.0023	3.1
-0.0008	0.0142	0.0015	0.0007	3.1
0	0.0142	0.0007	0.0022	3.1
0	0.009	-0.0008	0.0067	3.1
-0.0008	0.0015	0	0.0075	3.1
-0.0015	-0.0008	0.0007	0.006	3.1
0.0022	0.0105	0.0015	0.003	3.1
0.0015	0.0165	0.0015	0.003	3.1
0	0.0157	0.003	0.003	3.1
0.0015	0.0105	0.003	0.0015	3.2
0.0015	0.0015	0.0015	-0.003	3
0.0015	-0.024	0.003	-0.003	3.1
0.003	-0.0353	0.0007	-0.003	3.1
0.0045	-0.0181	0	-0.0038	3.2
0.0022	-0.0068	0.0045	-0.0015	3.1
0.0015	-0.0046	0.0052	0	3.3
0.0015	-0.003	0.003	-0.0015	3
0.0007	-0.0083	0.0015	-0.0023	3.2
0.0022	-0.0015	0.003	-0.0023	3.1
0.0007	0.0045	0.0015	-0.0015	3.3
0	0.0022	0.0015	-0.0008	3
0.0015	0.0067	0.0015	-0.0008	3.1
0.0022	0.006	0.0007	0.0007	3.3
0.0007	0.0045	0.0015	0.0007	3.2
0	0.0015	0.0007	-0.0008	3.1
0.0015	-0.0008	0.0015	-0.0008	3.1
0.003	0	0.0015	-0.0015	3
0.0037	0	-0.0008	-0.0008	3.2
0.0022	0.0037	-0.0008	-0.0008	3
0.0015	0.0022	-0.0008	0.0007	3.2
0.0007	0.0045	0	0.003	3
0.0007	0.0082	0.0007	0.003	3.2
0.0022	0.009	0.0007	0.003	3
0.0007	0.006	0.0015	0.0015	3.2
0.0007	0.0022	0.0007	0.0007	3.1
0.0015	-0.0068	-0.0008	0	3.1
0.0007	-0.0173	0	0	3.1
0.0015	-0.006	0.0015	0.0015	3
0.0015	0.0015	0.0007	0.0007	3.2
0.0022	-0.0023	0.0007	0.0007	3.1
0.0045	0	-0.0008	0.0015	3.1
0.0015	0.0007	-0.0015	0	3.3
0.0015	0.0045	-0.0008	0.0015	3
0.003	0.0015	-0.0015	0.003	3.3
0.003	-0.0008	-0.0008	0.0015	3
0.0015	0.0007	-0.0008	-0.0008	3.2
0.0007	0.0022	-0.0015	-0.0015	3
0.0015	0.0105	-0.0008	-0.0008	3.1
0.0022	0.0082	-0.0015	-0.0023	3.1
0.003	0.0007	0.0007	-0.0038	3.2
0.003	-0.0015	-0.0015	-0.0008	3
0.0007	-0.0113	-0.0015	0.0045	3.2
0.0007	-0.0173	-0.0015	0.0052	3
0.0015	-0.0046	-0.003	0.0037	3.1
0.0015	0.0075	-0.0046	0.0022	3.1
0.0007	0.0105	-0.0038	0.0007	3.2
0	0.0097	-0.003	-0.0008	3.2
0.0007	0	-0.0038	-0.0015	3.1
-0.0008	-0.0105	0	-0.0015	3.1
0	-0.0113	0.0007	0.0007	3
0.0007	0.0007	-0.0008	0.0007	3.2
-0.0015	0.0075	-0.0023	-0.0023	3.1
-0.0008	0.0052	-0.0038	-0.0023	3
-0.0008	0.0022	-0.003	-0.003	3.2
-0.0015	-0.0068	-0.0023	-0.0038	3.1
-0.0008	-0.0091	-0.003	0.0007	3.1
-0.0015	-0.0008	-0.0015	0.003	3.1
-0.0053	0.0105	0.0007	0.0045	3.1
-0.0046	0.012	0.0007	0.0022	3.1
-0.003	-0.003	0.0015	-0.0015	3.1
-0.0015	-0.0203	0.0022	-0.0015	3.1
-0.0015	-0.0165	0.0015	0.0022	3.1
-0.0046	0.003	0.0015	0.0045	3.2
-0.0038	0.0052	0.0022	0.003	3
-0.003	0.0082	0.003	0.0015	3.2
-0.0046	0.0157	-0.0008	0.0007	3
-0.003	0.0187	0.0007	-0.0008	3.4
-0.003	0.0232	0.0007	0.0015	3
-0.0015	0.015	0	-0.0008	3.2
-0.0023	-0.003	0.0007	-0.0038	3
-0.0023	-0.033	-0.0008	-0.0046	3.3
-0.0046	-0.0323	0.0007	-0.0053	3
-0.0053	0.0067	0.0007	-0.0053	3.2
-0.0053	0.0187	0.0022	-0.0046	3
-0.0038	0.0135	0.003	0.0007	3.2
-0.0023	0.012	0.003	0.006	3.1
-0.0023	-0.0038	0.003	0.0067	3.1
-0.0008	-0.0256	0.003	0.0067	3.2
-0.0008	-0.0278	0.0037	0.0045	3.1
-0.0008	-0.0083	0.0045	0.0045	3.1
-0.0008	0.0067	0.0045	0.0037	3.1
-0.0015	0.0052	0.0022	-0.0008	3.1
-0.0008	-0.0015	0.003	-0.0053	3.1
-0.0008	-0.015	0.0045	-0.0068	3
-0.0015	-0.0165	0.003	-0.0015	3.2
-0.003	0.0067	0.0015	0.0015	3
-0.003	0.012	0.0015	0.003	3.2
-0.0023	0.012	0.0015	0.0007	3.1
-0.0023	0.0127	0.003	0.0007	3.1
-0.0008	0.0045	0.003	0.0007	3.1
0.0007	-0.0008	0.0007	-0.0015	3.1
-0.0015	-0.003	0	-0.0038	3.1
-0.0015	-0.003	-0.0008	-0.0015	3.1
-0.0008	-0.0068	-0.0008	0.0045	3.1
-0.0008	0.0067	-0.0008	0.0052	3.1
-0.0008	0.009	0	0.0052	3.2
-0.0015	0.0022	0.0007	0.0045	3.1
0.0007	0.0007	-0.0008	0.0015	3
0.0007	-0.0008	-0.0015	0.0007	3.2
0	0.006	-0.0008	-0.0008	3.1
0	0.0045	-0.0015	-0.0015	3.2
0.0015	0.0067	-0.0008	-0.0008	3
0.0007	0.0045	0.0015	0.0022	3.2
0.0007	0.006	0.0015	0.0015	3.2
0.0022	0.0082	0.0007	0.0007	3.1
0.0007	0.0112	0.0015	0.0015	3.1
0.0015	0.0142	0.0015	0.0007	3.2
-0.0008	0.0082	-0.0008	0	3.1
-0.0008	0.0022	-0.0008	-0.0008	3.2
0.0007	-0.0135	-0.003	-0.0046	3.1
0.0015	-0.0233	-0.0046	-0.0038	3.1
0.003	-0.0128	-0.0023	-0.0023	3.2
0.003	-0.0008	-0.0015	-0.0008	2.9
0.003	0.0007	0	0.0015	3.2
0.0022	0.006	0.0007	0.003	2.9
0.0015	0.0097	-0.0008	0.0015	3.3
0.003	0.009	0	-0.0008	3
0.003	0.003	0.0015	-0.0015	3.2
0.0037	0	0.003	-0.0038	3.1
0.003	-0.0083	0.0007	-0.0068	3.2
0.003	-0.0188	-0.0008	-0.006	3
0.0022	-0.0091	-0.0008	-0.0015	3.2
0.0007	-0.003	-0.0015	-0.0008	2.9
0.0022	-0.003	-0.0023	0.0022	3.2
0.0037	0.0007	-0.0008	0.0082	3.1
0.0037	0.0015	0	0.0075	3
0.0037	0.003	0.0007	0.0045	3.1
0.003	0.0007	-0.0008	0.0045	3.2
0.003	0.0045	0	0.0052	3
0.0015	0.0075	-0.0008	0.003	3.2
0.0007	0.0082	-0.0008	0.0015	3.1
0.0022	0.0097	-0.0023	0	3.2
0.003	0.009	-0.003	-0.0008	3
0.0037	0.0045	-0.0015	-0.0053	3.2
0.0007	-0.0091	-0.003	-0.0105	3.1
-0.0015	-0.0158	-0.0015	-0.006	3
0.0007	-0.0128	-0.0008	-0.0038	3.1
0	-0.0105	-0.0008	-0.0008	3
0.0022	-0.0008	-0.0008	0.003	3.2
0.0015	0.0052	-0.0008	0.0037	3.1
-0.0008	0.009	-0.0008	0.0052	3.1
0.0007	0.0142	-0.0015	0.0052	3.1
-0.0008	0.0105	-0.0023	0.003	3.2
-0.0023	0.0067	-0.0015	0.0015	3.1
-0.0023	-0.0105	-0.0008	-0.003	3
-0.0015	-0.0195	-0.0008	-0.0053	3.1
-0.0008	0.0007	-0.0015	-0.0046	3
-0.0015	-0.0038	-0.0015	-0.0053	3.1
-0.0015	-0.0165	-0.0023	-0.0046	3
0	0.0015	-0.003	-0.0008	3.1
-0.0015	0.0045	-0.0015	0.0015	3
-0.0008	0.0037	0	-0.0008	3.2
-0.0008	0.0097	-0.0008	0	3
-0.0015	0.0112	-0.0008	0.0045	3.2
-0.0015	0.0082	-0.0015	0.003	3.1
-0.003	-0.0038	-0.0023	0	3.2
-0.0023	-0.0068	-0.003	0.0007	3.1
-0.0015	-0.0105	-0.0015	-0.0008	3
0	-0.0091	-0.0015	0	3
-0.0008	-0.003	-0.0015	-0.0008	3
-0.0008	0.0067	-0.0008	0.0015	3.1
-0.0008	0.009	0.0007	0.0052	3.1
-0.0015	-0.003	0.0007	0	3.1
-0.0015	0.0067	0.0007	-0.0008	3.1
-0.0038	0.0217	-0.0008	0.0022	3.2
-0.003	0.0217	0.0015	-0.0015	3.1
-0.0023	0.0195	0.003	-0.0008	3.1
-0.0008	0.0075	0.003	-0.0015	3
-0.0015	-0.0195	0.0037	-0.0008	3
-0.003	-0.0368	0.0007	0.003	3.1
-0.0015	-0.0128	0	0.0045	3
-0.0008	-0.003	0.0015	0.0045	3.1
-0.0015	-0.0038	0.0015	0.0037	3.1
-0.0015	0.0082	0.0015	0.003	3.1
-0.0015	0.0105	0.0007	0.0015	3.1
-0.0015	0.0157	0.0007	0.0007	3
0.0007	0.012	0.0015	0.0015	3.1
0.0007	0.0082	0.003	0.0007	3.1
0.0007	-0.012	0.0015	-0.0023	3.1
0.0007	-0.0293	0.0007	-0.003	3.1
-0.0008	-0.0091	0.0007	-0.0015	3.2
0.0007	0.0015	0.0007	0	3
0.0007	-0.0008	0.0015	0.0015	3
-0.0023	0.003	0.0015	0.0007	3.2
-0.0008	0.0015	0.0015	0.0007	3
-0.0008	0.0045	0.0007	0.0007	3.2
-0.0008	0.0067	0	-0.003	3
0.0015	0.0067	-0.0008	-0.0015	3.1
0.0007	0.0075	0.0007	0.0007	3.1
0.0007	0.0052	0.0007	-0.0008	3.1
0.0007	0.003	0	0.0007	3.1
0.0015	-0.0046	0.0007	0.0007	3.1
0.0007	-0.0068	-0.0008	0.0007	3.2
-0.003	0.0015	0	0	3.1
0.0007	0.0022	0	0.0007	3.1
0.0007	-0.0015	-0.0008	0.0007	2.9
-0.0015	-0.0015	0	0.0015	3.1
0.0022	0	-0.0008	0	2.9
0.0007	0.0015	0.0015	-0.0015	3.2
0.0015	0	0.0007	0	3.2
0.0015	-0.0008	0.0015	0	3.1
0.0007	0.0015	0	0	3.2
0.0015	0.0015	0	0.0007	3.1
0	0.0015	0.003	-0.0015	3
0.0007	0	0.0015	-0.0008	3.1
0.0007	0	-0.0008	0	3
0.0007	-0.0015	0	0.0007	3.1
0.0007	-0.0008	0.0007	0	3.1
-0.0008	0	0.0007	-0.0008	3.1
0.0015	0.0007	0	-0.0008	3
0.0015	0.0022	0	-0.0015	3.1
0.0015	0.0067	0.0007	-0.0023	3
0.003	0.0082	0.0015	-0.0015	3.2
0.0015	0.0067	0.0007	-0.0008	3
0.003	0.0015	0.0007	-0.003	3.2
0.0015	-0.0075	0.0007	-0.0053	3
-0.0008	-0.015	0.0015	-0.0046	3.2
0.0007	-0.0083	0.0015	-0.0015	2.9
-0.0008	0.0082	0.0007	0.0007	3.1
-0.0008	0.0157	0	0.0037	3
-0.0015	0.018	0	0.006	3.1
-0.0008	0.0052	-0.0008	0.0052	3.1
0.0007	-0.0083	0	0.0037	3.1
-0.0008	-0.0075	0	0.0022	3.2
0.0007	-0.0263	-0.0008	-0.0015	2.9
0.0037	-0.0413	-0.0008	-0.0038	3.1
0.003	-0.0225	0.0007	-0.003	2.9
0.0015	-0.0083	0.0015	-0.0008	3.2
0.0015	0.0015	0.003	0.0015	3
0.0015	0.0052	0.003	0.003	3.1
0.0022	0.0022	0.0007	0.0007	3.2
0.0015	0.0067	0	0.003	3.1
0.0007	0.006	0.0015	0.003	3.1
0.003	0.0052	0.0007	0.0015	3.1
0.003	0.0037	-0.0015	0.0015	3.2
0.003	0.0022	-0.0015	0.0007	3.1
0.0007	0.0067	-0.0015	0.0007	3
0.0007	0.0082	-0.0015	0.003	3.1
0.0045	0.0105	-0.0008	0.003	3.1
0.0045	0.012	-0.0015	0.0015	3.1
0.0015	0.0165	0.0007	0.0007	3
0.0007	0.0157	0.0015	-0.0008	3.2
0.0015	0.0142	0.0015	-0.0008	3
0.0022	0.003	0.0007	-0.0015	3.1
0.0007	-0.0233	0.0015	-0.0046	3
0.0007	-0.024	0.0015	0	3.3
0.0007	-0.0053	0.0007	0.0045	3
0	0.003	0.0007	0.003	3.1
0.0007	0.009	0	0.0037	3.1
0.0015	0.0067	-0.0008	0.0007	3
-0.0015	0.003	0	0.0015	3.1
-0.0008	0.0067	0.0007	0	3.1
0.003	0.0075	-0.0008	-0.003	3.1
0.0015	0.0067	0.0015	0	3
0.0007	0.003	0.0015	0.0007	3.2
-0.0008	0.0037	0.0007	0.0007	3
0.0007	-0.0008	-0.0008	0.0007	3.1
0.003	-0.0091	-0.0008	-0.0023	3
0	-0.0083	-0.0008	-0.0046	3.1
-0.0008	-0.003	-0.003	-0.0068	3.2
-0.0023	-0.0023	-0.0015	-0.0068	3
-0.0015	-0.0008	0.0007	-0.0015	3.2
-0.0023	0.0052	0	0	2.9
-0.0008	0.0097	-0.0008	0.0007	3.2
-0.0008	0.006	-0.0008	0.0022	3
-0.0015	0	0	0.003	3.2
0	0.003	-0.0015	0.0052	3.1
0.0007	0.0007	-0.0008	0.003	3.1
0.0007	-0.0008	0	0.0037	3.1
0.0007	-0.0046	0	0.003	3.2
-0.0008	-0.0128	-0.0023	0.0022	3.2
-0.0015	0.0007	-0.0008	0.0007	3.1
-0.0015	0.0232	-0.0008	-0.0008	3.2
-0.0015	0.0307	-0.0023	-0.0023	3
-0.0015	0.0232	-0.0015	-0.0053	3.1
-0.003	0.0105	-0.0008	-0.0053	3
-0.003	-0.0256	0	-0.006	3.2
-0.003	-0.0563	-0.0008	-0.0015	3.1
-0.003	-0.0308	-0.003	0.0045	3
-0.0023	-0.0053	-0.0015	0.0052	3.1
-0.003	-0.0091	0.0007	0.006	3
-0.003	-0.003	0	0.0045	3.2
-0.003	-0.003	-0.0008	-0.0008	3
-0.003	-0.0053	-0.0008	-0.0053	3.1
-0.0015	-0.0008	0	-0.0053	3.1
-0.0015	0.0075	0	-0.0046	3.1
-0.0023	0.0097	-0.0015	-0.0008	3.2
-0.003	0.003	0.0015	0.0045	3
-0.0015	0.0052	0.0045	0.012	3
-0.003	0.0052	0.003	0.0172	3
-0.0015	-0.0008	0.0037	0.0127	3.1
-0.0015	0.0037	0.0037	0.0045	3
-0.0015	0.0082	0.003	0.003	3.1
-0.0015	0.0052	0.003	0	2.9
-0.0015	0.0052	0.0022	-0.0053	3.2
-0.0038	0.0007	0.0015	-0.0068	3
-0.003	-0.0008	0.0037	-0.0091	3.1
-0.003	-0.003	0.003	-0.0091	2.9
-0.003	-0.0046	0.003	-0.0105	3.1
-0.003	0	0.003	-0.006	3.1
-0.003	0.0052	0.003	-0.003	3.1
0	0.0142	0.0015	-0.0008	3.1
-0.0008	0.0142	0	0	3.1
0	0.0097	0.0022	0	3.1
0	0.003	0.0045	0.0015	3
-0.0008	-0.0143	0.0015	-0.003	3.1
0.0007	-0.027	-0.0008	-0.003	3
0.0007	-0.0158	0	-0.0008	3.2
0.0015	-0.0015	0	-0.0023	3
0	0.0015	0	-0.0015	3.1
0	0.015	0.0007	0	3.2
0.0007	0.0157	-0.0008	0	3.1
0.0015	0.0127	-0.0015	0.0022	3.2
0.0015	0.0135	0.0007	0.0022	3.1
0.0007	-0.003	0.0022	0.0007	3.1
0.003	-0.0195	0.0022	-0.0015	3.2
0.0007	-0.024	-0.0008	-0.0008	3.1
0.0007	-0.015	-0.0008	0.0007	3.1
0.0015	-0.003	0	0.0022	3.1
0.0015	0.0007	-0.003	0.003	3.1
0.0007	0.003	-0.0023	0.0022	3.1
-0.0008	0.0037	-0.003	0.0022	3.1
0.0015	0.0052	-0.0046	0.0022	3.1
0.0007	0.009	-0.003	0.0015	3.1
0.0007	0.0067	-0.0038	0.0007	3.1
0.0007	0.0045	-0.0038	0.0015	3
0.0007	0.0007	-0.003	0.0007	3.1
0.0007	-0.0053	-0.003	0	3.2
0.0015	-0.0075	-0.0038	0.0015	3.1
0.0007	-0.0015	-0.0023	0.0015	3.1
0.003	0.0022	-0.003	0.003	3.1
0.0037	0.0022	-0.003	0.0015	3.1
0.0015	0.0015	-0.003	0.0007	3.2
0	-0.0008	-0.003	0.0007	3.1
0.0015	0	-0.0008	-0.0015	3.1
0.0015	0.0067	0.0007	-0.0015	3.1
0.0022	0.0082	0	-0.003	3
0.0015	0.0045	0	-0.0023	3.1
0.0007	0.009	0.0007	0	3.1
0.0015	0.0112	-0.0008	0.0007	3.2
0.0007	0.012	-0.0008	-0.0008	3
-0.0015	0.0082	-0.0015	-0.0015	3.1
-0.0008	-0.0105	-0.0046	-0.0023	2.9
-0.0015	-0.0293	-0.0038	-0.0023	3.2
-0.0008	-0.0181	-0.0038	0	3
-0.0008	-0.0008	-0.0023	0.0007	3.2
-0.0008	-0.0008	-0.0015	0.0015	3
0.0007	0.003	-0.0023	0	3.2
-0.0008	-0.0015	0	-0.0008	3.2
-0.0015	-0.0008	0.0007	0.003	3
0.0015	-0.0008	0.0007	0.0037	3.1
0.0015	-0.0015	0	0.0045	3
0	0.0082	0.0007	0.0052	3.2
0	0.0097	0.003	0.0037	3
0.0007	0.0067	0.003	0.0022	3.1
0.0007	0.0052	0.0037	0	3
0.0015	0.0142	0.0045	-0.0008	3.1
0.0007	0.018	0.003	0.0015	3
0.0015	0.0255	0.0022	0.0052	3.1
0.003	0.0172	0.0015	0.003	3
0.0007	-0.0015	0.0015	0	3
0.0015	-0.0203	0.003	-0.003	3.1
0.0015	-0.0511	0.0007	-0.0046	2.9
0.0022	-0.0353	-0.0008	0.0007	3
0.003	-0.0015	0	0.0037	3.2
0.0007	-0.0008	0.0007	0.0022	3.1
0.0007	-0.0053	0	0	3.1
-0.0008	-0.0038	0.0007	-0.0008	2.9
-0.0008	0.0052	0.0015	-0.0008	3.1
0.0007	0.009	0.0022	-0.0008	3.1
-0.0015	0.006	0.003	0	3.2
-0.0008	0.0082	0.0022	0.0015	3
0.0007	0.0052	0.0022	0.0015	3.2
0.0015	0.0022	0.003	0	2.9
0.0007	0.003	0	-0.0008	3.2
-0.0008	0.0037	0	-0.0008	2.9
0	0.0045	0.0015	0.0022	3.2
0	0.0052	0	0.003	3
0.0015	0.003	0.0022	0	3.1
0.0015	0.0007	0.0015	0	3
-0.0008	0.0022	0.0007	0.0007	3
-0.0015	0.0022	0.0015	0	3
-0.0015	0.0007	-0.0008	-0.0015	3.1
0.0007	0.0007	0.0007	-0.003	3.1
0.0007	0.0007	0.0015	-0.0046	3
-0.0008	-0.0008	0	-0.0038	3
0	-0.0008	0.0007	-0.003	3
-0.0015	0.0007	0.0015	-0.0023	3.1
-0.0008	0	0.0015	-0.0008	3
-0.0015	-0.0008	-0.0015	0.0007	3.1
-0.0015	0.0015	-0.0008	0	3.1
0	0.0082	-0.0008	0.0007	3
0.0007	0.0142	0.0007	0.0007	3.1
0.0007	0.0142	0.0015	0.0007	3
-0.0008	0.0105	0.0007	0.0007	3.1
-0.0008	-0.0053	-0.0015	-0.0008	3.1
-0.0015	-0.0315	-0.0015	-0.0008	3
-0.0023	-0.0315	0	-0.0008	3.1
-0.0038	-0.0046	0	0.0015	3
-0.0038	0.0022	0	0	3.1
-0.003	0.0037	0.0007	0.0022	3.1
-0.0015	0.0045	0.0015	0.0045	3.2
-0.0038	0.0007	0	0.0045	3
-0.0038	-0.0053	0	0.0007	3.1
-0.0023	-0.0158	-0.0008	0	3.1
-0.0008	-0.003	-0.0008	0.0015	3.1
0.0007	0.0067	0.0007	0	3
-0.0008	0	0	-0.003	3
-0.0008	0	-0.0015	-0.003	3.1
-0.0008	-0.0008	-0.0015	-0.0023	3
-0.0015	0.0007	-0.0023	-0.0015	3.1
-0.003	0.0045	-0.0008	-0.0008	3.1
-0.003	0.009	-0.0015	0.0015	3
0.0007	0.0217	-0.0015	0.0037	3
-0.0008	0.0315	-0.0015	0.0037	3
-0.003	0.0307	-0.0023	0.0007	3.1
-0.0008	0.0255	-0.0008	-0.0008	3
0.0007	0.0045	-0.0015	-0.0015	3.1
0.0015	-0.042	-0.0008	-0.0038	3
0.0022	-0.0563	0.0007	-0.0015	3.2
0.0015	-0.0256	-0.0015	0.0007	2.9
0.0007	-0.0195	-0.0023	0.0015	3.2
0.0007	-0.0105	-0.0008	0.0007	3
0.0015	0.0045	0.0007	0.0015	3.1
0.003	0.0015	0.0015	0.003	3
0	0.0052	0.003	0.0045	3.1
0.0015	0.0015	0.003	0.0007	3
0.0022	0.003	0.0022	0.0007	3.1
0.0007	0.0052	0.0022	0.0007	3.1
0.0007	0.0037	0.0015	-0.0015	3.1
0.0007	0.0052	0.0022	-0.0008	3
0.0007	0.0045	0.0015	0	3
0.0007	0.0067	0.0015	0.0007	2.9
0.0007	0.006	0.0015	0.0007	3.1
0.0015	0.0052	0.0007	0.0015	3
0.0007	0.003	0.0007	0.0007	3.1
-0.0008	0.0022	0.0007	0.0007	3
-0.0008	0.003	0	0.0007	3.2
0.0007	0.0045	-0.0008	0.0007	2.8
0	0.0052	-0.0015	0.0007	3.2
0	0.0067	0.0007	0.0007	2.8
0.003	0.0045	0.0015	0	3.2
0.0015	-0.0023	0.0007	0	3
0	-0.0083	0	-0.0023	3.1
0.003	-0.0083	-0.0008	-0.0053	3
0.0015	-0.0046	-0.0008	-0.0053	3.1
0.0022	-0.006	-0.0015	0	3.1
0.0022	-0.003	-0.0015	0.0052	3
0.0015	0	0.0007	0.0082	3.2
0.0022	0.0037	-0.0015	0.0067	3
0.0022	0.009	-0.0015	0.0022	3.1
0.0015	0.0135	0	0.0007	3
0.0015	0.0165	0.0007	-0.0023	3.1
0.0037	0.0127	0.0007	-0.003	3
0.0007	0.0067	-0.0015	-0.0008	3.1
-0.0023	-0.0098	-0.0008	-0.0008	3
-0.0008	-0.021	-0.0015	-0.0008	3.1
0.0015	-0.0075	-0.0015	-0.0008	3.1
0.0015	-0.003	0	-0.003	3
0	-0.006	0.0007	-0.0008	3.1
0	-0.003	0.0015	-0.0008	3.1
-0.0015	-0.003	0.0015	0	3.1
-0.0015	0.003	0.0007	0.003	3
-0.0008	0.0037	-0.0008	0.0007	3
-0.0008	0.0052	0	0.0015	3.1
0.0007	0.0015	0	0.0007	3
-0.0008	-0.0023	-0.0008	-0.0015	3.1
0	0.0037	0.0007	-0.0008	3
0.0007	0.003	0.0007	-0.0023	3.1
0.0007	0.0045	-0.0015	0	3
-0.0015	0.003	-0.0008	0	3.1
0	-0.0015	-0.0015	0	3.1
0.0007	-0.006	-0.0015	-0.0008	3.1
-0.003	-0.003	-0.0008	-0.0008	3.1
-0.0015	0.0015	-0.0023	0.0015	3.1
-0.0015	-0.0008	-0.003	0.003	3.1
-0.0008	0.0022	-0.0015	0.0037	3
0.0007	0.0015	0	0.0022	3
0.0007	0.0015	0.0007	0.0007	3.1
0.0022	0.003	0.0007	0	3.1
0	0.0007	-0.0008	0.0007	3.1
0	0.0022	-0.0008	-0.0008	3
0.0015	0	-0.0008	-0.0008	3.1
0	-0.0008	0	0.0007	3
0.0007	0.0007	0	0.0007	3.2
0.003	0.0015	0	0	3
0.0015	0.0007	-0.0008	-0.0023	3.2
0.0015	0.0007	-0.0008	-0.0015	3
0.0022	0.0022	0.0007	-0.0015	3.1
0.0007	0.0015	-0.0008	-0.0008	2.9
0.0007	0	-0.003	0	3.1
0	-0.003	-0.003	-0.0015	3
-0.0008	-0.0038	-0.0015	-0.0015	3.1
-0.0008	-0.0046	-0.0008	-0.0015	3.1
0	-0.006	0	-0.0008	3
0.0015	-0.003	0	0.0015	3
0.0007	0.0045	0.0007	0.0052	3
-0.0015	0.0112	0.0022	0.0052	3.1
-0.0008	0.012	0.0045	0.0067	3.1
0	0.015	0.003	0.0082	3.1
-0.0015	0.012	0.0022	0.0052	3
-0.0015	-0.0038	0.0022	0.003	3
-0.0008	-0.0181	0.0007	0	3.1
-0.0008	-0.0083	0.0007	-0.0008	3.1
-0.0008	0.0045	0.0015	0.0007	3.1
-0.0008	0.0022	-0.0008	0.0007	2.9
0.0007	-0.0053	0.0007	-0.0023	3.1
-0.0008	-0.0128	0.0007	-0.003	3.1
0.0007	-0.006	0.0015	-0.0015	3.1
0.0007	-0.0015	0.0022	-0.003	3
0.0007	0.0007	0.0007	-0.0015	3
0.0022	0.009	0.0015	0.0015	3.1
0.0007	0.0127	0.0007	0.0015	3
-0.0015	0.0105	0.0015	0.0007	3.1
-0.0008	0.0037	0.0037	0	2.8
-0.0015	-0.0046	0.0022	-0.0008	3.2
-0.0008	-0.0143	0.0007	-0.0023	2.8
-0.0008	-0.0083	-0.0008	-0.0008	3.2
-0.0015	-0.0023	0	-0.0015	3
0.0007	-0.0046	0	-0.0015	3
0.0007	0	0	-0.0008	3.1
-0.0008	0.0037	0.0007	-0.0015	3.1
-0.0015	0.006	0.0007	0	3.2
-0.0008	0.009	0.0015	0.0007	3.1
-0.0008	0.0105	0.0007	0.003	3
-0.0008	0.0015	0.0007	0.003	3.1
0	-0.0053	0.0007	0.0007	3.1
-0.0008	-0.0008	-0.0008	0.0015	3.1
0	-0.0075	-0.0015	-0.0023	3
-0.0008	-0.0105	-0.0015	-0.0015	3
-0.0008	0.003	-0.0015	0.0007	3
0.0007	0.0127	0.0007	-0.0008	3.1
-0.0008	0.027	0.0007	0.0015	3
0.0007	0.033	0.0015	0.0022	3
0.0022	0.0232	0.0015	0.003	3
0.0015	-0.0105	0.0007	0	3
-0.0008	-0.0555	0.003	-0.0008	2.9
0.0007	-0.0443	0.003	0.0022	3
0.0007	-0.0105	0.003	0.0007	3.1
0	-0.003	0.0007	0.0015	3.1
0.0007	0.0007	0.0007	0.0007	2.8
0.0007	0.0015	0.0015	-0.0008	3
0.0037	0.0037	0.0015	-0.0008	3
0.003	0.003	0.003	-0.0008	3
0.0015	0.0007	0.0015	-0.0008	3.1
0.0015	0.0045	0.0015	0	3
0.0015	0.003	0.003	-0.0008	3.1
0.0022	0.0037	0.0007	-0.0008	3.1
0.0007	0.0037	0	-0.0008	3.1
0	0.0045	0	0.0015	3.1
-0.0015	0.0045	0.0007	-0.0008	3
-0.0023	0.0045	0.0015	-0.0008	3.1
-0.0015	0.0037	0.0007	-0.0008	2.9
0.0015	0.0015	0.0007	-0.0008	3.1
0.0015	0.0015	0.0015	0.0022	2.9
-0.0008	0.003	0.0015	0.0007	3.1
-0.0008	0.0045	0.0007	0	3
-0.0015	0.0022	0.0007	-0.0008	3.1
-0.0008	0.0022	-0.0008	-0.0008	3.1
-0.0008	0.0015	-0.0008	0	2.8
-0.0008	0.0015	0.0007	-0.0008	3.1
-0.0008	0.0015	0.0007	0.0015	2.9
-0.0008	0.0007	0.0007	0.0007	3.1
-0.0023	0.0015	-0.0015	-0.0008	2.9
-0.0008	0.003	0	0	3
0.0007	0.0045	-0.0008	0.0007	3.1
-0.003	0.0007	-0.0023	-0.0008	3
-0.0015	-0.0008	-0.0008	-0.0015	3.1
-0.0008	-0.0015	-0.0015	-0.0015	3.1
-0.0023	-0.0008	-0.003	-0.0015	3.1
-0.0008	-0.0015	-0.003	0	2.9
-0.0015	-0.0015	-0.0015	-0.0015	3.1
-0.0015	0.0007	-0.0008	-0.003	3
0.0007	-0.0008	-0.0008	-0.0023	3
0.0015	0	0.0007	-0.0008	3
0.003	0.0007	-0.0008	0.0007	3
0.0015	-0.0008	-0.0015	0.0007	3.1
0.0007	-0.0015	-0.0023	0.003	3
0.0007	0.0007	-0.003	0.0052	3.1
0.0007	0.009	-0.0015	0.0037	2.9
-0.0008	0.0135	-0.0015	0.0015	3.2
-0.0015	0.0112	-0.0015	0.0015	3
-0.0023	0.0067	-0.0023	0	3.1
-0.0015	0	-0.0015	-0.0015	2.9
0	-0.0128	-0.0008	-0.0015	3.1
0	-0.0105	0	0.0007	3
0.0007	0.0067	0.0015	0.0007	3.1
0	-0.0046	0.0022	-0.0023	2.9
-0.0008	-0.0256	0.0007	-0.003	3
-0.0008	-0.0315	0.0015	0	3
0	-0.0195	0.0015	0.003	3.1
-0.0015	0.0045	0.0007	0.0052	3.1
-0.0008	0.0097	0.0015	0.0037	2.9
0.0007	0.009	0.0015	0.0015	3.1
0.0007	0.003	0.0015	0.0015	3.1
0.0015	0.0067	0.0015	0.003	2.9
0.0015	0.0142	0.0007	0.0007	3
0.0007	0.0127	0.0007	-0.0008	3
0.0007	0.012	-0.0008	-0.0015	3.1
0.0007	-0.003	-0.0008	-0.0023	3
0.0015	-0.0143	0.0007	-0.0015	3.1
0.0007	-0.0143	0.0007	-0.0008	3
-0.0008	-0.0181	0.0007	-0.003	3
0.0015	-0.012	0.0007	-0.0023	2.8
0.0007	0.0007	0.0015	-0.003	3.1
-0.0008	-0.003	-0.0008	-0.003	3
-0.0015	-0.0015	-0.0008	-0.0015	3.1
-0.0015	0.0052	0	0.0007	3.1
-0.0015	0.0105	0.0015	0.0052	3
-0.0023	0.018	0.0007	0.0052	3.1
-0.003	0.0195	0.0007	0.0052	2.9
-0.0008	0.0112	0.0015	0.0067	3.1
0.0015	0.0052	0.0007	0.0052	2.9
0	0.0037	-0.0008	0.003	3.1
-0.0008	0.0015	-0.0015	0.0007	3
-0.0015	-0.0015	0.0007	0	2.9
-0.0015	-0.0068	0.0007	-0.0008	3
0.0015	-0.012	-0.0008	-0.0046	3
0.0007	-0.0135	-0.0015	-0.0046	3.1
-0.0008	-0.003	0	-0.0008	3
0	0.0045	0.0015	0.0007	3
0.0007	0.0037	0.0007	0.0007	3.1
0.0022	0.009	0	0.0015	3
0.0015	0.0105	0.0007	0.0037	3.2
0.0007	0.0097	0.003	0.0037	3
0	0.0007	0.0007	0.0007	2.9
-0.0008	-0.006	0	-0.0023	3
0	-0.0015	0	-0.0008	3.2
-0.0008	0.0022	-0.0008	-0.0015	2.9
0.0007	-0.0023	0.0007	-0.0015	3
0.0015	-0.003	0	-0.0008	2.8
0	0	0	0.0007	3
-0.0008	-0.0015	0.0022	0.003	3
-0.0015	-0.0015	0.0007	0.0015	3
-0.0015	-0.0008	0.0007	0.0007	2.9
0.0015	0.0015	0.0015	0.0015	3.1
0.0015	0.0045	0.0015	-0.0008	2.9
-0.0008	0.0067	0.0015	-0.0015	3
-0.0008	0.0007	0.0022	0	3
0.0007	-0.003	0.0037	0	3
0	0.0022	0.0015	-0.0046	3.1
-0.0008	-0.0008	0.0015	-0.006	2.9
0	-0.0015	0.003	-0.0053	3
-0.0008	-0.0015	0.0007	-0.003	3
-0.0008	-0.0023	0.0007	-0.0008	3.1
0.0007	0	0.0015	0.0037	3.1
0.0007	-0.0008	0.0022	0.0037	3.1
0.0022	-0.0008	0.0022	0.0052	3.1
0.0015	-0.0015	0.0015	0.0045	2.8
0.0037	-0.0015	0.0015	0.0037	3.1
0.0007	0.0007	0.0007	0.003	3
0.0007	0.003	0	-0.0008	3
0.0022	0.003	-0.0008	-0.0023	2.9
0.0007	0.003	-0.0008	-0.0023	3
0.0015	0.0007	0.0007	-0.0008	3
-0.0008	-0.0068	0.0007	-0.0038	3
0.0007	-0.0105	0	-0.0015	3.1
0.0015	-0.0008	0.0007	0.0022	2.8
0.0007	0.0052	-0.0008	0.0007	3.2
0.0015	0.0067	-0.003	0.0015	2.9
0.0007	0.021	-0.0008	0.003	3.2
0.003	0.0217	-0.0015	0.0022	3
0.0007	0.0157	-0.003	-0.0008	3.1
0.0015	0.003	-0.003	-0.0023	3
0.0015	-0.0278	-0.003	-0.003	3
0.0015	-0.0443	-0.003	-0.0023	3.1
0.0015	-0.0233	-0.0023	-0.0008	3
-0.0008	-0.0015	-0.003	-0.0008	2.9
0.0007	-0.0015	-0.0046	0.0007	3
-0.0008	0.0045	-0.0015	0.003	3.1
-0.0015	0.003	-0.0023	0.0052	3.1
-0.003	0.003	-0.003	0.0052	3.1
-0.003	0.009	-0.003	0.0045	3
-0.003	0.009	-0.0046	0.0045	3
-0.0015	0.0097	-0.003	0.003	3.1
0.0007	0.0127	-0.003	0.0045	3
-0.0008	0.0157	-0.0015	0.003	3
-0.0008	0.0045	-0.0015	0.0007	3
-0.0008	-0.0023	-0.0008	-0.0015	3
-0.0015	0.0045	-0.0008	-0.0015	3
0.0007	0.0022	-0.0008	-0.0015	3.1
0.0007	-0.0143	0.0015	-0.0008	3
-0.0008	-0.0173	0.0007	-0.0015	3
0.0007	-0.003	0	-0.0008	2.8
0.0015	0.0045	0.0007	-0.0015	3.1
0.0007	0.0052	-0.0008	-0.0015	3
0.0015	0.0022	-0.0008	-0.0008	3
-0.0008	0.0022	-0.0015	0.0007	3.1
0	0.0007	-0.0015	-0.0008	3
0.0007	0.0007	-0.0008	-0.0008	3
0	0.0015	-0.0015	0	2.9
-0.0008	-0.0008	-0.0008	-0.003	3.1
0.0007	-0.0008	0.0015	-0.0023	3.1
0.0007	0	0	-0.0038	2.9
-0.0008	0.0015	-0.0008	-0.0023	3.2
0.0007	0.0067	0.0007	0.0007	3
0.0007	0.0105	-0.0008	0	3.1
-0.0008	0.0097	0	0.0015	2.9
-0.0023	0.0067	0	0.0015	3
0.0007	0.0075	0.0007	-0.0008	3
0	0.0045	0.0015	0.0007	3
-0.003	-0.0008	0.0007	0.0015	3.1
-0.0015	0.0052	0	0.0007	3
-0.0015	0	-0.0008	0	3.2
0.0007	-0.0195	-0.0008	-0.0015	3
-0.0008	-0.0143	-0.0015	-0.0008	3.1
-0.0015	-0.006	-0.0015	-0.0038	3
-0.0008	-0.0203	-0.0008	-0.0046	3.2
-0.0015	-0.0203	0	-0.0008	3
0	-0.0083	0.003	0.0007	3.2
-0.0008	-0.0015	0.0037	0.003	3
0	0.0097	0.0015	0.003	3.1
-0.0008	0.0037	0.003	0.0037	3.1
-0.0015	-0.0135	0.003	0.0052	3.1
-0.0008	-0.0038	0.003	0.0052	3.1
-0.0015	0.0082	0.0022	0.0045	3.1
-0.0015	0.0082	0.0007	0.0015	3
-0.0023	0.0067	-0.0008	0	3
0.0007	0.006	-0.0015	0.0015	3.1
0.0007	0.0022	-0.0008	0.0007	3.1
-0.0015	-0.0046	0.0007	-0.0023	3.1
0	-0.0008	0.0015	-0.0046	3.1
0.0007	0.0082	0.0015	-0.0046	3
0.0007	0.012	0.0015	-0.0023	3.1
0.0007	0.0165	0.003	-0.0015	3
0.0015	0.015	0.0015	-0.0023	3.2
0.0015	0.0142	0.0015	0.0007	2.9
-0.0015	0.0067	0.0015	0.0007	3.2
-0.0015	-0.0068	0.0015	0.0022	3
-0.0023	-0.003	0.0015	0.0067	3.1
-0.0015	-0.0091	0.0015	0.0052	3
0.0007	-0.0263	0.0022	0.003	3.1
0.0015	-0.0143	0.0022	0.0022	3.1
0.0015	0.006	0.003	0.0015	3
0.0007	0.0037	0.0037	0.0007	3.1
0.0015	0	0.0007	-0.0015	2.9
0.0007	0.0015	0.0015	-0.0023	3.2
0.0007	0.0022	0.003	-0.0015	2.9
0	0.0007	0.003	-0.0008	3.1
0.0007	-0.0046	0.003	-0.0008	3.1
0.0015	0	0.003	0.0007	3.1
0.0022	0.0015	0.0015	0.0007	3
0.003	0.0067	0.0022	0	3.1
0.0015	0.012	0.003	0.0007	3.1
0.003	0.0097	0.0037	0	3
0.0015	0.0037	0.003	0	3.1
-0.0008	-0.012	0.0015	-0.003	3.1
0.0015	-0.0143	-0.0008	-0.0023	3.1
-0.0008	0.0022	-0.0008	-0.0023	3.1
0	0.0037	0.0007	-0.0038	3
0	0.003	-0.0008	-0.0023	3
-0.0015	0.0015	-0.0008	-0.003	2.9
-0.0008	-0.0075	0.0007	-0.0023	3.2
-0.0008	-0.0046	0.0007	0.0015	3.1
0.0007	0.0082	0.0015	0.003	3.1
0.0007	0.0127	-0.0008	0.0045	3
-0.0008	0.0052	-0.0015	0.003	3.1
0	0.0037	-0.0023	0.0007	3
0.0015	-0.0015	-0.0038	0.0015	3.2
0.003	-0.0098	-0.0023	-0.0008	3
0.0015	-0.0068	-0.0015	0	3.1
-0.0008	-0.0008	-0.0015	0.0015	3
0	-0.0008	-0.0015	-0.0008	2.9
0.0007	0	-0.0023	-0.0008	3
0.0007	0.0007	-0.0046	-0.0015	3
0.0007	-0.0015	-0.003	0	3
-0.0008	-0.0008	-0.0046	0	3
-0.0008	-0.003	-0.003	0.0015	3
-0.0008	-0.0023	-0.0015	0.0007	3
-0.0008	-0.003	-0.0015	0	3
-0.0008	-0.0008	-0.0008	0.0015	3.1
-0.0008	0.003	-0.0008	0.0007	3
0.0007	0.0067	0	0.0015	3
0.003	0.006	0.0007	0.0007	2.8
0.0045	-0.0008	0	-0.0008	3.2
0.0022	0.0052	0.0015	0.0007	2.8
0.0022	0.0157	0.0015	0	3.1
0.0007	0.0255	0.0007	0.0007	2.9
0	0.0262	-0.0008	0.0007	3.1
0.0007	0.0165	-0.0015	-0.0008	2.9
-0.0008	-0.006	-0.0008	-0.0008	3
0.0022	-0.045	0.0015	0.0007	3.1
0	-0.0503	0.0015	0.0007	3
0.0007	-0.0165	0.0007	0.003	3.1
0.0015	-0.006	0.0015	0.0015	2.8
-0.0008	-0.0046	0.0007	0.0007	3.1
-0.0008	0.003	0.0015	0.0015	3.1
-0.0008	-0.0046	0.0007	0	3.1
0.0007	0	-0.0008	0.0015	3
0.0007	0.009	0.0015	0.003	3
-0.0008	0.0142	0.0015	0.0007	3.1
0.0015	0.0127	0.0022	0.0007	3
0.0015	0.0067	0.003	-0.0015	3.1
0.0007	0.0067	0.0015	-0.0015	2.9
0.0015	0.0037	0.0015	-0.0015	3.1
0.0015	-0.0008	0.0022	-0.0008	3
0	-0.0075	0.0007	-0.0015	3
0.0015	-0.0053	-0.0008	0.0015	3.1
0	0.0082	-0.0008	0.0015	3
-0.0008	0.0142	0	-0.0008	3.2
-0.0015	0.0127	0.0007	0.0007	2.8
-0.0008	0.0082	-0.0008	0.0015	3.2
-0.0008	-0.003	0	-0.0008	2.9
-0.0008	-0.0233	0.0007	-0.0015	3.2
-0.0008	-0.0256	0	0.0007	2.9
-0.0008	-0.0053	-0.0015	0.0007	3.1
-0.0023	-0.0008	-0.0015	-0.0015	2.9
-0.0046	0	-0.0008	-0.0015	3.1
-0.003	-0.0015	-0.0008	-0.003	3.1
-0.0053	-0.0015	0.0015	-0.0015	3.1
-0.0046	0.0075	0.0015	-0.0008	3
-0.0023	0.0045	0.0007	-0.0015	3.1
-0.0038	0	0.0015	-0.0015	3
-0.003	0.0045	0.0022	-0.0015	3
-0.003	0.0045	0.0015	0.0007	3.1
-0.0008	0.0045	0.0015	0.003	3.1
-0.0008	0.003	0.0007	0.0022	3.1
-0.0008	0.0067	0.0007	0.003	3
-0.0008	0.0045	0.0022	0.0015	3
0	0	0.0015	0.0022	3.1
0.0015	0.0037	0	0.003	3
-0.0008	0.0067	0	0.0015	3.1
-0.0008	0.0067	0	-0.0008	3
-0.0015	0.0045	-0.0008	-0.0008	3.1
-0.0015	0.0007	-0.0008	-0.0008	2.9
0.0007	-0.0023	-0.0015	-0.0015	3.1
0.0007	-0.0113	-0.0015	0.0007	3
0.0015	-0.0113	-0.0008	0.0015	3.1
0.0007	0	-0.0008	0.0007	3
0.0015	-0.0008	-0.0008	0.0007	3
0.0015	0.0015	0.0007	0.0007	3
0.0015	0.0052	0.0007	0.0007	3
0.0007	0.0127	-0.0008	0.0037	3.1
-0.0015	0.024	0.0007	0.0045	2.9
-0.0008	0.0172	0.0007	0.0007	3.2
-0.003	0.006	0	-0.003	3.1
-0.0023	-0.015	-0.0008	-0.003	3
0.0007	-0.039	0.0007	-0.0008	3
0	-0.0375	0.0007	0.0015	3
0.0007	-0.0083	0.0007	0.0015	3
0.0015	0.003	0.0015	0.0015	3
0.0015	-0.0008	0.0007	-0.0008	3.1
0.0007	0.0015	0.0007	-0.0038	2.9
0.0007	0	-0.0008	-0.0023	3.1
-0.0008	-0.0023	-0.0023	-0.0015	3.1
0.0007	-0.0046	-0.003	-0.0008	3
0.0007	0.0015	-0.0015	0	3
0.0007	0.0045	0	0.003	2.9
0.0007	0.0015	-0.0008	0.0045	3.1
0.0007	0.0045	-0.0008	0.0015	2.9
0.0015	0.0067	-0.0008	0.0007	3
0.0015	0.0067	-0.0023	0.0007	2.9
0	0.0082	-0.0015	0.0007	3.1
0.0007	0.0082	-0.0008	0	2.9
0.0007	0.0082	-0.0015	0.0022	3.2
0.0015	0	-0.0008	0.0015	3.1
0.0015	-0.0105	-0.0008	0	3
0.0007	-0.0046	-0.0015	-0.0008	3.1
0.0015	0	-0.0015	-0.0038	2.8
0.0015	-0.0008	-0.003	-0.0053	3.1
0.0007	-0.0008	-0.003	-0.0046	3.1
0	-0.0015	-0.003	-0.0023	3.1
0.0007	0.0007	-0.0046	-0.0015	3
0.0022	0.0007	-0.0023	-0.0015	2.9
0.0007	0.0015	-0.0008	0.0007	3
-0.0008	0.012	0.0007	0.0007	3
0.0015	0.0255	0.0007	0.0015	3
0.0007	0.0307	0.0015	0.003	3
0.0015	0.0232	0.0007	0.0022	3
0.0015	0.0022	0	0.0015	2.9
0.0015	-0.0233	-0.0008	0.0052	3.1
0.0022	-0.042	-0.0015	0.0075	3
0.003	-0.024	-0.003	0.006	3.1
0.0007	-0.0046	-0.0015	0.0007	2.8
0	-0.0075	0	-0.0038	3.1
0.0015	-0.0083	-0.0015	-0.0053	2.8
-0.0008	-0.0083	-0.0015	-0.006	2.9
0	0.0037	-0.0008	-0.0015	3
0.0007	0.0037	0.0007	-0.0008	3.1
0.0007	0.0015	0.0007	0.0015	3
0.003	0.0007	0.0015	0.0015	2.9
0.003	-0.0008	0.0015	0.0015	3.1
0.0045	0.003	0.0015	0.0045	3
0.0045	0.0015	0.0015	0.0022	3
0.0015	0.0045	0.0015	0.0007	3
-0.0008	0.006	-0.0008	-0.0008	3.1
-0.0008	0.0075	-0.0015	-0.0023	3
-0.0008	0.0067	-0.0008	-0.0015	3
-0.0023	0.006	-0.0015	-0.0023	3.1
0	0.0037	-0.0008	0.0007	2.9
-0.0008	0.0037	-0.0008	0.003	3.1
0	0.0045	-0.0008	0.0015	2.9
0	-0.0053	-0.0015	0.0015	3
0	-0.003	-0.0008	0.0007	3
0.0022	-0.0008	0.0015	-0.0008	3
0.0015	-0.0015	0.003	0.0007	3.2
0.0007	0.0015	0.0045	0.0007	3
0	0.0045	0.0045	-0.0008	3.1
-0.0008	0.0052	0.0045	0.0007	3
-0.0015	0.0052	0.0015	-0.0008	3.1
-0.0023	0.0037	0.0007	0	3
0	0.0007	0.003	0.0015	3.1
0.0007	-0.0008	0.0015	0.0007	3
-0.0008	-0.0015	0.0037	0.0007	3
-0.0008	-0.0015	0.0007	0.0007	3
-0.0023	0	-0.0008	-0.0008	3
-0.0008	-0.0015	0.0037	-0.0008	3
-0.0008	0.0015	0.0022	0	3
0.0007	0.006	0.0015	-0.0008	3
0.0022	0.0045	0.003	-0.0008	3.1
0.0007	0.0007	0.0015	-0.0008	3
0.0007	-0.0008	0.0015	-0.0008	3.1
-0.0008	-0.003	0.0007	-0.0008	3
0.0007	-0.0053	0	-0.0015	3
0.0015	-0.0023	0.0015	0.0015	2.9
-0.0015	0	0.0015	0.003	3.1
-0.0015	-0.0008	0.0007	0.003	2.9
-0.0023	0.0007	0.0007	-0.0008	3.1
-0.0008	0	0	-0.0008	3
0.0007	0.0082	0.0015	0	3.2
-0.0015	0.0232	0.0007	0	2.9
-0.0015	0.0217	-0.0008	0.0007	3.1
-0.003	0.0157	0.0007	-0.0008	3.1
-0.003	0.009	0.0015	-0.0008	3.2
-0.0023	-0.0165	-0.0008	-0.0015	3
-0.0015	-0.0428	-0.0008	-0.003	3.1
-0.0015	-0.0338	-0.0008	-0.0015	3.1
-0.0015	-0.0068	-0.0015	0.0007	3
0	-0.0015	-0.0023	0.0007	3.2
-0.0015	0.0015	-0.0008	0.003	2.9
-0.003	0.0052	-0.0008	0.003	3.1
-0.003	0.0097	-0.0015	0.003	3.1
-0.0008	0.0165	-0.0015	0.0022	3.1
-0.0008	0.0157	0	0.0007	3.1
-0.003	0.0195	0.0007	0	3.1
-0.0008	0.0165	-0.0008	-0.0008	3.2
-0.0008	-0.0023	-0.0008	-0.0008	3.1
-0.0008	-0.024	0.0007	-0.0008	3.1
0.0007	-0.0233	0	-0.0015	2.9
0.0007	-0.0218	0.0007	-0.0023	3.1
0.0022	-0.0225	0.0007	-0.003	3.1
0.003	-0.0038	-0.0008	-0.0008	3.1
0	-0.0008	0.0015	0.0007	3.1
0.0007	0.0045	0.0015	0.0022	3.1
0.0007	0.0082	0.0015	0.0022	3.1
0.0007	0.0052	0.0007	0.0015	2.8
0	0.0052	0	-0.0008	3.1
-0.0008	0.003	0.0015	-0.0008	3
-0.0008	0.0067	0.0007	-0.0015	3.1
0.0007	0.0067	0.0015	-0.0008	2.8
0.0007	0.0105	0.0007	0.0015	3.2
0.0022	0.0127	0.0007	0	3
0.0007	0.0075	0.0015	-0.0008	3.1
0.0007	0.003	0.0015	0.0007	3.1
0.0007	-0.0008	0.0007	0	3.1
0.0007	-0.0053	0.0015	-0.0008	3
0.0015	-0.0098	0.0022	-0.0008	2.9
0.0015	-0.0023	0.0007	-0.0008	3.1
0.0015	0	-0.0008	-0.0015	3
0	-0.003	-0.0008	-0.0008	3.1
0	-0.0008	-0.0008	0.0007	3
0	0.0007	0.0007	0.0015	3
0.003	0.0045	-0.0008	0.0007	3
0.003	0.0045	-0.0008	-0.0008	2.9
0.0015	0.0052	0.0007	0.0007	3.1
0.0007	0.003	-0.0008	0.0007	2.9
0.0007	-0.0023	0	-0.0008	3
0.0015	-0.0023	0.0015	-0.0008	3
0.0007	0.0007	0.0007	0.0007	3.1
-0.0008	0.0007	0.0007	0.0022	2.8
0	0.0007	0.0007	0.0015	3.1
0.0007	0.0007	0	0.0015	3
0.0007	-0.0015	-0.0008	0.0007	3
0.0007	-0.0015	-0.0008	0.0015	3
0	0.0015	0.0007	0.0007	3
-0.0015	0.0022	0.0007	-0.0015	3
0.0015	0.0045	-0.0008	-0.0015	3
0.0007	0.0067	-0.0008	-0.0008	3
-0.0015	0.003	-0.0008	0.0007	3
-0.0008	-0.0008	0.0007	0.0015	3
-0.0008	-0.0068	0.0007	0.0007	3.1
-0.0008	-0.0143	0.0007	0.0022	3
-0.0015	-0.0068	0.0007	0.0022	3.1
-0.0015	-0.0015	0.0007	0.0007	3
-0.0008	-0.0015	0	0.0007	3.2
-0.0008	0.0007	0.0015	0.0015	2.8
0.0007	0.0015	0.0015	0.0007	3.1
-0.0008	0.0052	0.0007	0.0007	3
-0.0008	0.0045	0.0007	0.0007	3
0.0007	-0.0015	0.0007	-0.0008	3
-0.0008	0.0007	0.0007	-0.0015	3.1
0.0015	0.0022	0.0015	0.0007	3.1
0.0015	0.0022	0.0007	-0.0008	3
0.0022	0.0022	0	-0.0015	3.2
0	0.0015	0.0007	0	2.9
-0.003	0.0015	0.0007	-0.0008	3.1
-0.0015	0.0007	-0.0008	-0.0008	2.8
0.0007	0.0007	-0.0023	-0.0008	3.1
0.0015	0.0007	-0.003	-0.0008	2.9
0.0007	0.0052	-0.0015	0.0015	3.1
0.0007	0.0105	-0.0015	0.0007	3
0.0015	0.0112	-0.003	0.0015	3.1
-0.0008	0.0097	-0.003	0.0022	3
-0.0015	0.0045	-0.003	0.0007	3.1
-0.0008	-0.0023	-0.0023	-0.0015	3
-0.0008	-0.0128	-0.0015	-0.003	3.1
-0.0015	-0.0165	-0.0008	0.0007	3
-0.0008	-0.0046	-0.0015	0	3.1
0.0015	-0.0046	-0.0008	-0.003	3
0.003	-0.0128	0.0015	-0.0008	3
0.0015	-0.0128	0.0015	-0.0023	3.1
-0.0008	-0.0075	0	-0.0015	3.1
0.0007	-0.0008	0.0007	-0.0008	3
0.0007	0.003	0.0007	-0.0008	3
0.0007	0.0135	-0.0008	0.0022	2.9
0.0007	0.0142	0	0.003	3.1
-0.0008	0.0067	-0.0008	0.0015	2.9
0.0015	0.0022	-0.0015	0.0015	3.1
0.0015	-0.0015	-0.0008	0.0015	2.8
0.0007	-0.012	0	0	3.2
0.0007	-0.0091	-0.0015	0.0007	3.1
-0.0008	0.0007	-0.0008	-0.0015	3
-0.0015	0.0007	0.0007	-0.0015	2.9
-0.0015	0.0015	0.0007	0	3.1
0.0007	0.0015	0.0007	-0.0015	3
0.0007	0.0082	0.0007	-0.0015	3
0	0.0142	0.0007	-0.0015	3
0.0007	0.0112	0.0007	-0.0008	3
0.0015	0.0045	0.003	-0.0008	3.2
0.0015	-0.0083	0.0007	-0.0008	2.9
-0.0008	-0.0143	0	0.0022	3.1
-0.0015	-0.006	0.0022	0.003	3
-0.0015	-0.0015	0.0007	0.0007	3.1
-0.0015	-0.0053	0.0007	-0.0008	3
-0.0023	0.0007	0.0015	0.0007	3.1
0	0.0037	0	-0.0008	3
0.0007	0.0015	0.0007	0.0007	3
0.0007	0.0067	0.0015	0.0015	3.1
0.0007	0.0067	0.0007	0.0007	3.1
-0.0015	0.0022	0.0007	0.0022	3
0	0.0022	0.0015	0.0015	2.9
0	0.0015	0.0015	0	3.1
-0.0023	0.0022	0.0007	0.0007	3
0	0.0052	0.0007	-0.0008	3
0.0007	0.0052	0	-0.0008	3
0.0007	0.0037	0	0	3.1
0.0015	0.0022	0	0	3.1
0.0007	0.0015	0.0007	-0.0008	3
0.0022	0.0015	0.0015	-0.0015	3.1
0.003	0.0015	0.0007	0.0007	3
0.0015	0.0015	0.0007	0.0007	3
0.0022	-0.0008	0.0015	0	2.9
0.0045	-0.0053	0.0015	-0.003	3.1
0.003	-0.0158	-0.0008	-0.0053	3.1
0.0045	-0.0188	-0.0008	-0.0046	3.1
0.0037	-0.0068	-0.0008	-0.0008	3.1
0.0015	0	-0.0015	0.0007	3
0.003	0.003	-0.0008	0.0015	3.1
0.0007	0.0045	-0.0023	0.0045	2.9
0.0007	0	-0.0008	0.0022	2.9
0.0007	0.0045	-0.0008	0.0015	3.1
-0.0008	0.0052	-0.0008	0.0022	3
0.0007	0.0052	-0.003	0.0007	3
0	0.0015	-0.003	0.0015	3
-0.0008	0.0015	-0.0015	0.0007	3
-0.0015	0.006	-0.0023	0	3.1
-0.0015	0.0127	-0.0015	-0.0008	2.9
0.0007	0.0195	-0.0015	-0.0008	3.1
-0.0015	0.0172	0	0	3.1
0	0.015	0.0007	0.0007	3.1
0.0015	0.003	0	0.0007	2.9
-0.0008	-0.0105	-0.0008	-0.0015	3
0.0015	0.0015	0	0.0022	3
0.003	0.0187	-0.0008	0.0015	3
0.0015	0.006	-0.0008	-0.0015	3.1
0	-0.0315	0.0007	-0.0015	3
-0.0015	-0.0608	0.0007	-0.0015	3.1
-0.0008	-0.0443	-0.0015	0.0007	2.9
-0.0015	-0.0233	-0.0023	-0.0015	3
0	-0.0128	-0.0023	-0.0023	3.1
0.0007	0.003	-0.0015	-0.003	3
-0.0008	0.0015	-0.0008	-0.003	3.2
-0.0008	0.0105	-0.0008	0.0015	2.9
-0.0008	0.0157	0.0022	0.003	3.2
-0.0015	0.015	0.003	0.0037	3
-0.0023	0.018	0.0015	0.0067	3
-0.0015	0.0142	0.0015	0.0045	3.1
-0.0008	0.0105	0.003	0.0007	3
-0.0008	0.003	0.0015	-0.0008	3
-0.0008	-0.0091	0.0007	-0.0015	3
-0.0023	-0.0135	0	-0.0008	2.9
-0.0015	0.0015	-0.0015	0.0007	3.1
-0.0015	0.0045	-0.0023	-0.0008	3.1
-0.0008	0.0022	-0.0015	0.0015	2.9
0	0.006	-0.0008	0.0015	3.2
0	0.0015	0	0.0015	3
-0.0015	0.0037	-0.0008	0.0015	3.2
-0.0023	0.003	-0.0008	-0.0008	3
-0.0015	0.0045	0.0007	-0.0008	3.1
-0.0023	0.0052	-0.0008	0.0015	2.8
-0.0008	0.0037	-0.0008	0.0015	3
0.0007	0.003	-0.0008	0.0007	3
-0.0008	0.0015	-0.003	0.0015	3
-0.0023	0.0015	-0.0023	0.0015	3
-0.003	0.0007	-0.0008	0.0007	2.9
-0.0023	0.003	0.0015	0.0015	3.2
-0.0008	0.0022	0.0015	0.0007	3
0	0.003	0.003	-0.0008	3.1
-0.0015	0.0015	0.0022	-0.0008	3
-0.0015	-0.0008	0.0015	-0.0008	3
-0.0015	0.0007	0.003	0.0007	3
-0.0008	-0.0008	0.003	0.0007	3.1
-0.0008	-0.0023	0.0022	-0.0008	3.1
-0.003	-0.0053	0.0007	-0.0008	3
-0.0023	-0.0046	-0.0008	-0.0008	3
0.0007	-0.0008	0.0007	0.0007	3
0	0	-0.0008	0.0007	3
-0.0008	0	-0.0008	0.0007	3
0.0007	0.0007	0.0015	0.0007	3
-0.0008	0.0015	0.0007	0	3
-0.0015	0	0	0	3.1
-0.0008	-0.0008	-0.0008	0	3.1
-0.0008	0.0015	-0.0008	-0.0008	3
0.0007	0.0007	0.0007	-0.0008	3
0.0015	0.003	0.0007	-0.0008	2.9
-0.0008	0.0052	-0.0008	0.0007	3.1
-0.0008	0.0052	0.0007	0.0015	3
0	0.0037	0.0015	0.0015	3.1
0	0.0015	0.0007	0.0007	3
-0.0008	-0.0015	-0.0008	0.0007	3.1
-0.0008	-0.0091	-0.0008	0	2.9
0.003	-0.0105	0	-0.0008	3.1
0.0015	-0.0068	-0.0008	0.0007	3
0.0007	-0.0038	0.0015	0.0015	3
0.0015	-0.003	0.0007	0	2.8
0.0007	-0.0015	0.0007	0.0007	3
-0.0008	0.0007	0.0007	0.0015	3.1
0.0015	0.0015	0.0007	0.0007	2.8
0.0015	0.0022	0	0.0015	3.1
0	0.0037	0.0007	0	2.8
0.0022	0.0045	0	-0.0015	3.1
0.003	0.0082	0.0007	0.0007	3
0.0022	0.012	0.0007	0.0015	3.1
0.0007	0.009	0.0015	0	3
0.0007	0.0052	0.0007	-0.0008	3
0.0007	-0.003	0.0007	-0.0015	3
0.0015	-0.0195	0.0015	-0.0015	3.1
0.003	-0.0188	-0.0008	-0.0008	3.1
0.0015	-0.0053	0.0007	0	3
0.0007	-0.0038	0.0007	-0.0008	2.9
0.0007	0.0015	0.0007	0.0007	3
-0.0008	0.006	0.0007	0	3
0.0007	0.003	0.0007	-0.0008	3
-0.0008	0.0045	-0.0008	0	3
-0.0008	0.0022	0.0015	0.0007	3
0	0.0022	0.0007	0.0015	3.1
0.0007	0.003	-0.0015	0.0007	3
-0.0015	0.0052	0.0015	0.0007	3
-0.0015	0.003	0	0.0022	3
0.0015	0.0015	0	0.0022	3
0	0.0015	-0.0008	0	3
0.0015	0.0007	-0.0008	0.0007	3.1
-0.0008	0.003	0.0007	0.0007	3
0.0007	0.0015	0.0007	0.0007	2.8
0.0007	0.003	0.0015	0.0007	3.1
-0.0008	0.0045	0.0015	0	3
0.0007	0.0015	0.0007	-0.0008	3
-0.0008	-0.0008	0.0015	-0.0008	3.1
0	0.0015	0.0015	-0.0008	2.9
0.0007	0.0007	0.0007	0	3.1
0.0015	-0.0046	-0.0008	0	3
0.0015	-0.0053	-0.0015	0.0022	3.2
0.0007	0.0007	-0.0015	0.0015	2.8
0.0015	0.0112	0	0	3.1
0	0.0187	0.0015	0.0007	3
0.0007	0.0202	0.0007	-0.0008	3
-0.0008	0.0127	0.0015	0.0015	3
-0.0008	-0.012	0.0015	0.0007	3
0.0015	-0.0398	0.0015	0.0015	2.9
0.0007	-0.0293	0.0007	0.0045	3
0.0015	-0.0015	-0.0008	0.0045	3.1
0.0015	0.0007	0.0015	0.0037	2.9
0.003	0.003	0.0022	0.003	3
0.0037	0.0037	0.0007	0.0022	3
0.003	0.0007	0.0007	0.003	3
0.003	0.003	-0.0008	0.0022	3
0.003	-0.0008	-0.0015	0.0015	2.9
0.0007	0.0007	-0.0015	0.0007	3.1
0.0022	0.0015	0	0.0015	3.1
0.0022	0.003	0.0007	0.0007	3.1
0.0007	0.006	0	-0.0023	2.9
0.0022	0.0052	0	-0.0038	3
0.0022	0.0045	0	-0.0053	2.8
-0.0008	0.0007	0.0007	-0.0068	3.1
-0.0015	-0.0068	-0.0008	-0.0053	2.8
-0.0008	-0.0083	-0.0008	-0.0023	3.1
0	0.0022	0.0007	-0.0015	2.9
-0.0015	0.003	0.0007	-0.0008	3.1
-0.0015	0.0015	-0.0008	0.0015	3
-0.003	0.003	0	0.0007	3
-0.0008	0.0007	0.0022	0.0015	3.1
-0.003	0.003	0.003	0.0015	2.9
-0.003	0.003	0.0007	0.0007	3.1
-0.0008	0.0015	0.0015	0.0007	3
-0.003	0.0015	0.0015	0.0007	3
-0.0008	0.0007	0.0015	-0.0008	2.9
-0.0015	-0.0015	0.0007	-0.0008	3.2
-0.0015	-0.003	-0.0008	0.0007	2.9
-0.0015	-0.003	0.0015	0	3.1
-0.0008	0.0007	0.0015	0.003	3
-0.0008	0.0067	0.0015	0.003	3
-0.0008	0.0015	0.0022	0.0015	3
-0.0015	0	0.0015	0.0022	3
-0.0015	0.0022	0.0015	0	3
0	0.0052	0	0	3
-0.0015	0.0127	0.0015	-0.0008	3
-0.0008	0.0127	0.0015	-0.0015	2.7
0	0.0142	0.0022	-0.0015	3
0.0007	0.0067	0.0007	-0.0015	2.8
0	-0.0203	0	-0.003	3
0	-0.0436	0.0007	-0.0038	3
-0.0008	-0.0315	-0.0008	-0.0015	3.1
-0.003	-0.0068	0	-0.0015	3.1
-0.0023	-0.0008	-0.0023	-0.0015	3
-0.003	0.012	-0.003	-0.0008	3
-0.0015	0.0202	-0.0023	-0.0008	2.8
-0.0008	0.0195	-0.003	-0.0008	3
-0.0008	0.0165	-0.0038	-0.0008	3
0.0015	-0.003	-0.003	-0.0015	3
0.0015	-0.0181	-0.0008	0.0015	3
0.0007	-0.0128	0	0.003	3
-0.003	0.0067	-0.0008	0.0022	2.9
-0.0038	0.0045	-0.0015	0.0015	2.9
-0.0008	-0.0046	-0.0015	-0.0015	3.1
-0.0008	-0.0165	-0.0008	-0.003	2.7
-0.0015	-0.0128	-0.0023	-0.003	3.1
0	0	-0.003	-0.0015	2.9
-0.0015	-0.0053	-0.0015	-0.0015	3
-0.0008	0.0052	-0.0008	0.0007	2.9
-0.0008	0.009	-0.0008	0.0037	3
-0.0023	0.0127	0	0.0045	3
-0.0008	0.012	0.0015	0.0015	3
0	0.0045	0.003	0.003	3
0.0007	0	0.003	0.0015	2.9
0.0022	-0.0015	0.0015	0.0007	2.9
0.0007	-0.0008	0.0015	0.0015	3
0	0.003	0	0.0015	2.9
0	0.0045	-0.0008	0.0037	3
0.0007	0.003	-0.0015	0.003	3.2
-0.0008	0.0052	-0.0008	0.0015	3
0.0007	0.003	-0.003	0.0022	3.1
0.0007	0.0052	-0.0015	0.0007	2.9
-0.0008	0.003	-0.0015	0.0007	3
0.0007	0.0007	-0.003	0.0007	2.9
0	-0.0015	-0.0008	0	3
0	-0.0015	0.0007	0	3
0.0015	0.0015	-0.0008	-0.0015	2.9
0.0007	-0.0008	-0.0008	-0.0008	3
0.003	0.0015	0.0007	0	3
0.0015	0	-0.0015	0.0007	3
0.0007	-0.0015	-0.0015	0	2.9
0.0015	-0.0008	-0.0015	-0.0008	3.1
0.0007	-0.003	0.0007	-0.003	3.1
0	-0.003	0.0007	-0.003	3
0.0007	-0.003	-0.0008	-0.0015	3.1
0.0007	0	0.0007	0	3
-0.0008	0.0015	0.0007	0.0015	3
0.0015	0.006	-0.0008	0.0015	3
0.0015	0.0135	-0.0008	0.0007	2.9
0.0007	0.0165	-0.0015	0.0015	2.8
0.0007	0.0097	-0.0015	-0.0008	3
0.003	0.0007	-0.0008	-0.0008	3
0.0007	-0.0165	0	-0.0008	3
-0.0015	-0.0293	0.0007	-0.0008	2.8
0.0022	-0.012	0.0007	0.0015	3
0.0015	0.0067	0.0007	0.0015	3.1
0.003	0.0052	0.003	0.0022	3.1
0.0022	0.003	0.0007	0.0015	2.9
0.0015	0	0.0007	-0.0008	3
0.0007	0.0015	0.0015	0.0007	3
-0.0015	0	0.0007	0	2.9
-0.0015	0	0	0	3
-0.0015	0.0015	-0.0008	0.0015	3
0	0	0.0007	-0.0008	3
0.0007	0.0022	0	-0.0008	3.1
0	-0.0008	-0.0008	-0.0008	2.9
-0.0008	0.0007	0	0.0015	3
0	-0.0015	-0.0008	0.0015	3
0.0007	-0.0053	0.0015	0.0015	3.1
0	-0.0015	0.0015	0.0022	2.8
-0.0008	0.0045	0.0007	0.0007	3.1
-0.0015	0.0045	0.003	0	2.8
-0.0008	0.0052	0.0015	0.0007	3
-0.0008	0.0052	0.0015	0.0007	3.1
-0.0015	0	0.0015	0.0007	3
-0.0008	-0.0008	0.0007	0.0007	3
-0.0008	-0.0008	0.0015	-0.0015	2.8
-0.0015	0.0007	0.0007	-0.0008	3
-0.0015	0.0022	0	-0.0008	2.8
0	0	-0.0015	0.0007	3.1
0.003	0.0007	0.0007	0.0007	2.9
0.0022	0.0007	0.0007	0.0007	3
-0.0008	0.0015	0.0007	0	2.9
0	0	0.0007	-0.0008	3
0.0007	-0.0008	-0.0008	0	2.8
0.0015	-0.0008	0.0015	0.0007	3
0.0007	0.0007	0.0015	0.0007	2.8
0.0015	0.0007	0.0007	-0.0008	2.9
0.003	0.0007	0.0007	-0.0015	3
0.0007	0.0007	-0.0015	-0.0015	3
-0.0008	-0.0023	-0.0008	-0.0023	3
-0.0015	-0.0053	0.0007	-0.0015	2.9
-0.0023	-0.0046	0.0007	0	3.1
-0.0015	-0.0023	0.0007	-0.0008	2.9
-0.0015	0.0052	0.0007	0	3
-0.0008	0.0045	0	0.0007	3
0	-0.0015	0.0007	-0.0008	3.1
0.0007	0.0015	0.0007	0	3
-0.0008	0.0022	0.0007	0.0015	3
-0.0008	0.0022	-0.0008	0.0007	3
0	0.0015	0	0	2.9
-0.0015	0.0007	-0.0008	0.0015	2.9
0	0	-0.0008	0.0015	2.8
-0.0015	0	0.0007	0	3.1
-0.003	0.0007	0.0007	0	3
-0.0008	0	0.0022	0.0007	3
-0.0008	0.0007	0.0007	0.0007	3.1
-0.0008	0.0007	-0.0008	0.0007	2.8
0.0007	-0.0008	0.0007	0.0015	3.1
0.0015	0.003	0.0015	0.0007	2.8
0.0015	0.0135	-0.0008	0.0007	3.1
0.0007	0.018	-0.003	-0.0008	3
0	0.024	-0.003	0.0015	3.1
0.0015	0.0247	-0.0015	0.0015	2.8
0	0	0	-0.0015	3.1
0	-0.012	-0.0008	0.003	2.9
0	0.0045	0	0.0037	3
0.0015	-0.012	0.0022	0.0015	2.8
0.0037	-0.0233	0.0007	0.003	3
0.003	-0.0158	0.0015	-0.0008	2.9
0.0015	-0.042	0.0007	-0.0023	3
0.0015	-0.0511	0.0015	-0.0015	3
0.0007	-0.0225	0.0037	-0.0015	2.8
0.0015	-0.0046	0.0015	-0.0008	3.1
0	-0.003	0.003	-0.0008	2.8
-0.0008	0.0037	0.0022	-0.0008	3.1
-0.0008	0.0067	0	0.0007	2.7
-0.0008	0.009	-0.0008	0.0015	3
0	0.0105	-0.0008	0.0015	2.8
0.0015	0.0067	-0.0008	0.0007	3
0.0007	0.006	-0.0015	-0.0008	2.8
0	0.003	-0.0015	-0.0008	3
0	0.0037	0	0.0007	2.9
0.0007	0.0075	0	0.0015	3.1
-0.0008	0.0127	-0.0008	-0.0015	2.9
-0.0015	0.0142	-0.0015	-0.0008	2.9
-0.0008	0.015	-0.0015	-0.0023	2.9
0.0007	0.015	-0.0008	-0.0046	3
0.0015	0.0045	0	-0.0046	3
0.0007	-0.0135	-0.0015	-0.0053	3
-0.0008	-0.0068	-0.0015	0.0007	2.9
-0.0008	0.0052	0.0015	0.003	3
-0.0015	-0.0098	0.0045	0.003	2.9
0.0007	-0.0113	0.0045	0.0052	2.9
0.0007	-0.0023	0.003	0.0052	3
0	-0.0038	0.003	0.0045	2.9
0	-0.003	0.003	0.0067	2.8
0	0.006	0.0022	0.0067	3
0.0007	0.009	0.0015	0.0045	3
0	0.0052	0.0007	0	3.1
0.0007	0.0052	0.0015	-0.0015	2.9
-0.0008	0.0067	0.0007	-0.0008	3.1
0.0015	0.0105	0.0007	-0.003	3
0.003	0.0082	0.0007	-0.0046	2.9
0.0022	0.003	-0.0008	-0.0053	3
0.0007	0.0022	0.0007	-0.0038	2.9
0.0007	-0.0015	-0.0008	-0.0023	2.9
0.0022	-0.0015	-0.0008	0.0007	2.9
0.0015	0.003	-0.0008	0.006	3
0.003	0.003	-0.0008	0.006	2.7
0.0007	-0.0015	0	0.0037	3
-0.0008	0	0.0007	0.003	2.9
0.0022	0.0015	0.0007	0.0037	3
0	0.003	-0.0008	0.003	3
-0.0008	0.0052	-0.0008	0.003	3
0.0007	0.0015	-0.0008	0.0007	2.8
0.0007	0.0037	0	-0.0008	3
-0.0008	-0.0008	0.0015	-0.0008	2.9
-0.003	-0.003	0	-0.0008	3
-0.0008	0.0007	0.0007	0.0015	2.9
-0.0015	0.0052	0.0007	0.0015	3
-0.003	0.009	0.0007	0.003	2.8
-0.0023	0.0052	0.0007	0.0015	2.8
-0.0046	-0.0023	-0.0008	-0.0008	3
-0.003	-0.012	0.0007	-0.0023	2.8
-0.0008	-0.0165	-0.0008	-0.0015	2.9
0.0015	-0.0068	0	0.0007	2.9
0.0015	-0.0008	-0.0008	-0.0015	3
0.0007	0	-0.0008	-0.0015	2.9
-0.0008	0.0045	-0.0015	0.0007	2.9
-0.0015	0.003	-0.0008	-0.0008	3.1
-0.0015	0.0022	-0.0008	0.0007	2.9
-0.0023	-0.0038	-0.0023	0.0015	3
-0.0008	-0.0083	-0.0023	-0.003	2.8
0.0015	-0.0046	-0.0015	-0.0015	2.9
0.0022	0.0007	-0.0008	-0.0015	2.9
0.0015	-0.0008	0	-0.0015	2.9
0	-0.0015	-0.0008	0.0007	2.9
0.0015	0.0022	-0.0008	-0.0008	2.7
0	0.003	-0.0008	-0.0008	3.1
-0.0008	0.0037	-0.0008	0.0015	2.8
-0.0008	0.0067	0.0007	0.0015	3
0	0.0045	0	-0.0015	2.7
0.0015	-0.0046	-0.0008	-0.0038	3
0.0015	-0.0091	0.0007	-0.0046	2.7
0.0007	-0.0083	-0.0008	-0.003	3
-0.0015	-0.0135	-0.0008	-0.003	2.8
-0.0008	-0.0091	0.0007	-0.0008	3.1
-0.0015	0.012	0.0015	0.0022	2.8
-0.003	0.0172	0.003	0.0007	3
-0.0015	0.0202	0.0007	0.0007	2.8
-0.0008	0.0345	0.0007	0.0037	2.9
0	0.0247	0	0.0045	2.9
-0.0008	0.0082	-0.0008	0.0052	2.9
-0.0015	-0.0038	-0.0015	0.0007	3.1
-0.0023	-0.0346	-0.0023	-0.0053	2.8
-0.0008	-0.0518	-0.0015	-0.0053	3.1
-0.0008	-0.0293	-0.0008	-0.0046	2.9
-0.0008	-0.0218	0	-0.003	3.1
0.003	-0.0091	0	-0.0008	3
0.0007	0.0015	0.0007	-0.0023	3
0	-0.0015	0.0015	-0.0046	3
0.0015	0.006	0.0015	-0.0038	3
0.003	0.0082	0	-0.003	2.8
0.0037	0.018	-0.0015	-0.0015	2.8
0.0022	0.0202	-0.0015	-0.0008	3.1
0.0015	0.0157	-0.0023	0	3
0.0022	0.0142	-0.0015	0.0037	2.8
0.0015	0.0007	-0.0015	0.0052	2.9
0.0015	-0.0218	-0.0008	0.0022	2.9
0.0007	-0.0256	0.0007	0.0022	2.8
0.0007	-0.0038	0.0007	0.0052	2.9
-0.0008	0.0015	0.0007	0.0082	2.8
0.0007	0.0075	0.0015	0.0067	2.9
0.0015	0.012	0.0022	0.0045	2.7
0.0015	0.012	0.0007	0.0052	2.9
0.0015	0.0135	0.0015	0.006	2.9
0.0022	0.006	0.0015	0.0075	2.8
0.003	-0.003	0.0007	0.0045	3
0.0022	-0.0083	0	0.003	2.8
0.0022	-0.0015	-0.0008	0.0052	3
0.0007	0.003	0	0.0007	2.8
0	0.0007	0.0007	-0.0015	2.8
0.0007	0.0007	0.0007	-0.0015	3
0.0007	-0.0046	-0.0008	-0.0046	2.9
0.003	-0.0068	-0.0023	-0.0038	2.9
0.0015	0.0007	-0.0015	-0.006	2.6
0.0015	0.009	-0.0023	-0.0053	3
0.0022	0.006	-0.0015	-0.003	2.6
0	0.0037	-0.0015	-0.0023	3
-0.0015	0.0045	-0.003	0.0007	2.8
-0.003	0.0067	-0.003	0.0007	3.1
-0.0023	0.0067	-0.0038	0.0022	2.8
-0.003	0.0045	-0.0023	0.003	3
-0.0015	0.003	-0.0015	0.0007	2.9
-0.0015	0.0015	-0.0015	0.0015	3.1
-0.0015	0.003	-0.0008	0	2.7
-0.003	0.0015	-0.0015	0.0007	3
-0.003	0.0022	-0.0015	0.0015	2.8
-0.0015	0.0037	-0.0015	0.0007	2.9
-0.003	0	-0.003	-0.0008	2.9
-0.0046	-0.003	-0.003	-0.0008	2.9
-0.0038	-0.003	-0.0008	-0.0008	3.1
-0.003	-0.0008	0	-0.0023	2.7
-0.0015	-0.0015	0.0007	-0.0023	3.1
0	-0.003	0	-0.0038	2.7
0	-0.0023	-0.0015	-0.003	3.1
-0.0008	-0.0023	-0.0008	-0.0023	2.7
-0.0015	-0.003	-0.0015	-0.003	3
-0.003	0.006	0.0007	-0.003	2.9
-0.0015	0.0172	0.0015	0	3
-0.0023	0.0165	-0.0008	0.003	2.8
-0.003	0.0097	0	0.0045	2.8
-0.003	0.0015	0.0015	0.0037	3
-0.0008	-0.012	0.0015	0.0022	2.9
-0.0008	-0.0135	0.0007	-0.0008	2.9
0	-0.006	0.0007	-0.006	2.9
-0.0008	-0.0083	0.0007	-0.0091	3
-0.0008	-0.0181	-0.0008	-0.0053	3
0.0015	-0.0315	0.0007	-0.0008	2.9
-0.0008	-0.015	0.0015	0.0052	2.9
0.0015	-0.003	0.0052	0.0067	3
0.0015	-0.0015	0.0045	0.0082	2.9
-0.0015	0.0105	0.0052	0.0067	3
0.0007	0.0052	0.0052	0.0022	3
0	0.003	0	0.003	2.9
0	0.003	-0.0008	0.0007	3
-0.0008	0.0045	0.0007	0.0007	3
0.0007	0.006	0	0.0007	3.1
0.0015	0.0052	0.0007	0	2.7
0.0007	0.0075	0.0007	-0.0008	3
0.0007	0.009	-0.0015	0.0007	2.9
0.0007	0.009	-0.0008	0.003	3
-0.0008	0.0052	0	0.0007	2.9
0	0.0045	0.0022	0.0007	2.8
0.0015	0.0022	0.0015	-0.0008	2.8
0.003	0.0015	0.0007	-0.0015	3
0.0007	0.003	0.0007	-0.0015	3
0	0.003	0.0015	-0.0015	2.9
0.0007	0.0045	0.0015	-0.0015	2.9
-0.0008	0.0015	0.0015	-0.0015	2.8
0	0.0007	-0.0008	-0.0015	3
0.0007	0.0052	-0.0008	-0.003	2.9
0.0007	0.0082	-0.0015	-0.003	3
0	0.015	-0.0015	-0.0015	3
0.0007	0.0195	0.0007	-0.003	3.1
-0.0008	-0.0008	0.003	-0.0023	3
-0.0008	-0.0203	0.003	0.0007	3.1
-0.0008	-0.0188	0.0015	0	3
-0.0015	-0.0165	0.0015	-0.0008	3
-0.0008	-0.0158	0.003	0.0007	3
-0.0008	-0.0091	0.003	0	2.9
0.0007	-0.0113	0.003	0.0007	3
0.0007	0.003	0.0022	0.0037	3
-0.0023	0.0157	0.0007	0.0045	3
-0.0008	0.0225	0.0022	0.0045	3
0	0.0232	0.0022	0.0037	3
0.0022	0.012	0	-0.0008	3
0.0015	-0.0068	0.0007	-0.0053	3
0	-0.0353	-0.0008	-0.0068	3
0.0007	-0.0256	-0.0015	-0.0038	2.8
0	0.003	-0.0008	-0.0008	3
0.0007	0.0082	0	-0.0008	3.1
0.0015	0.0037	-0.0015	0.0015	3
0.0015	-0.0053	-0.0015	0.0037	3
0.0007	-0.0008	-0.0008	0.0067	2.8
0.0015	0.0105	0.0007	0.0075	3
0.0007	0.0112	0	0.006	2.8
0.0022	0.0045	-0.0008	0.003	3
0.003	-0.0165	-0.0008	-0.0015	2.7
0.0015	-0.0308	0.0007	-0.0015	3
0.0015	-0.0091	0.0022	0.0007	2.9
0.0007	0.0052	0.0015	0	3
0	0.003	0.0015	0	2.6
-0.0008	0.0067	0.0015	-0.0008	3
-0.0015	0.0045	0	-0.0008	2.8
-0.0008	0.0045	-0.0008	-0.0023	3.1
0.0015	0.0022	-0.0023	-0.0023	2.9
0.0015	0.0022	-0.0008	-0.0015	3.1
0	0.0022	-0.0008	-0.0008	2.9
-0.0008	-0.0015	-0.0008	0	2.9
0	0	0.0015	0.0015	2.9
0.0007	0.0007	0.0015	0.0007	2.8
-0.0008	0.003	0.0015	0.0022	3
-0.0015	0.003	0.0015	0.0022	2.9
-0.0015	0.0037	0.0015	0.0037	3
-0.0023	0.0045	0.0007	0.0052	2.9
-0.003	0.0067	0.0007	0.003	2.8
-0.003	0.012	0.0007	0.0015	2.9
-0.0015	0.0112	0.0015	0.003	3
-0.0023	0.0127	0.0007	0.003	3
-0.0015	0.0067	0.0015	0.003	3
-0.0015	-0.012	-0.0008	-0.0008	3.1
-0.0015	-0.0128	-0.0015	-0.0008	2.9
0.0007	0	0.0022	-0.0008	3
-0.0008	-0.0015	0.003	-0.0023	3
-0.0015	-0.0008	0.0015	-0.0015	2.9
0.0007	0.0007	0.003	-0.0023	3
0.0015	-0.0008	0.003	-0.0015	3
0.0007	0.003	0.003	0	3
-0.0008	0.0037	0.0022	-0.0015	2.8
-0.0008	0.0045	0.0007	0.0007	3
-0.0015	0.0045	0.0007	0.0015	2.8
-0.0046	0.0007	-0.0008	0.0007	3.1
-0.003	-0.0083	-0.0015	-0.0008	2.9
-0.0008	-0.0105	-0.0008	-0.003	3
-0.0015	-0.0143	0.0022	-0.0015	3
0	-0.0158	0.0022	-0.0015	3.1
0.0007	-0.003	0.0007	-0.0023	2.9
0.0007	0.0142	-0.0008	-0.0008	3
0.0007	0.012	-0.0008	0.0015	2.9
0.0007	-0.0053	-0.0023	0.0007	3
0.0007	-0.0015	-0.003	-0.0015	2.9
0.0007	0.0007	-0.0015	-0.0015	2.9
0.003	0.003	-0.0008	-0.003	3
0.0045	0.0105	-0.0008	-0.0038	2.7
0.0037	0.0142	-0.0015	-0.0023	3.1
0.003	0.0195	-0.0015	-0.0008	2.9
0.0015	0.0097	-0.0008	0.0015	3
0.0015	-0.0046	-0.0008	0.003	2.9
0.0015	-0.0105	0.0007	0.0052	3
0.0015	-0.0165	0	0.003	2.9
0.0007	-0.0218	0	0.0015	2.9
-0.0008	-0.0091	0.0007	0.0045	2.9
0.0022	0	-0.0008	0.0037	3
0.0045	-0.0023	0	0.0045	3
0.0022	0.0045	-0.0023	0.0052	2.9
0.0015	0.003	-0.0015	0.0052	2.8
0.0037	0.003	0	0.0045	3
0.0052	0.0015	-0.0015	0.0045	3
0.0037	0.0015	-0.0015	0.003	3
0.0045	0.0015	-0.0008	-0.0008	3
0.003	0.0015	-0.0008	-0.0008	3
0.003	0.0037	-0.0008	-0.0015	2.9
0.0037	0.003	0	-0.0015	2.8
0.003	0.003	-0.0015	-0.0015	2.9
0.003	0.0015	-0.003	-0.003	3
0.0007	0.0015	-0.0023	-0.0023	2.8
0	0.0022	-0.0008	-0.003	2.9
0.0007	0.003	-0.0008	-0.003	2.9
-0.0015	0.0045	-0.0015	-0.0015	3.1
-0.0008	0.0052	-0.0008	-0.0008	2.9
0.0007	0.0037	-0.0015	-0.0008	2.9
0	0.0007	-0.003	0	2.9
-0.0023	0.0037	-0.0038	0	2.9
-0.003	0.0045	-0.0015	0.0007	3
0.0007	0.0075	-0.0008	0.0022	2.8
0.0015	0.009	-0.0023	0.0015	2.9
-0.0008	0.0052	-0.003	0.0015	2.9
-0.0008	-0.0015	-0.0008	0.0007	3
-0.0008	-0.0128	-0.0015	-0.0015	2.8
-0.0015	-0.0181	-0.003	-0.0015	2.9
-0.0015	-0.0098	-0.0015	-0.0015	2.8
0	-0.003	0.0007	-0.0015	2.9
-0.0008	0.0022	0.0015	-0.0015	2.8
-0.0015	0.0067	0	0.0007	2.9
-0.0008	0.0045	0.0015	0.0015	3.1
-0.0008	0.003	0.0007	0	2.7
-0.0015	-0.006	0	-0.0015	2.9
-0.0008	-0.0083	-0.0008	-0.0038	3
-0.0008	0	-0.0015	-0.0075	2.9
-0.003	-0.0038	0.0015	-0.0075	2.9
-0.0046	-0.0075	0.003	-0.0083	2.9
-0.0015	-0.0091	0.0045	-0.0053	2.9
-0.0023	-0.0098	0.0067	-0.0008	3
-0.0008	-0.0068	0.0067	0.0052	3
-0.0008	0.0082	0.006	0.009	2.8
-0.0008	0.021	0.0052	0.009	3
-0.0008	0.024	0.0045	0.0067	2.8
-0.0015	0.0232	0.003	0.0052	3.1
-0.0008	0.0142	0.003	0.0045	2.6
-0.0023	-0.0046	0.0015	0.0015	3
-0.0015	-0.0346	0.0015	-0.0015	2.7
-0.0015	-0.0405	0.0015	-0.0008	2.9
-0.003	-0.0113	0.0015	0.0015	2.9
-0.0015	-0.0015	0.0007	0.0007	2.9
-0.0015	0.0015	0.0007	-0.0015	2.9
-0.0015	0.0045	0.0015	-0.0008	2.8
-0.0015	0.0045	0.0015	-0.0015	2.9
-0.0015	0.0082	0.0007	-0.0008	2.8
-0.0015	0.0045	0.0007	-0.0008	3
-0.0015	0.0097	0.0007	0	2.9
0.0007	0.0165	0.0007	0.0007	3
0	0.0217	0.0007	0.003	2.8
-0.0015	0.0277	0.003	0.003	3
0.0007	0.0217	0.0015	0	2.8
-0.0008	0.0015	0	-0.0008	3
-0.0008	-0.0128	0.0007	0	3
-0.0008	-0.024	-0.0008	-0.0015	2.9
-0.0008	-0.0405	-0.0008	-0.0008	3
0.0007	-0.0293	-0.0008	-0.0015	3
0.0015	-0.012	-0.0008	-0.0053	2.9
0.0015	-0.0075	-0.0015	-0.0053	2.9
0.0015	0.0015	-0.0015	-0.0046	2.9
-0.0015	0.003	-0.0008	-0.003	2.8
0.0007	0.0052	-0.0008	0.0022	2.9
0.003	0.0082	-0.0008	0.0045	2.8
0.0015	0.009	-0.003	0.003	2.9
0.0022	0.0052	-0.003	0.0007	3
0.0007	0.0022	-0.003	0.0015	2.8
0.0015	0.003	-0.003	0.0007	3
0.0022	0.0052	-0.0008	0	2.9
0.0007	0.0067	-0.0023	0.0007	3
0.0007	0.0045	-0.0023	0.0022	2.8
-0.0008	0.003	-0.0023	0.003	3
0	0.003	-0.0008	0.0022	2.8
-0.0015	0.0037	-0.0023	0.0015	3
-0.0008	0.003	-0.0015	0.003	2.9
0.0015	0.0037	-0.0023	0.003	3
-0.0008	0.006	-0.0015	0.003	2.8
0.0007	0.0045	-0.003	0.0015	2.7
0.0007	0.003	-0.003	0	3
-0.0008	0.0037	-0.003	0.0022	2.6
0.0015	0.0037	-0.003	0.0007	3.1
0.0015	0.0007	-0.0008	0	2.7
0.0007	-0.0015	-0.0015	-0.0008	3.1
0.0007	-0.0015	-0.0023	0	2.8
-0.0008	-0.003	-0.003	-0.0008	3.1
-0.0008	-0.0023	-0.003	-0.0015	2.9
-0.0008	-0.0008	-0.0015	-0.0015	3
0	-0.0023	-0.0023	-0.0008	2.8
-0.0008	0.0015	-0.0008	0.0015	3
-0.0023	0.0045	-0.0015	-0.0008	2.8
-0.0015	0.0015	-0.0015	-0.0008	3
-0.0008	-0.0008	-0.0008	-0.0008	2.8
0	-0.0008	0.0007	-0.0023	2.9
0.0007	-0.0046	0.0007	-0.0023	3
0	-0.012	-0.0008	-0.0008	2.8
-0.0008	-0.006	0.0007	0.0015	3
0	0.0015	0.003	0.0015	2.9
-0.0008	-0.0008	0.003	0.0015	3
-0.0008	-0.0008	0.0015	-0.0008	3
0.0015	-0.0023	0.0007	-0.0008	3
0.0007	-0.003	0.0007	0.0007	3
0.0007	0.0045	0.0022	0.0015	2.7
0.0022	0.009	0.003	0	3
0.0015	0.0082	0.0015	-0.0046	2.9
-0.0008	0.0067	0.0015	-0.003	3
0.003	0.0037	0.0015	-0.0038	2.9
0.003	-0.0083	0.003	-0.006	2.8
0.0007	-0.0135	0.0015	-0.0008	2.9
0.0007	-0.0083	0.003	0.0015	2.8
0	-0.003	0.0045	0.0015	3
0.0007	-0.0075	0.003	0	2.7
0.0015	-0.0023	0.003	0.0015	3
0.0007	0.0112	0.0037	0.0045	2.8
0.0007	0.0217	0.003	0.0075	3
0.0007	0.0165	0.003	0.0075	2.8
-0.0008	0.0045	0.0045	0.0037	2.9
0	-0.0083	0.0052	0	2.9
0.0007	-0.0225	0.0037	-0.003	3
-0.0008	-0.0195	0.003	-0.0023	2.8
0.0007	-0.0091	0.0022	-0.003	3
0.0007	-0.0015	0.0015	-0.003	2.9
0.0007	0.0202	0.0007	0.0007	2.9
-0.0008	0.0277	0.0007	0.0015	2.9
0	0.018	0.0007	0.003	2.9
0.0007	0.012	0	0.0015	2.8
-0.0008	0.0022	-0.0015	-0.0008	2.9
-0.0008	-0.0188	0	-0.0008	3
-0.0015	-0.039	0.0007	-0.003	2.7
-0.0008	-0.0203	0.0022	-0.0015	2.9
-0.0015	0	0.0045	-0.0008	2.8
0	-0.0008	0.003	0	2.9
-0.0008	0.0067	0	-0.0008	2.7
-0.0008	0.0097	0.0007	-0.0023	2.8
0	0.0142	0.0007	-0.0023	3
-0.0008	0.0082	0.0007	-0.0015	2.6
-0.0008	0.0082	0.0007	0.0007	3
-0.003	0.0082	0.003	0.0022	2.6
-0.0008	0.003	0.0022	0.003	3
-0.0008	0.0052	0.0007	0.003	3
-0.0015	0.003	0.0015	0.003	2.9
-0.0008	0.0105	0.003	0.0052	2.9
-0.0015	0.0217	0	0.0015	2.8
0	0.0232	-0.0008	-0.0023	3
0.0015	0.0045	-0.0008	-0.0023	2.8
0.0007	-0.033	0	-0.0046	2.8
0	-0.0563	0.0007	-0.003	2.8
-0.0015	-0.0308	0.0007	0.0015	3.1
-0.0008	-0.0075	-0.0008	0.003	2.8
0.0007	-0.0046	-0.0015	0.0045	3
0.0015	0	-0.0008	0.0045	2.8
0.0007	-0.0015	-0.0008	-0.0015	2.9
0.0007	-0.0053	-0.0015	-0.003	2.8
0.0007	0.0007	0	-0.003	2.9
0.0015	0.0165	-0.0008	-0.0046	2.8
0.0015	0.0142	-0.0015	-0.0053	2.9
-0.0008	0.009	-0.0008	-0.003	2.9
0.0007	0.0097	-0.0008	0.0007	2.9
0.0007	-0.0015	0	0.0022	3
-0.0015	-0.0188	-0.0015	0.003	2.7
0	-0.0158	-0.0015	0.0052	3
0.0007	0.0052	-0.0015	0.0067	2.7
-0.0008	0.0082	-0.003	0.0052	3.1
0	0.015	-0.0015	0.0015	2.9
0.0007	0.0165	-0.0015	-0.0008	2.9
0.0007	0.0105	-0.0015	0.0015	3
0.0015	0.009	-0.0015	0.003	2.8
0.0015	-0.0046	-0.0023	0	3
0.0015	-0.0143	-0.003	-0.0008	2.7
0.0015	-0.0053	-0.0023	0.0022	3.1
0.0007	0.0082	0	0.003	3
0.0007	0.0075	-0.0015	0.0015	3
0.0007	0.0052	-0.0008	0	3
0.0007	-0.0015	-0.0015	0.0007	2.9
0.0015	-0.012	-0.0023	-0.0015	3
0.0015	-0.012	-0.0008	0	2.9
0	-0.0015	-0.0008	0.0015	2.9
0.0015	0.0022	-0.0008	0.0007	2.8
0.0015	-0.0015	-0.0008	-0.003	3
0.003	0.003	-0.0008	-0.006	2.8
0.0022	0	-0.0008	-0.0053	3
0	0.0022	-0.0008	-0.0046	2.8
0	0.0037	-0.0008	-0.0008	3
0.0015	0.0015	-0.0008	0.0015	2.7
0.003	0.0037	-0.0008	0.0015	3
0.0007	-0.0008	0.0015	0	2.8
-0.0008	-0.0015	0.003	0.0007	3
0	-0.0023	0.003	0.0015	2.9
0.0007	-0.0015	0.003	0	2.8
0.0015	0	0.0022	-0.0008	2.7
0	0	0.0022	0	2.8
-0.0008	0.0045	0.0007	0.0007	3
-0.0008	0.0022	0	0.0015	2.7
-0.0015	0.0007	0.0007	0.0015	3
-0.0015	0.0052	0.0015	0.003	2.6
-0.0023	0.0045	0.0022	0.0015	3
-0.0015	0.003	0.0015	0.0015	2.6
0	0.0007	0.0015	0.0022	2.9
0	-0.0023	0.0007	0.0015	2.8
-0.0015	-0.003	0	-0.0008	3
-0.0008	0.0015	0.0007	0	2.9
-0.0015	0.003	0.0015	0.0015	2.7
-0.003	0.0045	0.0022	0.0015	2.8
-0.0008	0.0082	0.0015	0.0015	2.7
-0.0015	0.0045	0.0007	0.0007	2.9
-0.0008	0.0015	0	0.0007	3
-0.0008	-0.0075	-0.0008	0	2.9
-0.003	-0.0128	0	-0.0023	2.9
-0.0015	-0.0053	-0.0023	-0.0008	2.9
-0.003	0	-0.0023	-0.0015	2.9
-0.003	-0.0015	-0.0008	-0.003	2.9
-0.0015	-0.0091	-0.0008	-0.003	3
0.0007	-0.012	-0.0008	-0.003	2.8
0.0007	-0.0023	-0.0008	-0.0015	2.9
0.0007	0.0015	-0.0015	-0.0015	2.8
0.0007	0.0015	-0.0008	-0.0015	2.8
0.0007	0.003	-0.0015	-0.0008	2.7
0.0015	0.0015	-0.0008	0.003	2.8
0.0015	0.0052	-0.0008	0.003	2.9
0.0007	0.003	-0.0008	0.0007	2.9
0.0022	0.0052	0.0007	0.0022	2.8
0.0015	0.0052	0.0007	0.003	2.9
0.0007	0.003	0.0015	0.0015	3
0.0015	0.0022	0.0015	0.0007	2.8
-0.0015	-0.0008	0.0007	0.0007	2.9
-0.0008	0.0007	0.0015	0.0007	2.9
-0.0015	0	0.0015	-0.0008	2.9
-0.0023	-0.0008	0.0007	-0.0008	2.8
0	-0.0008	0.0007	-0.0023	2.9
0	0	0.0007	-0.0038	2.9
-0.0008	0.0007	-0.0008	-0.0038	2.8
0.0015	0.003	-0.0008	0	2.9
0.0007	0.0052	-0.0008	0.003	2.9
0.0007	0.0135	0	0.003	2.9
0.0007	0.015	0.0015	0.0045	2.8
-0.0008	0.0052	0.0007	0.0022	2.8
0	0.0007	-0.0008	0.0015	2.9
0.0007	-0.0083	0	0	2.9
0	-0.0181	-0.0008	-0.0008	2.8
0.0015	-0.0091	-0.0015	0.0007	2.8
0.0007	0.003	-0.0015	0	2.8
-0.0008	-0.0015	-0.0015	-0.0015	2.6
-0.0015	-0.0015	-0.0008	0.0007	2.8
-0.0015	-0.0068	-0.0008	-0.0015	2.7
0.0007	-0.0091	-0.0008	-0.0015	2.9
-0.0015	-0.006	-0.0008	-0.0008	2.7
0	-0.003	-0.0038	-0.0008	3
0	0.006	-0.0023	0.0007	2.8
-0.0038	0.0082	-0.0015	0.0022	2.9
-0.0023	0.0052	-0.0015	0.003	2.7
-0.0015	0.0052	-0.0015	0.0015	3
-0.0015	0.0097	-0.0008	-0.0008	2.7
-0.0008	0.0052	0	-0.0015	2.8
0.0007	-0.0008	-0.0015	-0.0015	2.8
0	-0.0008	0	0	2.9
-0.003	0.0067	0.0007	-0.0008	2.9
-0.003	0.0142	-0.0008	0	2.8
-0.0008	0.021	-0.0008	0.0022	2.9
-0.0008	0.027	-0.0008	0.0015	2.6
-0.003	0.0127	-0.0023	0.0015	3
-0.0008	-0.0098	-0.0023	-0.0008	2.9
0	-0.0473	-0.0008	-0.003	2.8
0.0007	-0.0593	-0.0008	-0.0023	2.8
0.0007	-0.024	-0.0015	0	2.8
-0.0015	0	-0.0008	-0.0008	2.8
0	0.012	0.0015	-0.0015	2.8
-0.0008	0.024	0.0007	0.0007	2.7
0	0.0217	0.0022	-0.0008	2.9
0.0015	0.024	0.0022	-0.0008	2.9
0.0015	0.0225	0.003	-0.0008	3
0.003	0.0067	0.003	-0.003	2.6
0.003	0.003	0.003	-0.0008	2.7
0.0007	0.012	0.0007	0.0015	2.8
0.0015	-0.0053	-0.0008	0	3
0	-0.0346	0.003	0.0015	2.8
0.0007	-0.0488	0.0045	0.006	2.8
0.0015	-0.0458	0.0045	0.0067	2.7
0.003	-0.0143	0.0052	0.0045	3
0.003	0	0.0045	0.0015	2.6
0.0022	0.003	0.0045	0.0015	3
0.003	0.0097	0.0052	0.0022	2.6
0.0022	0.0067	0.0052	0.003	3
0.0015	0.0112	0.0037	0.0037	2.8
0.0015	0.009	0.0045	0.0022	2.7
0.0015	0.0097	0.0037	0.0007	2.7
0.0015	0.009	0.0022	0.0007	2.9
0.0015	0.0067	0.0015	-0.0008	3
0.0037	0.006	0.0007	-0.0008	2.7
0.0045	0.0052	0.0007	-0.0015	2.9
0.003	0.0052	0.0015	-0.0053	2.6
0.0022	0.003	0.0015	-0.0046	2.9
0.0045	0.0052	-0.0008	-0.0015	2.7
0.0022	0.0045	0.0007	-0.0008	3
0.0022	0.0052	0.0022	0.0007	2.8
0.0015	0.0037	-0.0008	0.0015	3
0.0007	0.0045	0	0.0037	2.6
0	0.0045	-0.0008	0.0037	2.8
-0.0008	0.0015	-0.0008	0.0045	2.8
-0.0008	0.0022	-0.0008	0.003	3
0	0.0007	-0.0015	0	2.9
0.0007	0.0022	-0.0015	0	2.9
-0.0015	0.006	-0.0015	-0.0008	2.9
0.0007	0.0067	-0.003	-0.0015	2.7
0.003	0.009	-0.0023	-0.0008	2.8
0.0007	0.006	-0.0015	-0.0008	2.7
0.0007	0.0007	-0.0023	0.003	3
0.0007	0.006	-0.003	0.0052	3
0.0007	-0.0068	-0.0038	0.0015	2.8
0.0015	-0.0315	-0.003	0.0007	2.9
-0.0015	-0.0233	-0.003	0.0007	2.8
-0.0015	-0.0046	-0.0046	0.0007	3
-0.0015	0.0067	-0.0015	0	3
-0.0015	0.0097	-0.0023	-0.0015	2.8
0	0.0052	-0.0053	-0.003	2.8
-0.0008	0.0015	-0.0046	-0.0038	2.7
-0.0015	-0.0091	-0.0038	-0.003	2.8
-0.003	-0.0173	-0.003	-0.0015	2.8
-0.0015	-0.0046	-0.0023	0.0007	2.8
0.0007	0.003	-0.0015	-0.0015	2.7
0.0037	0.0007	0	-0.0015	2.9
0.0015	0.003	-0.0008	-0.0038	2.7
0.0007	0.0007	-0.0015	-0.0046	3
0.0007	0.0037	-0.003	-0.0023	2.8
0.0015	0.0045	-0.003	-0.0008	2.9
0.0015	0.0007	-0.003	0.0037	2.7
0.0015	-0.0038	-0.0015	0.0045	3
0.0015	-0.0053	-0.0015	0.0015	2.9
0	0.0007	-0.0015	-0.0023	2.9
0	0.0015	0.0007	-0.0023	2.7
-0.0008	0.0037	0.0007	-0.0015	2.9
0	0.0045	0.0015	0.0007	2.8
0.0007	0.0015	0.003	0.003	2.9
-0.0015	0	0.003	0.0052	2.7
0.0007	0.0022	0.0022	0.0067	2.8
-0.0008	0.0052	0.003	0.0045	2.7
-0.003	0.003	0.003	0.0015	2.8
-0.0008	0.0045	0.0015	0.0022	2.8
-0.0008	0.0037	0.0015	0.0007	2.7
-0.0015	-0.0008	0.0007	0	2.8
-0.003	-0.0008	0.0015	0	2.8
-0.0015	-0.0015	0.0022	0	2.8
-0.0015	-0.0023	0.0007	0	3
-0.0046	-0.0008	0.0015	-0.0008	2.7
-0.003	0	0	-0.0015	3
-0.0015	0	0.0007	-0.0023	2.7
-0.003	0.0015	0.003	-0.0008	2.9
-0.0015	0.003	0.003	0.0015	2.6
-0.0008	-0.003	0.0045	-0.0046	2.8
-0.003	-0.0098	0.003	-0.0068	2.9
-0.0015	-0.0046	0.0037	-0.0046	2.7
-0.0015	-0.003	0.003	-0.0038	2.9
-0.0015	-0.0008	0.0022	-0.0015	2.7
-0.0008	0.003	0.0022	-0.0008	3
-0.0023	0.0015	0.0015	0.003	2.6
-0.0015	0.0045	0.0015	0.006	3
-0.0023	0.003	0.0015	0.0052	2.7
-0.0038	0.0045	0.0007	0.0045	2.9
-0.0023	0.003	0.0015	0.0022	2.6
-0.003	0	0.0015	0	2.8
-0.0015	-0.0008	0.0022	-0.0008	2.7
-0.0015	-0.0008	0.003	-0.0008	2.9
0	0	0.0022	-0.0008	2.9
0.0015	0.0007	0.003	0.0007	2.6
0.0007	0.0022	0.0022	0.0007	2.9
0.0007	0.0022	0.0007	0	2.9
0.0007	0.0022	0.0015	0.0015	2.8
0.0007	0.0022	0.0007	0.0007	2.7
0.0015	0.0007	0	0.0007	3
0.0015	0.0015	-0.0008	-0.0008	2.8
-0.0008	0.0015	0.0007	-0.0008	2.9
-0.0008	0.0007	0.0007	0	2.8
0.0007	-0.0008	0.0015	-0.0015	3
-0.0015	-0.0023	0.0007	-0.0038	2.8
-0.0008	-0.0008	0	-0.0015	2.8
0.0015	0.0007	-0.0008	0	2.8
0.0007	-0.0008	-0.0008	-0.0008	2.8
0.0015	-0.0015	-0.0008	-0.0015	2.9
0.0015	-0.0008	-0.0008	0.0007	2.8
0.0015	0.0007	0.0007	0.0022	3
0.0015	0.0015	-0.0008	0.0015	2.7
0.0022	0.0052	-0.0008	0.0022	2.7
0.0015	0.0105	-0.0008	0.003	2.8
0.0015	0.009	-0.0015	0.003	2.7
0	0.0022	-0.0008	0.0007	2.8
0.0007	-0.0015	-0.0008	0.0007	2.7
0.0037	-0.0046	-0.0015	0.0022	3
0.0007	-0.0165	-0.0008	0	2.7
0.0015	-0.0173	-0.0008	-0.0008	2.9
0.0015	-0.0053	0.0007	-0.0008	2.7
0	-0.0008	-0.0008	0.0007	3
0.003	0.0007	-0.0008	0.003	2.6
0.003	0.0045	-0.0008	0.003	2.9
0.0015	0.0097	-0.0023	0.0015	2.6
0.0007	0.0157	-0.0015	0	2.9
0.0007	0.0165	-0.0008	0	2.8
0.0015	0.0142	-0.0008	0.0007	2.8
0	0.0067	-0.0015	-0.0015	2.8
-0.0008	-0.0158	-0.003	-0.0046	3
0.0007	-0.0338	-0.0008	-0.0015	2.8
0	-0.0083	0.0015	0.0015	2.8
0.0007	0.0142	0.0007	0.0015	3
0	0.0045	0.0007	0	2.7
-0.0008	0.0135	0.0015	0.0015	3
0.0007	0.0262	0.0015	0.0007	2.8
0.0015	0.0045	-0.0008	-0.0015	2.9
0.0022	-0.024	-0.0008	-0.0038	2.8
0	-0.024	-0.0015	-0.003	2.8
0.0007	-0.039	-0.0008	-0.0008	2.8
0.0007	-0.0443	-0.0008	0.0015	3
-0.003	-0.0068	0.0007	0.0037	2.9
-0.0008	0.0105	0.0015	0.0045	2.9
0.0007	0.0157	-0.0008	0.006	2.9
-0.0015	0.012	-0.0015	0.0067	2.8
0.0007	0.0015	-0.003	0.0045	2.9
0.0007	0.0015	-0.003	0.0007	3
0.0015	-0.0046	-0.0023	-0.0008	2.6
0.0015	-0.0008	0.0007	-0.0008	2.7
0.0007	0	0.0015	-0.0015	2.8
0.0007	0.003	0.0015	0.0007	3
-0.0008	0.0082	0.0015	0.0052	2.8
0.0007	0.0127	0	0.0045	2.8
0.0015	0.0157	0	0.0015	2.7
-0.0008	0.0142	-0.0008	-0.0015	2.8
0	0.009	0.0007	-0.0053	2.7
-0.0015	0.0015	0.0015	-0.0053	2.8
-0.0008	0.0075	0.003	-0.0015	2.9
-0.0008	0.0075	0.0007	-0.0023	2.9
0.0007	0.0067	0	-0.003	3
0.0007	0.0045	0.0015	0	2.9
0	0.0015	0.0007	0.0022	2.8
0.003	0.0052	0.0007	0.0015	2.7
0.0015	0.0045	0.0007	0.0022	2.9
-0.0008	0.0045	0.0007	0.003	2.7
-0.0008	0.0015	-0.0008	0.0022	2.8
0.0022	0.0022	-0.0015	0.0007	2.7
0.0015	0.0007	-0.0008	0.0015	2.8
0	-0.0008	0	0.0007	2.7
0.0015	-0.0023	0	-0.0023	2.7
0.0015	-0.0046	-0.0008	-0.0008	2.7
-0.0008	-0.0046	0.0007	0	2.8
-0.0023	-0.0046	0.0015	-0.0023	2.7
-0.0008	-0.0023	0.0015	-0.0008	2.7
-0.0015	-0.0046	0.0007	-0.003	2.8
-0.003	-0.0053	0.0015	-0.003	2.8
0.0007	-0.0038	0.0007	-0.0015	2.7
0.0007	-0.0008	0	-0.0008	2.8
0.0007	-0.0008	0.0007	-0.0008	2.8
-0.0015	-0.0008	0.0007	0.0007	2.7
-0.0015	-0.0015	0.0007	0.0015	2.7
-0.0008	-0.0008	0.0007	0.0007	2.9
-0.0015	0.003	0.0015	0.0007	2.7
-0.0008	0.0045	0.003	0.003	2.7
0.0007	0.0015	0.003	0.0022	2.6
0.0007	0.0015	0.0007	0.0015	3
0.0007	0.0007	0.0007	0.0015	2.7
0.0015	-0.0015	0.0007	0.0015	3
0.0007	-0.0015	-0.0008	0.0015	2.7
0	-0.0053	0.0007	-0.0015	3
0.0007	-0.0075	0	-0.003	2.7
-0.0008	-0.0046	-0.0008	-0.0046	2.8
-0.0008	-0.0008	-0.0008	-0.0053	2.9
-0.0015	0.0015	0	-0.0038	2.7
-0.0015	0.009	-0.0008	0.0007	2.9
0.0007	0.0127	-0.0015	0.003	2.6
0.0015	0.0082	-0.0008	0.0015	3
0.0015	0.0045	0.0007	0	2.9
-0.0008	-0.0053	0	-0.0015	2.8
0	-0.0165	-0.0008	-0.0008	2.8
0.0007	-0.012	-0.0015	0.0037	2.9
-0.0008	0.0007	0	0.0045	2.7
-0.003	0.0015	-0.0015	0.0022	2.8
-0.0015	0.0037	-0.0015	0.0007	2.9
-0.0015	0.0045	-0.0008	-0.003	2.7
-0.003	0.0052	-0.0015	-0.0046	2.8
-0.003	0.015	-0.0008	-0.0046	2.7
-0.003	0.015	-0.0015	-0.0046	2.7
-0.0015	0.012	-0.003	-0.0023	2.8
-0.0008	0.009	-0.003	0.003	2.7
-0.0015	-0.003	-0.0015	0.0075	2.9
-0.0008	-0.0233	-0.0008	0.0075	2.9
-0.0008	-0.03	-0.0008	0.0045	2.7
-0.0015	-0.0181	-0.0008	0	2.6
-0.0015	-0.012	0.0007	-0.0053	2.8
-0.0015	-0.012	-0.0008	-0.006	2.7
-0.0015	-0.003	-0.0008	-0.003	2.9
-0.0015	-0.0008	0	-0.003	2.6
-0.0008	-0.0046	-0.0015	0	2.9
-0.0023	-0.0038	-0.003	0.0007	2.6
-0.0015	-0.0046	-0.003	0.003	2.9
-0.0008	-0.0008	-0.0023	0.0067	2.8
-0.0015	0.0052	-0.0038	0.009	2.9
-0.0023	0.015	-0.003	0.009	2.6
-0.0015	0.0127	-0.0015	0.0082	2.7
-0.0008	0.0105	0	0.0052	2.7
-0.003	0.0082	-0.0015	-0.0008	2.6
-0.003	0.0022	-0.0015	-0.0015	2.9
-0.0008	0.0045	0	-0.003	2.5
0	0.0105	-0.0008	-0.0015	2.9
-0.0015	0.0195	0.0007	0.0007	2.6
-0.0008	0.015	-0.0008	0	2.9
-0.0008	-0.0038	0.0007	0.0007	2.7
-0.0015	-0.0181	-0.0008	-0.0015	2.7
-0.0008	-0.0091	-0.0023	-0.0008	2.7
-0.0015	-0.0015	-0.0015	0.0007	2.8
0	-0.003	-0.0008	0.0007	2.7
0.0007	0.0135	-0.0008	0.0007	2.7
0.0015	0.0202	-0.0008	-0.0008	2.7
0.0007	0.018	0	0	2.8
0.0007	0.0105	-0.0008	-0.0015	2.6
0.003	-0.0113	-0.0008	-0.0068	2.7
0.003	-0.0383	-0.0008	-0.0068	2.7
0.003	-0.0308	0.0015	-0.003	2.7
0.003	-0.0008	0.0022	0.0007	2.8
0.003	0.0015	0.003	0	2.6
0.0007	0.003	0.0022	0.0015	2.8
0.0037	0.0045	0.0007	0.0007	2.8
0.0045	0.0037	0.0015	0.0045	2.8
0.0022	0.0067	0.0015	0.0067	2.9
0.0022	0.0045	0.003	0.0052	2.6
0.0022	0.0052	0.0007	0.0037	2.8
0.0022	0.0022	0.0007	0.0015	2.6
0.003	0.0015	0.0022	0.0007	2.7
0.0037	0.0022	0.0007	-0.0008	2.7
0.003	0.0075	0	-0.0008	2.8
0.0007	0.015	0	-0.0015	2.7
-0.0008	0.0105	0.0015	-0.0015	2.7
0.0007	0.0082	0.0015	-0.0015	2.8
0.0015	-0.0015	0.0022	-0.003	2.6
0.0022	-0.0225	0.0037	-0.0038	3
0.0015	-0.024	0.0015	-0.0023	2.7
0.003	-0.003	0.0007	-0.0008	2.8
0.003	0.0007	0.0007	0.0007	2.6
0	-0.0046	0.0007	-0.0015	2.8
-0.0008	-0.0008	0.0007	-0.0015	2.7
0.0015	0.0015	0.0007	0.0007	2.8
0.0022	0.0045	0.0007	-0.0008	2.6
0.0015	0.003	0.0007	-0.0008	2.8
0.0007	0.003	-0.0008	-0.0023	2.8
0.003	-0.0015	0	-0.0038	2.9
0.003	-0.0015	0.0022	-0.0023	2.9
-0.0008	-0.003	0.0022	-0.0015	2.8
-0.0015	-0.006	0.0015	0	2.8
-0.0008	0.0045	0.0015	0.0045	2.8
-0.0023	0.012	0.0015	0.0067	2.8
-0.0008	0.0045	-0.0008	0.003	2.6
0.0015	-0.0023	-0.0008	-0.0008	2.8
0	-0.0098	-0.0008	-0.0015	2.8
0.0007	0.0007	0.0007	-0.0015	2.8
0.0007	0.0127	0.0022	-0.0015	2.7
-0.0008	0.0015	0.003	-0.0023	2.7
0.0007	0.0052	0.003	0.0015	2.8
-0.0008	-0.0008	0.0015	0.0022	2.6
-0.0008	-0.003	0.0015	0.0022	3
-0.0008	-0.0008	0.0007	0.003	2.7
-0.0015	-0.003	0.0007	-0.0008	3
-0.003	0.0097	0	0.0007	2.8
-0.0023	0.0105	0	0.0015	2.9
-0.0015	0.0105	0.0015	0.0022	2.8
-0.0015	0.0045	0.0007	0.003	2.8
-0.0008	-0.0015	0	0.0045	3
0.0007	-0.0046	0	0.0052	2.6
-0.0015	-0.0091	-0.0015	0.0045	2.9
-0.0008	-0.0105	-0.0015	0.0015	2.7
-0.0015	0.0007	-0.0015	-0.0008	3
-0.0023	0.0045	-0.0008	-0.0023	2.6
-0.0008	-0.0046	0	-0.0038	2.8
-0.0015	-0.0015	0.0007	-0.0046	2.9
-0.003	-0.0053	-0.0008	-0.0008	2.9
-0.0008	0	-0.0015	0.003	2.8
0.0007	0.0022	-0.0008	0.003	2.7
-0.003	0.0007	-0.0008	0.0015	2.9
-0.0015	0.0045	-0.0015	0.0007	2.8
-0.0008	-0.0008	-0.0008	-0.0008	2.8
0.0022	-0.0008	-0.0008	-0.0008	2.8
0.0007	-0.0015	0.0015	-0.0008	2.7
-0.0008	-0.0023	0.0007	0	2.7
-0.0008	-0.0015	-0.0008	-0.0008	2.8
0	0.0007	-0.0008	0.0007	2.7
0.0015	0.0015	-0.0015	0.003	3
0	0.0007	0.0015	0.0015	2.7
-0.0023	0.0007	0.0007	0.0015	2.8
-0.0023	-0.0008	-0.0008	0.0007	2.8
0.0007	0.0007	-0.0008	0.0007	2.6
0	0.0007	-0.0015	0.0015	2.6
-0.0008	0.0007	-0.0008	0.0015	2.6
-0.0015	0.0015	-0.0008	0.0015	3
-0.0008	0.0007	-0.0015	0.0007	2.6
0.0015	0.0015	0.0007	-0.0008	2.8
0.0007	0.003	0.0015	-0.0023	2.8
-0.0008	0.0007	0.0015	-0.0023	2.7
-0.0023	0	0.0007	-0.0008	2.9
-0.0008	0	0.0015	-0.0008	2.6
0.0007	0.0007	0.0007	-0.0008	2.9
-0.0008	0.003	0.0015	0	2.6
0.0007	0.0007	0.0015	0	2.9
0.0015	-0.0015	0.0007	-0.0008	2.6
0	0.0007	0.0007	0.0007	3
-0.0015	-0.0023	0.0007	0.003	2.6
0	-0.0046	0.0007	0.003	2.7
0.0022	-0.0015	0.0007	0.0015	2.6
0.0015	0.0015	0.003	0.0015	2.8
0.0015	0.003	0.0015	0.0015	2.6
0.0015	0.0052	0.0015	0	2.9
0.0015	0.0097	0.0015	0	2.9
0.0022	0.0067	0.0015	-0.0015	2.7
0.0015	0.003	0.0007	-0.0008	2.8
0.0015	-0.0046	0.0007	0.0007	2.6
0.0015	-0.015	0.0007	-0.0015	2.8
0.0015	-0.006	0.0022	0.0007	2.6
0	0.0112	0.0022	0.0015	2.8
0.0022	0.0097	0.0015	0	2.6
0.0045	0.0045	0.0015	0	2.9
0.0015	-0.006	0.0015	-0.0015	2.7
0.0007	-0.0218	0.0015	-0.0023	2.9
0.0022	-0.0218	0.0015	-0.0015	2.7
0.003	-0.0083	0	-0.0008	2.6
0	-0.003	-0.0015	0.0007	2.7
0.0007	-0.0008	-0.0008	-0.0008	2.6
0.0022	0.0045	-0.0015	-0.0023	2.9
0	0.0045	-0.0015	-0.0008	2.7
-0.0008	0.003	-0.0015	-0.0015	2.7
0	0.0045	-0.0015	-0.0008	2.8
0	0.0037	-0.0023	0.0007	2.7
-0.0008	0.0037	-0.0015	0	2.9
-0.0015	0.006	0	0.0015	2.6
-0.0015	0.0015	-0.0008	0	2.8
-0.0015	-0.0015	-0.0015	-0.0008	2.8
-0.0015	0.0052	0	0.0015	2.8
0.0007	0.0105	0	0.0015	2.6
0.0022	0.0157	0.0007	0.003	2.8
0.0007	0.0127	0.0007	0.003	2.6
0.0007	0.0097	-0.0008	0.003	2.7
0.0015	0.0045	0.0015	0.0007	2.7
-0.0008	-0.0068	0.0007	0.0007	2.6
0.003	-0.0053	0.0015	0.003	2.9
0.0015	0.012	0.0015	0.0007	2.7
-0.0008	0.0172	-0.0015	0.0007	2.7
-0.0008	0.0097	-0.0008	0	2.7
-0.003	-0.0083	0.0007	-0.0023	2.7
-0.0023	-0.0405	0.0007	-0.0053	2.6
-0.0023	-0.0346	0	-0.0046	2.8
-0.0008	-0.0091	-0.0015	-0.0015	2.7
0	-0.0046	-0.0008	-0.0015	2.6
-0.0015	-0.0008	-0.0008	-0.0008	2.7
0.0007	0	-0.0008	-0.0008	2.7
0.0007	-0.0008	-0.0008	0	2.9
-0.003	0.003	0	0.0022	2.8
-0.003	0.0052	-0.0015	0.0037	2.8
-0.0015	0.0075	-0.0015	0.003	2.6
-0.0008	0.0067	-0.0008	0	2.8
0	0.0037	-0.0015	-0.0008	2.6
-0.003	-0.0008	0.0015	0.0015	2.6
-0.003	0.0015	0.0015	0	2.8
-0.0015	0.0007	0.0015	-0.0015	2.8
-0.0023	0.0022	0.0015	0.0007	2.8
-0.0023	0.003	-0.0008	0.0022	2.6
-0.0038	0.003	-0.0008	0.0007	2.8
-0.003	0.0045	0	-0.0008	2.6
-0.003	0.0015	-0.0008	-0.0008	2.9
-0.0046	0.0015	-0.0015	-0.0015	2.6
-0.003	0.0015	-0.0015	-0.0015	2.8
-0.0023	0.0052	0.0007	-0.0015	2.6
-0.003	0.0135	0.0007	0.0015	2.8
-0.0038	0.0195	-0.0008	0.003	2.5
-0.003	0.0247	-0.0008	0.003	2.8
-0.0008	0.024	-0.0008	0.0007	2.7
-0.0008	0.0067	-0.0008	0.0007	2.7
-0.0008	-0.0158	-0.003	0.0007	2.8
0	-0.0233	-0.003	-0.0008	2.7
-0.0015	-0.039	-0.0023	-0.0015	2.8
0.0007	-0.0518	-0.0015	-0.0023	2.8
0	-0.0218	0.0015	0	2.7
-0.0008	-0.0008	0.0037	-0.0015	2.6
-0.0008	0.003	0.003	-0.0015	2.7
0.0007	0.009	0.0015	-0.0015	2.7
0.0022	0.0007	0.0015	-0.003	2.8
0.0007	0.0037	-0.0008	0.0007	2.8
0.0007	0.0037	0	0.0007	2.6
0.0007	0.0067	0.0015	0.0015	2.8
0	0.0127	0.0007	0.0045	2.8
0	0.012	0.0022	0.0022	2.7
0.0022	0.0157	0.0045	0.0022	2.5
0.0007	0.012	0.0045	0.0007	2.8
0.0007	0.009	0.0037	-0.0008	2.8
0.0015	0.0022	0.0015	-0.0015	2.8
0.003	-0.0046	0	-0.003	2.7
0.0007	-0.0015	-0.0015	-0.0053	2.6
0.0015	0.003	0.0007	-0.0038	2.8
-0.0008	0.0052	0.0015	-0.0015	2.8
-0.0015	0.006	0.0015	0	2.7
-0.0008	0.003	0.0037	0.0007	2.6
-0.0015	0	0.0007	0.0022	2.8
0	0.003	0	0.0052	2.6
0.0015	0.0052	0.0015	0.006	2.8
0.0015	0.003	0	0.003	2.5
0.0007	-0.0053	0.0007	0.0007	2.7
-0.0008	-0.0135	0.0007	-0.0008	2.6
0.0007	-0.0053	0.0007	0.003	2.8
0.0022	0.0075	0	0.0045	2.5
0.0015	0.0015	-0.0015	0.0015	2.7
-0.0008	-0.0046	-0.003	0.0015	2.7
0.0022	-0.0143	-0.0008	-0.0015	2.7
0.0022	-0.0195	0	-0.0038	2.8
0.0007	-0.0023	-0.0023	0	2.5
0.0007	0.0022	-0.003	0.0015	2.8
0.0007	-0.0015	-0.0046	-0.0008	2.6
-0.0008	0.003	-0.0046	-0.0015	2.8
-0.0008	0.0015	-0.0038	-0.0015	2.6
0.0015	0.0015	-0.003	-0.0008	2.9
0.0007	-0.0008	-0.003	-0.0015	2.6
0.0007	0.0007	-0.0046	-0.0008	2.8
0.0037	0.0015	-0.0046	0.0015	2.6
0.0015	0.0007	-0.0046	0.003	2.6
-0.0008	0.006	-0.0046	0.0045	2.6
0.0015	0.003	-0.0046	0.0037	2.6
0.0015	-0.0015	-0.0015	0.0015	2.8
0.0007	0	-0.0008	0.0015	2.7
0.0015	0.003	0.0015	0.003	2.7
0.0015	0.003	0.0022	0.003	2.9
0.0015	0.003	0.0007	0.0015	2.6
0.0015	0.0007	0.0015	0.0007	2.7
0.0022	0.0007	0.0015	0.0007	2.5
0.0022	0.0015	0.0007	0	2.6
0.0015	0.0007	0	0	2.6
0.0007	0.0007	0	-0.0008	2.7
0.0007	0.0022	0	-0.0015	2.6
0.0007	0.0022	-0.0008	0.0015	2.8
0.0007	0.0015	0.0007	0.0015	2.6
0.0015	0.0007	0	-0.0015	2.7
0.0015	0	0.0007	-0.0008	2.6
0.0007	-0.0023	-0.0008	-0.0008	2.8
-0.0008	0	0.0007	-0.0008	2.6
0	0.0007	0.0022	-0.0008	2.4
0.003	0	-0.0008	-0.0008	2.7
0.0007	0.0015	0.0007	-0.0015	2.7
0	0.0015	0.0022	-0.0023	2.6
0.0015	0.0007	0.0007	-0.003	2.6
0.0007	-0.0015	0.0007	-0.003	2.7
0.0007	-0.0015	0.0007	-0.0008	2.5
0	0.0007	0.0022	-0.0008	2.5
0.0007	0.0067	0.0022	0.0015	2.6
0.003	0.0157	0.0015	0.0007	2.6
0.0015	0.0142	0.0015	-0.0015	2.6
0.0007	0.0165	0.0015	-0.0008	2.7
-0.0015	0.0232	0.0022	0.0007	2.6
-0.0008	0.0142	0.0015	0.003	2.6
0.0007	-0.003	0.0015	0.003	2.8
-0.0023	-0.0188	0.0022	0.0022	2.6
-0.003	-0.0338	0.0007	0.0022	2.8
-0.003	-0.0278	0.0007	-0.0008	2.7
0	-0.0023	0.0015	-0.003	2.6
0.0015	-0.0023	0.0007	-0.0038	2.6
0	-0.012	0.003	-0.0053	2.5
-0.0023	-0.0143	0.0037	-0.0091	2.8
-0.0015	-0.0046	0.003	-0.0068	2.6
0.003	0.0067	0.0007	-0.0023	2.6
0.0007	0.003	0.0007	0	2.5
-0.0015	0.003	0.0007	0.003	2.7
-0.003	-0.0113	0.0015	0.003	2.5
-0.0023	-0.0203	0.003	0.0075	2.8
-0.0023	-0.003	0.0037	0.012	2.6
-0.003	0.0045	0.0015	0.0082	2.7
-0.0038	0.0045	0.0007	0.0075	2.6
-0.0038	0.0082	0.003	0.0075	2.6
-0.003	0.0075	0.0015	0.0045	2.6
-0.0023	0.0142	0.003	0.0052	2.6
-0.0015	0.0157	0.003	0.0045	2.6
-0.0015	0.012	0.0007	0.003	2.5
-0.0008	0.009	0.0022	0.0022	2.6
-0.003	-0.0015	0.003	0.0007	2.4
-0.0023	-0.0128	0.003	-0.003	2.7
-0.0008	-0.0053	0.0022	-0.0038	2.4
-0.0015	0.0105	0.0007	-0.0053	2.6
-0.0023	0.0097	0.0007	-0.006	2.6
-0.003	0.012	-0.0008	-0.0083	2.7
-0.0068	0.0082	-0.0015	-0.006	2.6
-0.0046	-0.006	-0.0008	-0.003	2.6
-0.0008	-0.012	0	-0.0008	2.6
-0.0015	-0.006	-0.0008	0.0015	2.6
-0.0008	-0.0135	-0.0008	0.0022	2.6
0.0015	-0.012	-0.0015	0.0052	2.7
0	0.009	-0.003	0.003	2.6
-0.0008	-0.0046	-0.003	-0.0015	2.6
-0.0008	-0.0053	-0.0023	0.0015	2.6
-0.0015	0.0015	-0.0023	0.003	2.6
-0.003	0.0045	-0.003	0.0022	2.5
0	0.0075	-0.0015	0.0015	2.6
0.0007	0.0022	-0.0015	-0.0008	2.5
0.0015	-0.0023	-0.0008	-0.003	2.7
0.0007	-0.0083	-0.0015	-0.0038	2.5
0.0007	-0.0083	-0.003	-0.0046	2.6
0.0015	0.0007	-0.0015	-0.0046	2.5
0.0015	0.009	-0.0023	-0.0015	2.7
0.0022	-0.0008	-0.0023	-0.0008	2.4
0.003	0.0015	-0.0023	-0.0008	2.8
0.003	0.003	-0.0015	-0.0023	2.6
0.0022	0.003	-0.003	-0.0046	2.6
0.003	0.0015	-0.0023	-0.0046	2.6
0.003	-0.0075	-0.0015	-0.0046	2.6
0.0022	-0.0083	-0.0015	-0.0023	2.7
0.0007	-0.0105	0.0007	0.0007	2.4
0.0007	-0.003	-0.0008	0.0037	2.6
0	0.0105	-0.0008	0.0022	2.5
-0.0008	0.0195	-0.0015	0.003	2.8
0.0015	0.015	-0.0015	0.006	2.5
0.0007	0.003	-0.0008	0.0052	2.7
-0.0015	0.0037	-0.0008	0.0045	2.5
-0.0008	0.0045	-0.0015	0.0045	2.7
0.0007	0.0007	-0.003	0.003	2.4
0	-0.0008	-0.0023	0.003	2.6
0.0007	-0.0023	-0.0015	0.0015	2.4
-0.0008	-0.0008	-0.0015	0	2.6
0.0007	0.0007	-0.0023	0.0007	2.6
-0.0008	0.0007	-0.0008	0.0007	2.6
-0.0023	0.003	0	0.0007	2.5
-0.0008	0.0067	-0.0015	-0.0008	2.4
-0.0008	0.0052	-0.0008	-0.0008	2.6
0.0015	-0.0046	-0.0008	-0.0008	2.4
-0.0008	-0.0046	0	-0.003	2.6
0	-0.0015	0.0007	-0.0008	2.5
0	0	0.0015	0.0007	2.6
-0.0008	0.0007	0.003	-0.0008	2.6
0.0007	0	0.0037	-0.0008	2.5
0.0007	0	0.0007	-0.0015	2.6
0.0015	0	0.0007	-0.0008	2.6
0.0007	0.0015	0.0015	0.0007	2.6
0.0007	0.0022	0.0015	0.0007	2.6
-0.0008	0.0045	0.0022	0.0015	2.6
-0.0008	0.003	0.0007	-0.0015	2.5
0.0015	0.0015	0.0007	-0.0015	2.6
-0.0008	-0.0008	0.0007	-0.0008	2.6
0.0007	-0.0023	0.0015	-0.0008	2.6
0	-0.003	0.0007	-0.0008	2.6
-0.0008	-0.0053	0.0007	-0.0023	2.5
0.0007	-0.0053	0.0007	-0.0046	2.5
0.0015	-0.0068	0.0007	-0.003	2.6
0.0037	-0.0053	0.0007	-0.003	2.6
0.0045	-0.0068	0.0015	-0.003	2.6
0.0007	-0.0046	0.0037	-0.0023	2.7
0.0015	-0.0008	0.0045	0.0007	2.6
0.0045	0.0007	0.006	0.0045	2.6
0.0022	0.003	0.006	0.0052	2.6
0.0015	0.0045	0.003	0.0045	2.6
0.0015	0.0037	0.0022	0.0022	2.6
-0.0008	0	0.0015	0.0015	2.6
0.0007	0.0045	0	0.0022	2.6
0.0015	0.0127	0.0007	0.0022	2.6
0.0015	0.0255	0.0007	0.0022	2.6
0.0015	0.0337	0.0015	0.0015	2.6
0.0007	0.0202	0.0022	0.0007	2.6
0.0007	0.0007	0.0015	0	2.6
-0.0015	-0.0165	-0.0008	0	2.6
-0.003	-0.0443	-0.003	0	2.6
-0.0015	-0.048	-0.003	0.003	2.6
-0.0008	-0.033	-0.0046	0.0007	2.6
0.0007	-0.0165	-0.0053	-0.0008	2.6
0.0015	0.003	-0.0038	0.0007	2.5
0.0007	0.0037	-0.0015	0	2.4
0.0007	0.0157	-0.0015	0.0007	2.7
0.0015	0.021	-0.0008	0.0015	2.5
0	0.0247	-0.0015	0.0022	2.6
-0.0008	0.0195	-0.0015	0	2.6
-0.0015	-0.003	0	-0.0038	2.6
-0.0023	-0.0098	-0.0008	-0.0015	2.6
-0.003	-0.012	-0.0015	0	2.4
-0.0008	-0.0165	-0.0015	-0.0008	2.6
-0.0008	-0.0083	0.0007	-0.0008	2.4
-0.0008	0.0007	0.0015	-0.0015	2.6
0.0015	-0.0008	0.0037	-0.003	2.5
0.0015	0.0022	0.003	-0.0008	2.6
0.0037	-0.0015	0.0015	-0.0008	2.4
0.0022	0	0.0015	-0.0008	2.6
0.0007	0.0015	-0.0008	0.0007	2.4
0.0007	0.0015	-0.0008	0	2.6
0	0.0045	0.0007	-0.0008	2.4
0.0015	0.003	-0.0008	0	2.7
0.0015	0.0045	-0.0015	0.0007	2.5
0.0015	0.0045	-0.0015	0.0007	2.6
0.0007	0.0052	-0.0008	0.0007	2.5
-0.0008	0.0045	-0.0015	-0.0008	2.5
0.0007	0.0052	-0.0015	-0.0015	2.5
0.0015	0.0045	-0.0015	-0.0015	2.5
0.0007	0.0052	-0.0008	-0.0015	2.6
-0.0008	0.0082	0.0007	-0.0038	2.5
-0.0015	0.0097	0.0007	-0.0046	2.6
-0.0015	0.0127	0	0.0007	2.5
0.0007	0.0097	-0.0015	0.0045	2.5
-0.0008	0.0007	0.0007	0.0067	2.6
-0.0023	-0.0083	0.003	0.0075	2.5
-0.0023	-0.006	0.0022	0.0082	2.7
-0.0015	-0.0053	0.003	0.0067	2.5
0.0015	-0.0015	0.0015	0.0045	2.6
0.003	0.0045	0.0007	0.0015	2.5
0.0015	0	0	0.0007	2.5
0.0022	0.0022	-0.0008	0.0022	2.6
0.0015	0.0015	0.0007	0.0022	2.4
0.0007	0.0007	0.0015	0.0015	2.6
0.0007	0.0007	0.003	0.0015	2.5
-0.0008	-0.0015	0.003	0.0015	2.6
0	0.0007	0.0007	0.003	2.4
0.0022	-0.0015	0.0015	0.0007	2.6
0.0007	0.0007	0.0015	-0.0008	2.4
0.0007	0.0015	0	-0.0038	2.6
0.0007	0.0075	-0.0008	-0.0068	2.3
-0.0015	0.0165	-0.0008	-0.0046	2.7
-0.0015	0.015	-0.0008	-0.0015	2.4
-0.0008	0.003	0	-0.0015	2.6
-0.0015	-0.0105	0.0007	-0.0015	2.4
-0.0023	-0.0248	0.0007	-0.0008	2.5
-0.003	-0.0315	0	-0.0015	2.6
-0.0046	-0.0128	0.0007	0.0007	2.4
-0.003	-0.0023	0	-0.0008	2.6
-0.0023	-0.0053	0.0007	-0.0015	2.5
-0.003	0	0.0015	-0.0023	2.6
-0.0023	-0.0023	0.0022	-0.0023	2.5
-0.0015	0.0015	0.0037	-0.0023	2.6
-0.0008	0.0015	0.0015	-0.0023	2.6
-0.0008	0.003	0.0007	-0.0015	2.5
0.0007	0.0105	-0.0008	0.0007	2.6
0	0.0127	-0.0008	0.0052	2.5
-0.0015	0.0142	-0.0023	0.0045	2.6
-0.003	0.012	-0.0046	0.0007	2.5
-0.0015	0.003	-0.0053	-0.0023	2.6
-0.0008	-0.0158	-0.003	-0.0053	2.6
-0.0015	-0.0128	-0.0023	-0.003	2.4
0.0007	0.003	-0.003	0.0007	2.4
-0.0015	-0.006	-0.0023	0.0007	2.5
-0.0023	-0.0128	-0.0023	0.0037	2.4
-0.0008	-0.0053	-0.0015	0.003	2.6
-0.0015	0.0067	-0.0008	0.0015	2.4
-0.0015	0.012	-0.0015	0.003	2.5
-0.0008	0.0067	-0.003	0.003	2.5
0.0007	0.0015	-0.0023	0.003	2.6
0.0015	-0.0008	-0.0023	0.003	2.6
0.0015	0.0045	-0.0023	0.0022	2.5
-0.0008	0.0015	-0.0038	0.0022	2.5
0.0007	-0.0008	-0.0053	0.003	2.4
0.0007	-0.003	-0.0015	0.0015	2.6
0.0007	-0.0046	-0.0008	0.0015	2.4
0.0007	-0.0046	0.0007	0.0015	2.4
0.0015	-0.0046	0.0015	-0.0015	2.5
0.0015	-0.0008	0	-0.0015	2.5
0.0007	-0.0008	0.0007	-0.003	2.6
0.0007	0	0.0015	-0.003	2.4
0	0.0015	0	-0.0023	2.6
-0.0008	0.009	0.0007	-0.0008	2.5
-0.0015	0.0097	0.0037	-0.0015	2.6
0.0007	0.0067	0.0022	-0.0046	2.5
-0.0008	0.0067	0.0022	-0.0023	2.6
0	0.009	0.0037	0	2.5
0.0015	0.009	0.0015	0.003	2.4
-0.0008	0.0105	0.003	0.0015	2.5
-0.0008	0.0142	0.0015	0.0015	2.5
0.0007	-0.0068	0.0015	0.003	2.6
0.0007	-0.0383	0.0037	0.003	2.3
0.0015	-0.0375	0.0015	0.0037	2.6
0.003	-0.0128	0.0015	0.003	2.4
0.003	-0.003	0.0007	0.003	2.6
0.003	-0.0015	0.0007	0.0007	2.6
0.0007	0.0067	0.0015	0.0007	2.5
0.0015	0.0045	0.0007	-0.0008	2.5
0.003	0.0037	0	-0.0015	2.4
0.0022	0	-0.0015	-0.0008	2.6
0.0007	0.0007	-0.0008	-0.0008	2.4
0.0007	0.0037	-0.0008	-0.0008	2.6
0.0015	0.0052	-0.0008	-0.0008	2.5
0.0015	0.0097	0.0015	0	2.6
0.0015	0.0112	0.0015	0.0007	2.4
0.0015	0.009	0.0015	-0.0008	2.6
-0.0008	0.0067	0.0022	-0.003	2.4
0.0007	0.0052	0.0022	-0.003	2.6
0.003	-0.0023	0.0045	-0.003	2.6
0.0015	-0.0068	0.003	-0.0015	2.6
0.0022	0.0007	0.0022	-0.0008	2.5
0.0015	0.0037	0.0015	0.0007	2.5
0.0007	0.003	0.0015	0.0015	2.5
0	0.0075	0.0007	0.0045	2.4
0.0007	0.0075	-0.0015	0.0022	2.5
0.0007	0.009	-0.0008	-0.0015	2.4
0.0015	0.0082	0.0007	-0.0023	2.6
0	-0.0015	0	-0.0008	2.4
-0.0008	-0.0046	0.0015	0.0015	2.6
0.0007	0.0052	0.0015	0.0052	2.4
0	0.0082	0.0015	0.009	2.5
0	0.0105	0	0.0127	2.6
-0.0015	0.0135	-0.0023	0.0105	2.5
-0.0008	-0.0053	-0.003	0.003	2.6
-0.0015	-0.0195	-0.0046	-0.0038	2.5
-0.0046	-0.0338	-0.0015	-0.0091	2.6
-0.003	-0.0436	-0.0008	-0.0113	2.5
-0.0038	-0.0158	-0.0015	-0.0075	2.4
-0.0046	-0.003	0	-0.0113	2.5
-0.003	-0.0046	-0.0008	-0.0135	2.4
-0.003	0.0045	0.0007	-0.0053	2.5
-0.0038	0.0007	0.0022	0.0067	2.4
-0.0053	0.003	0.0015	0.012	2.5
-0.0046	0.0067	0.0022	0.012	2.4
-0.0038	0.003	-0.0015	0.0097	2.6
-0.0046	0.0015	-0.0008	0.0037	2.4
-0.0038	0.0022	-0.0015	0.003	2.6
-0.0023	0.0045	0	0.0022	2.4
-0.003	0.0045	0.0007	0.0015	2.6
-0.0008	0.012	0	0.003	2.3
-0.0015	0.0112	0.0007	0.0015	2.5
-0.0015	0.0075	0.003	0.0007	2.6
-0.0008	0.0127	0.003	-0.003	2.4
-0.0008	0.0075	0.0015	-0.003	2.3
-0.0008	-0.0008	0.0007	-0.0046	2.3
-0.003	-0.0015	0.0007	-0.003	2.6
-0.0023	-0.0046	0.0015	-0.003	2.3
-0.0023	-0.003	0.0015	-0.003	2.6
-0.0023	0.0022	0.003	-0.0015	2.3
-0.0008	0.0045	0.0022	-0.0008	2.5
-0.0015	0.0045	0.0022	0.003	2.3
-0.0008	0.0052	0.003	0.0045	2.5
-0.0008	0.003	0.003	0.003	2.4
-0.0008	-0.0046	0.0037	0.0022	2.4
0	-0.0105	0.0037	0.003	2.3
-0.0015	-0.0053	0.003	0.003	2.4
-0.0008	0	0.0007	0.0007	2.4
0	-0.0015	-0.0015	-0.0008	2.3
0.0007	0.0022	-0.0015	-0.0075	2.4
-0.0008	0.0015	-0.0023	-0.0143	2.5
-0.0008	-0.0015	-0.0008	-0.0128	2.4
-0.0008	0.003	-0.0015	-0.0083	2.4
-0.0015	-0.0008	0	-0.0046	2.4
-0.0015	-0.0113	0.003	-0.003	2.4
0.0007	-0.0053	0.0022	0.0015	2.4
0	0.0067	0.0015	0.003	2.4
-0.0008	0.0007	0	0.0045	2.4
0.0015	-0.0008	0.0015	0.0045	2.4
0.0007	-0.0023	0.0015	0.0045	2.4
0.0015	-0.0143	0.0007	0.0082	2.5
0.0015	-0.0068	-0.0008	0.0097	2.4
0.0007	0.0015	-0.003	0.0097	2.4
0.0015	0.003	-0.003	0.0105	2.4
0.0022	0.006	-0.0046	0.0105	2.4
0.0022	0.0067	-0.0053	0.0082	2.5
0.003	0.0067	-0.003	0.0015	2.4
0.0015	0.0067	-0.003	-0.0023	2.5
0.0007	0.0052	-0.0038	-0.0068	2.3
0	0.0045	-0.0053	-0.0173	2.4
0.0015	0.003	-0.0053	-0.0263	2.4
-0.003	0.0037	-0.0068	-0.015	2.5
-0.003	0.0105	-0.0075	0	2.4
-0.0015	0.0135	-0.0075	0.0022	2.4
0.0015	0.0112	-0.0068	0.0045	2.4
0.0015	0.0202	-0.0038	0.0052	2.4
0.0015	0.0187	-0.0008	0.0075	2.5
0.0015	-0.0113	-0.0008	0.0067	2.5
0.0022	-0.0443	-0.0015	-0.0008	2.5
0.0045	-0.0405	-0.0046	-0.0015	2.6
0.0052	-0.0015	-0.0053	0	2.4
0.0045	0.012	-0.006	0.0007	2.4
0.0037	0.0127	-0.0068	0.0015	2.2
0.0037	0.012	-0.0038	0.0015	2.4
0.003	-0.0038	-0.0008	-0.0015	2.4
0.0022	-0.0181	-0.0015	-0.0015	2.4
0.0015	-0.0203	-0.003	0.0052	2.2
0.0037	-0.0083	-0.0038	0.0052	2.5
0.0015	-0.003	-0.003	0.003	2.3
0.0007	-0.003	-0.0046	0.0045	2.5
0.0007	0.0022	-0.0046	0.0022	2.4
-0.0008	0.0015	-0.0046	0.0022	2.5
-0.0015	0.003	-0.003	0.003	2.2
-0.0015	0.0015	0.0007	0.0015	2.6
-0.0008	0.0015	0.0022	0.0015	2.2
0.0015	0.0037	0.0022	-0.003	2.4
0.0007	0.0067	0.003	-0.0091	2.4
-0.0015	0.012	0.0015	-0.0083	2.4
-0.0008	0.0142	-0.0015	0	2.3
0.0022	0.012	-0.0046	0.0007	2.2
0.0007	0.0105	-0.003	0.0022	2.5
-0.0008	0.0007	0.0007	0.003	2.2
-0.0008	-0.0053	0.0015	0.0015	2.6
0.0015	0.003	0.003	0.0022	2.3
0.0015	0.009	0.0052	0	2.5
0.0015	0.0067	0.0075	0.0007	2.2
0.003	-0.0008	0.0075	0.0007	2.4
0.0022	-0.0075	0.0082	-0.003	2.3
0.003	-0.0128	0.0067	-0.0038	2.3
0.003	-0.0158	0.0037	-0.0038	2.4
0.0015	-0.0135	0.003	-0.0046	2.3
0.0015	-0.0105	0.0037	-0.0015	2.3
0.0015	0.0015	0.0052	0.0015	2.4
-0.0008	0.0097	0.0067	0.0007	2.5
0	0.0105	0.0082	0.0022	2.4
-0.0015	0.0127	0.0075	0.0037	2.4
-0.0023	0.012	0.006	0.0045	2.4
-0.0015	0.0007	0.0045	0.003	2.4
-0.0008	-0.0188	0.0045	0.0015	2.4
-0.0008	-0.0113	0.0037	0.0045	2.4
-0.003	0.0082	0.0045	0.0045	2.2
-0.003	0.0045	0.0037	0.0022	2.3
-0.003	0.006	0.0022	-0.0008	2.3
-0.0008	0.0067	0.0007	-0.003	2.2
0	0.0067	0.0007	-0.0008	2.4
0.0007	0.0022	0.003	0	2.3
0.0022	-0.0053	0.0037	-0.0008	2.4
0.003	-0.0046	0.0052	-0.0046	2.4
0.0022	-0.012	0.006	-0.0046	2.4
0.0015	-0.0188	0.0045	-0.003	2.3
0.003	-0.0128	0.0045	-0.003	2.3
0.0045	0.0037	0.0052	-0.0046	2.4
0.0037	0.0157	0.0045	-0.0015	2.2
0.0022	0.0105	0.003	-0.0008	2.4
0.0015	0.0015	0.0007	-0.006	2.2
0.0015	0.003	0	0	2.4
0.0007	0.0127	-0.0023	0.006	2.1
-0.003	0.009	-0.003	0.0045	2.3
-0.0053	-0.0075	-0.0015	0.0045	2.2
-0.0053	-0.0248	-0.0023	0.0022	2.5
-0.006	-0.0263	-0.0023	0.0007	2.2
-0.003	-0.0158	-0.003	-0.003	2.4
-0.0046	-0.0023	-0.003	-0.0173	2.3
-0.0068	0.0135	-0.0038	-0.0188	2.2
-0.0053	0.0157	-0.0046	-0.0083	2.4
-0.0046	0.018	-0.0015	-0.003	2.3
-0.003	0.018	-0.003	0.0022	2.2
-0.0046	0.0142	-0.0023	0.0022	2.2
-0.0038	0.009	-0.003	0.003	2.4
-0.0046	0.0007	-0.0046	0.003	2.2
-0.0053	-0.0105	-0.0023	0.0007	2.3
-0.0023	-0.0195	-0.003	0.0052	2.2
-0.0046	-0.0075	-0.0015	0.0067	2.2
-0.003	0.0037	-0.0015	0.0067	2.3
-0.0038	0.0007	-0.0008	0.0052	2.2
-0.0046	0.0007	-0.0015	0.0045	2.2
-0.003	0.0007	-0.003	0.003	2.3
-0.0038	-0.0008	-0.0008	0.0022	2.4
-0.0015	-0.003	0	0.003	2.2
-0.0015	-0.003	0.0007	0.0007	2.2
0.0007	-0.0008	0.0007	0	2.2
0.0015	0	0.0007	0	2.2
0	0.0067	0.0015	0.0067	2.3
0.0015	0.0127	0.003	0.0135	2.2
0.0007	0.0112	0.0022	0.0127	2.3
-0.0015	0.009	0.0045	0.0112	2.1
-0.0008	0.0082	0.003	0.0067	2.3
0	0	0.0045	0.0007	2.1
-0.0008	-0.0105	0.0045	-0.0023	2.2
0.0022	-0.0105	0.003	-0.0053	2.1
0	0	0.0007	-0.0091	2.3
-0.003	0.0142	-0.0008	-0.0128	2.1
-0.003	0.0255	0.0007	-0.0128	2.2
-0.003	0.027	0.0007	-0.003	2.1
0.0015	0.027	0.0022	0.0045	2.1
0.0015	0.0112	0.003	0.003	2.1
-0.0008	-0.0293	0.0022	0.0007	2.1
0.0015	-0.0263	0.0007	0.0007	2.1
0.0015	-0.0008	0.0015	0.0022	2.1
0.003	-0.0091	0.003	0.003	2.2
0.0045	-0.0046	0.0037	0.0082	2.1
0.0045	-0.0015	0.0015	0.006	2.2
0.0045	-0.0105	-0.0008	-0.003	2.1
0.003	-0.0091	0	-0.006	2.1
0.003	-0.0143	-0.0015	-0.0091	2.1
0.0052	-0.0143	-0.0046	-0.0128	2.1
0.006	-0.015	-0.0046	-0.012	2.3
0.003	-0.0128	-0.0023	-0.006	2
0.0045	-0.0091	-0.0008	-0.0015	2.1
0.0045	-0.003	0	0.003	2
0.0007	0.003	-0.0008	0.0067	2.2
0.003	0.003	-0.0023	0.0075	2.1
0.0022	0.0097	-0.003	0.0097	2.1
-0.0008	0.0142	-0.0023	0.0045	2.1
-0.0008	0.0127	-0.0046	-0.0015	2.1
-0.0015	0.0082	-0.0053	0.0007	2.2
-0.0008	-0.003	-0.0038	-0.0015	2.1
0	-0.0195	-0.0008	-0.0008	2.4
0	-0.0256	-0.0015	-0.0008	1.9
-0.0015	-0.0091	0.0007	-0.0068	2.1
0	0.012	0	-0.0083	1.9
0.0015	0.021	-0.003	-0.003	2.1
0.0007	0.0202	-0.003	0.006	1.9
-0.0015	0.0195	0.0015	0.0157	2.2
-0.003	0.0037	-0.0008	0.018	2.1
-0.003	-0.0203	-0.0038	0.0105	2.1
-0.0008	-0.0233	-0.0008	0.0135	2
0	-0.0075	-0.0038	0.0135	2
-0.0008	0.003	-0.0053	0.0045	2
-0.0015	0.0067	-0.0046	0.0022	1.9
-0.0008	0.0142	-0.0038	-0.0038	2
-0.0015	0.0172	-0.003	-0.0143	1.8
-0.0038	0.0187	-0.0046	-0.027	2
-0.0015	0.0217	-0.0053	-0.0278	1.9
-0.0008	0.0142	-0.0038	-0.0173	2
-0.003	-0.0098	0.0007	-0.0113	1.9
-0.0015	-0.0203	0.0045	0.0007	1.9
0.003	-0.015	0.0075	0.0022	2
0.0007	-0.0218	0.0067	-0.0053	1.9
0.0015	-0.003	0.0037	-0.0075	2.1
0.0022	0.009	0.0045	-0.0068	1.8
0.0015	0.0007	0.0045	-0.003	2.1
0.0045	0.0105	0.0045	0.003	1.8
0.0045	0.0015	0.0045	0.003	1.9
0.003	0.0037	0.003	0.0067	2
0.0007	0.0045	0.0015	0.0082	1.8
0.0022	0.0007	-0.0008	0.003	1.9
0.0045	0.0022	-0.0015	0.0015	1.8
0.0015	0.0015	-0.0015	0.0037	1.8
0.003	0.009	0	0.0052	1.8
0.0015	0.0067	-0.0023	0.0082	2
0.0015	0.009	-0.003	0.012	1.7
0.0007	0.009	-0.003	0.012	2
0	0.0067	-0.0038	0.009	1.7
0.0007	0.0045	0	0.0045	2.1
0.0007	0	-0.0008	-0.0008	1.7
-0.0008	-0.0015	-0.0038	-0.0038	1.9
-0.0023	-0.003	-0.0008	-0.0008	1.7
-0.003	-0.003	0.0015	-0.0015	1.9
-0.0046	-0.0008	0.0015	-0.0008	1.7
-0.0008	0.003	0	0.0015	1.8
-0.0008	0.0045	-0.0008	0.0045	1.6
-0.0008	0.0052	0.003	0.0045	1.8
0.0015	0.0045	0.003	0.0045	1.8
-0.0008	0.0022	0.0037	0.0097	1.5
0	0.003	0.0015	0.0105	1.8
0.0007	0.0015	-0.0023	0.0105	1.6
-0.0015	-0.0023	-0.003	0.009	1.8
-0.0008	-0.0053	-0.0015	0.0037	1.5
0.0007	-0.0053	0.003	0.0007	1.6
0.0022	-0.0053	-0.0158	-0.0038	1.5
0.0007	-0.006	-0.0443	-0.0075	1.5
-0.0015	-0.0008	-0.0398	-0.012	1.6
-0.0023	-0.0015	-0.0346	-0.015	1.6
-0.0008	-0.0091	-0.0195	-0.0128	1.6
0.0015	-0.0143	0.009	-0.0143	1.6
0.0015	-0.0181	0.0172	-0.0173	1.5
0.0015	-0.015	0.0225	-0.0143	1.5
0.0007	-0.0098	0.0165	-0.0105	1.5
0.003	-0.012	0.0112	-0.006	1.7
0.0052	-0.0091	0.0075	-0.006	1.4
0.0052	-0.0113	0.0045	-0.0053	1.6
0.0045	-0.0225	0.0142	0.0052	1.6
0.0037	-0.0181	0.0135	0.0135	1.5
0.0007	0.0022	0.0127	0.0135	1.4
-0.0015	0.0037	0.0105	0.006	1.6
-0.0038	0.0007	0.0097	-0.0008	1.3
-0.0083	0.0045	0.009	0.0007	1.5
-0.0083	-0.0015	0.0075	0.0007	1.4
-0.0083	0	0.0045	0.0045	1.5
-0.0068	0.0217	0.0015	0.0082	1.4
-0.0046	0.0345	0.0007	0.0045	1.5
-0.006	0.0255	0	0.0022	1.3
-0.0075	0.0232	0.0007	0.0007	1.4
-0.0075	-0.0038	-0.0023	-0.006	1.3
-0.0068	-0.0346	-0.0015	-0.0068	1.3
-0.0053	-0.0233	0	-0.0053	1.4
-0.003	-0.0015	0.0015	0.0015	1.3
-0.0023	0.003	-0.0023	0.009	1.3
-0.0046	0.003	-0.0091	0.0135	1.2
-0.0068	0.009	-0.0105	0.015	1.3
-0.006	0.009	-0.0091	0.0142	1.2
-0.0053	0.0052	-0.0083	0.0105	1.3
-0.0053	0.006	-0.0091	0.0082	1.2
-0.003	0.0082	-0.0098	0.006	0.9
-0.003	0.009	-0.0091	-0.0023	1.2
-0.0008	0.0105	-0.0068	-0.0143	1.1
0.0007	0.0075	-0.0046	-0.027	1.1
0.003	0.0015	-0.0023	-0.0278	1.2
0.0052	-0.0038	0.0007	-0.0188	1.1
0.0067	-0.0128	0.003	-0.0143	1.1
0.0052	-0.0158	0.003	-0.003	1
0.003	-0.0091	0.0045	0.0037	1.2
0.003	-0.0098	0.0045	0.0045	1.1
0.003	-0.0105	0.0082	0.0067	1.2
0.0037	-0.012	0.012	0.0052	1.1
0.0052	-0.0135	0.0105	0.0052	1.2
0.0045	-0.0091	0.0097	0.0022	0.9
0.003	-0.0046	0.0045	-0.0046	1.1
0.0015	0.003	0.0015	-0.0083	0.8
-0.0008	0.0067	0.0045	-0.0135	1.1
-0.0015	0.0067	0.006	-0.015	0.7
-0.0015	0.0082	0.0067	-0.0068	0.9
-0.0015	0.0045	0.0052	0.0022	0.9
-0.0046	0.0112	0.0052	0.0067	0.9
-0.003	0.0082	0.0037	0.0105	0.9
-0.0023	-0.0143	0.0022	0.012	0.8
-0.0008	-0.006	0	0.0142	1
-0.003	0.0157	-0.0015	0.0165	0.7
-0.0046	0.0195	0.0007	0.0165	0.9
-0.003	0.0277	0.003	0.0195	0.6
-0.0068	0.0345	0.0045	0.021	0.9
-0.0075	0.0352	-0.0008	0.0217	0.7
-0.0068	0.0412	-0.0038	0.0195	0.7
-0.0068	0.0382	-0.0008	0.0135	0.6
-0.006	0.0285	0.0007	0.009	0.7
-0.0068	0.0172	0.0007	0.0045	0.6
-0.006	0.0105	-0.0008	0.0045	0.7
-0.0046	0.0127	-0.0068	0.0067	0.6
-0.0015	0.0202	-0.0083	0.0007	0.6
-0.0008	0.0217	-0.003	-0.003	0.5
0.0007	0.003	-0.0008	-0.0046	0.6
0.0067	-0.0173	-0.0068	-0.0053	0.4
0.0082	-0.024	-0.006	-0.0068	0.4
0.0082	-0.0256	0	-0.0128	0.5
0.0082	-0.0368	-0.0015	-0.0225	0.5
0.0082	-0.0495	0.0007	-0.0278	0.3
0.012	-0.057	0.0082	-0.0353	0.6
0.0157	-0.0653	0.0067	-0.0398	0.3
0.0157	-0.0615	0.0045	-0.0361	0.4
0.0105	-0.0533	0.0007	-0.0338	0.1
0.0097	-0.0495	0.0052	-0.0308	0.5
0.0082	-0.0405	0.0127	-0.0181	0.2
0.009	-0.0233	0.0127	-0.0008	0.3
0.009	-0.0083	0.0067	0.006	0.1
0.006	-0.003	0.0007	0.0045	0.2
0.0045	0.0007	-0.0075	0.0082	0.1
0.0037	0.0052	-0.0173	0.0067	0.1
0.0022	0.0105	-0.0203	0.006	0.1
-0.0008	0.0127	-0.0233	0.012	-0.1
-0.0008	0.018	-0.024	0.0187	0.1
-0.0008	0.021	-0.0218	0.0217	-0.1
-0.0023	0.0202	-0.0181	0.0232	0.1
-0.0008	0.0217	-0.0128	0.0247	-0.1
-0.0008	0.0232	-0.0128	0.0195	0
-0.0008	0.0217	-0.0091	0.0127	-0.2
-0.0008	0.0217	-0.0053	0.009	0.1
-0.0008	0.0202	-0.0046	-0.0015	-0.2
-0.0015	0.0165	-0.0015	-0.0181	-0.1
-0.0023	0.012	-0.0015	-0.0248	-0.2
0	0.012	0.0007	-0.015	-0.2
-0.0023	0.0127	0.0037	-0.0053	-0.3
-0.0008	0.0142	0.0067	0.0037	-0.3
-0.0008	0.0195	0.006	0.009	-0.2
-0.0023	0.018	0.0022	0.0075	-0.2
-0.0015	0.0202	0.006	0.0075	-0.3
-0.0015	0.0277	0.0112	0.0082	-0.4
0	0.0307	0.0127	0.0105	-0.3
-0.0015	0.0232	0.0135	0.0142	-0.4
-0.0053	0.0172	0.0142	0.0202	-0.4
-0.0053	0.0262	0.015	0.021	-0.4
-0.0015	0.0165	0.0127	0.0142	-0.4
-0.003	0.0037	0.009	0.0195	-0.4
-0.003	-0.003	0.012	0.0195	-0.5
-0.0015	-0.012	0.0165	0.006	-0.5
0	-0.0203	0.015	0.0015	-0.5
0.0015	-0.0263	0.0127	0.0045	-0.5
0.0022	-0.0263	0.0142	-0.0038	-0.5
0.006	-0.0323	0.0097	-0.0165	-0.7
0.0082	-0.0323	0.0052	-0.0218	-0.7
0.0067	-0.0323	0.0075	-0.033	-0.7
0.0075	-0.0308	0.0082	-0.0555	-0.6
0.0067	-0.0278	0.0067	-0.0653	-0.8
0.003	-0.027	0.0082	-0.0346	-0.8
0.0007	-0.0135	0.0067	0.0007	-0.9
-0.0008	-0.0075	0.0015	0.0172	-0.8
-0.003	0.0045	0.0045	0.0262	-0.9
-0.0046	0.0322	0.0052	0.0225	-0.9
-0.0075	0.0465	0.0067	0.0195	-1
-0.0046	0.039	0.0135	0.0157	-0.9
-0.0038	0.021	0.012	0.0052	-0.9
-0.003	0	0.0142	0.0022	-1
-0.0015	-0.0165	0.015	-0.0015	-0.9
-0.0008	-0.012	0.0067	-0.0068	-1
-0.0015	0.0007	0.0067	-0.0165	-1
-0.0023	-0.0165	0.0127	-0.0195	-1.1
0	-0.0443	0.0105	-0.0098	-1.3
0.0007	-0.039	0.0105	-0.0038	-1.3
0.0007	-0.0218	0.012	0.0022	-1.2
0.0015	-0.0218	0.0142	0.003	-1.2
0.0022	-0.0091	0.0165	0	-1.4
0.0045	-0.0015	0.0127	-0.0023	-1.2
0.0015	0.0015	0.0105	0.0015	-1.4
0.003	0.0097	0.0105	0.0067	-1.4
0.0045	0.009	0.0052	0.0082	-1.5
0.0045	0.0157	0.0015	0.0067	-1.4
0.0045	0.0165	0.0007	0.0052	-1.6
0.0052	0.018	-0.0008	0.003	-1.4
0.0052	0.0165	-0.003	0.0015	-1.7
0.0045	0.0157	-0.003	-0.0008	-1.4
0.0022	0.0157	-0.0053	0.0015	-1.6
-0.003	0.0142	-0.0091	0.0015	-1.8
-0.0075	0.0142	-0.0128	0.0015	-1.7
-0.0083	0.0105	-0.0135	0.0067	-1.8
-0.012	0.012	-0.012	0.0112	-1.8
-0.0158	0.0105	-0.0135	0.009	-2
-0.0181	0.012	-0.012	0.0067	-1.7
-0.0181	0.0157	-0.0105	0.0052	-1.9
-0.0203	0.0195	-0.0113	0.006	-1.8
-0.021	0.021	-0.0128	0.0052	-2
-0.0203	0.0195	-0.0165	0.0022	-1.9
-0.0203	0.0105	-0.0158	-0.0038	-1.9
-0.0195	-0.012	-0.0143	-0.006	-1.9
-0.0181	-0.0128	-0.0105	0.0007	-2
-0.015	-0.0075	0.0007	0.0052	-2
-0.0105	-0.0128	0.0135	0.0052	-2.1
-0.0091	-0.0083	0.0232	0.0037	-2.1
-0.0083	-0.003	0.027	0.0015	-2
-0.0083	-0.0053	0.0255	-0.0015	-2.2
-0.0068	-0.006	0.0165	-0.0015	-2.2
-0.0053	-0.0023	0.0007	0.0022	-2.2
-0.0068	0.0037	-0.012	0.003	-2.3
-0.0046	0.0037	-0.0173	0.003	-2.3
-0.003	0.0037	-0.0195	0.009	-2.4
-0.003	0.012	-0.0248	0.0105	-2.5
0	0.0082	-0.0315	0.0045	-2.4
-0.0015	-0.0038	-0.0383	0.0127	-2.4
-0.003	-0.003	-0.0436	0.0142	-2.6
-0.0023	-0.0046	-0.0465	0.0075	-2.4
-0.0008	-0.0068	-0.0495	0.0037	-2.8
0	-0.0068	-0.0525	-0.0128	-2.5
-0.0015	-0.0091	-0.0548	-0.0346	-2.7
0.0007	-0.0091	-0.0488	-0.0443	-2.7
0.0015	-0.0068	-0.042	-0.0308	-2.7
0.0052	-0.0023	-0.0368	-0.0181	-2.8
0.006	-0.003	-0.0346	-0.0218	-2.6
0.0075	-0.0046	-0.0315	-0.0188	-2.9
0.0097	-0.0008	-0.027	-0.0068	-2.7
0.0105	0.0015	-0.0195	0.0045	-3.1
0.0082	0.0015	-0.0075	0.0082	-2.8
0.006	-0.0046	0.0045	0.0142	-3.2
0.0067	-0.0053	0.0142	0.0195	-2.8
0.0082	-0.0038	0.0255	0.0217	-3.1
0.009	-0.0075	0.0375	0.0195	-2.8
0.015	-0.0128	0.042	0.012	-3.1
0.0202	-0.0165	0.0375	0.0067	-3
0.0255	-0.0165	0.033	0.0052	-3
0.0285	-0.012	0.0262	0.0082	-2.9
0.0292	-0.006	0.0195	0.0015	-3.1
0.0285	-0.0015	0.0172	-0.0165	-3.2
0.0217	0.003	0.0232	-0.0278	-3.2
0.0142	0.003	0.027	-0.0218	-3.3
0.0052	0.0082	0.0225	-0.0105	-3.2
-0.0038	0.015	0.0202	-0.0113	-3.3
-0.0068	0.0105	0.018	-0.0083	-3.3
-0.012	-0.0023	0.018	-0.0075	-3.3
-0.0128	-0.0046	0.024	0.0037	-3.4
-0.0143	-0.0015	0.0262	0.0105	-3.3
-0.0165	-0.0128	0.0232	0.0067	-3.6
-0.0143	-0.0068	0.021	0.0067	-3.5
-0.0165	0.0052	0.0187	0.0037	-3.6
-0.0181	0.0067	0.012	0.0082	-3.6
-0.0195	0.0067	0.003	0.0075	-3.6
-0.0181	0.0082	-0.003	0.0075	-3.6
-0.0158	0.0135	-0.0053	0.0105	-3.7
-0.0158	0.0127	-0.0105	0.0127	-3.8
-0.012	0.0127	-0.0143	0.0157	-3.8
-0.0075	0.0157	-0.0165	0.0142	-3.8
-0.003	0.0172	-0.024	0.018	-3.9
0.0037	0.0195	-0.0308	0.024	-3.9
0.0082	0.018	-0.0285	0.0247	-3.9
0.009	0.018	-0.0293	0.0165	-3.9
0.012	0.0157	-0.0315	0.0097	-3.9
0.0157	0.012	-0.0436	0.0045	-4.1
0.0157	0.009	-0.0675	-0.0068	-4
0.0172	0.0022	-0.0668	-0.0098	-4.1
0.0217	-0.0023	-0.0346	-0.0143	-4.1
0.0232	-0.0008	-0.0128	-0.0195	-4.2
0.0195	0.0165	-0.0105	-0.0173	-4.2
0.018	0.051	-0.0113	-0.0038	-4.2
0.0172	0.0855	-0.003	0.0202	-4.1
0.0127	0.0922	0.0172	0.0225	-4.2
0.0157	0.0622	0.0247	0.0082	-4.2
0.0195	-0.003	0.0337	-0.003	-4.2
0.0165	-0.0885	0.0495	-0.0143	-4.4
0.0157	-0.1455	0.054	-0.0225	-4.3
0.0202	-0.1215	0.0495	-0.0278	-4.5
0.0202	-0.0668	0.042	-0.027	-4.4
0.0217	-0.0578	0.036	-0.0315	-4.4
0.0277	-0.0578	0.0315	-0.0383	-4.4
0.027	-0.063	0.027	-0.0346	-4.5
0.0255	-0.0548	0.024	-0.0263	-4.6
0.027	-0.0375	0.027	-0.0158	-4.5
0.0255	-0.0263	0.03	-0.0075	-4.5
0.0225	-0.003	0.03	0.0007	-4.5
0.0202	0	0.0307	0.0045	-4.6
0.0165	0.0052	0.0285	0.009	-4.7
0.0105	0.0105	0.0277	0.015	-4.7
0.006	0.0172	0.0255	0.018	-4.7
0.0007	0.0277	0.0217	0.0187	-4.8
-0.0053	0.03	0.015	0.0157	-4.8
-0.012	0.0315	0.009	0.0112	-4.7
-0.0165	0.0307	0.006	0.0195	-4.8
-0.021	0.0367	0.003	0.0382	-4.8
-0.027	0.0352	0.0007	0.0315	-5
-0.0323	0.0367	-0.0008	0.003	-4.8
-0.0346	0.036	-0.0023	-0.0143	-5
-0.0383	0.03	-0.0015	-0.0248	-4.9
-0.039	0.0105	-0.003	-0.042	-5
-0.0383	-0.0083	-0.0053	-0.0368	-4.9
-0.0383	-0.0015	-0.0083	-0.0105	-5.3
-0.0346	0.0052	-0.0083	0.009	-5.1
-0.03	0.0142	-0.0083	0.0255	-5.2
-0.0233	0.0202	-0.0091	0.033	-5.2
-0.0195	0.0195	-0.0098	0.0292	-5.2
-0.0143	0.018	-0.0098	0.0255	-5.4
-0.0083	0.015	-0.0091	0.0142	-5.2
-0.0015	0.0112	-0.0068	-0.0068	-5.4
0.0022	0.0067	-0.0053	-0.0285	-5.2
0.0045	0.0022	-0.0053	-0.0346	-5.4
0.009	0.0007	-0.006	-0.0203	-5.3
0.0105	0.0037	-0.0038	-0.0113	-5.4
0.0105	-0.0068	-0.0023	-0.006	-5.2
0.0127	-0.024	-0.003	-0.0023	-5.3
0.009	-0.0308	-0.0023	-0.0075	-5.4
0.003	-0.0323	-0.0068	-0.0038	-5.6
-0.0046	-0.0308	-0.0098	-0.0053	-5.6
-0.0128	-0.0233	-0.0105	-0.0038	-5.6
-0.0165	-0.0143	-0.012	0.0015	-5.7
-0.0181	-0.0046	-0.0113	0.006	-5.6
-0.0225	0.0015	-0.0128	0.0112	-5.7
-0.0233	0.0052	-0.012	0.0142	-5.8
-0.0218	0.012	-0.0083	0.0202	-5.9
-0.0203	0.0195	-0.0068	0.0232	-5.7
-0.0158	0.0292	-0.0046	0.0307	-5.8
-0.0128	0.0382	-0.0068	0.0352	-5.9
-0.0068	0.0382	-0.0068	0.0247	-5.9
0.0007	0.0292	-0.0083	0.0157	-5.9
0.0045	0.0187	-0.0083	0.0067	-5.9
0.009	0.0165	-0.0053	-0.0068	-6.1
0.0112	0.0165	-0.003	-0.0225	-5.9
0.0142	-0.003	0.0007	-0.0315	-6.2
0.0157	-0.0165	0.0015	-0.0233	-6
0.0127	-0.0158	0.0045	-0.0203	-6.1
0.0082	-0.0218	0.0052	-0.0188	-6
0.006	-0.0218	0.0082	-0.0128	-5.9
0.0067	-0.0503	0.0142	-0.0143	-6.2
0.003	-0.0788	0.0157	-0.0083	-6
-0.0015	-0.06	0.0157	-0.0068	-6.4
-0.0015	-0.0293	0.015	-0.003	-6
-0.0015	-0.0098	0.0105	0.012	-6.3
-0.0015	0.0052	0.0075	0.0202	-6.2
0.0022	0.012	0.0067	0.0217	-6.3
0.006	0.0067	0.006	0.0232	-6.2
0.012	0.0015	0.003	0.0217	-6.3
0.0142	-0.0015	0.0007	0.0157	-6.3
0.0195	0.009	0	0.012	-6.5
0.0217	0.018	0.0007	0.0022	-6.4
0.0232	0.027	0.0015	-0.0135	-6.4
0.0187	0.0345	0.003	-0.0256	-6.4
0.009	0.0232	0.0075	-0.0285	-6.4
0.003	0.009	0.0112	-0.0128	-6.6
-0.0053	-0.003	0.006	-0.0008	-6.7
-0.0091	-0.0188	-0.0075	-0.0008	-6.8
-0.0068	-0.0443	-0.0225	-0.006	-6.7
-0.0015	-0.0383	-0.0338	-0.0068	-6.7
0.0045	-0.0023	-0.0375	-0.0023	-6.8
0.0067	0.0045	-0.0346	0.0007	-6.7
0.0067	0.0105	-0.0278	0.0105	-6.8
0.0045	0.0157	-0.0188	0.0142	-6.8
0.003	0.0127	-0.0113	0.0105	-6.8
0.0037	0.0165	-0.0046	0.0142	-6.5
0.003	0.0142	-0.0038	0.018	-6.9
0.0045	0.0142	-0.0068	0.0187	-6.9
0.0022	0.0127	-0.0113	0.018	-7
0.0022	0.015	-0.0128	0.0105	-6.8
0.003	0.0127	-0.006	-0.0008	-6.9
0.0045	0.0097	-0.0023	-0.012	-6.9
0.003	0.0105	-0.0008	-0.0135	-7.1
0.006	0.0135	0.0007	-0.0015	-6.9
0.0067	0.024	0.003	0.003	-6.9
0.0022	0.0255	0.0045	0.0015	-7.1
-0.0023	0.018	0.0037	0.0007	-7
-0.0046	0.0127	-0.0053	0.0015	-7.1
-0.0068	-0.0008	-0.0143	0.0112	-7.1
-0.0098	-0.0173	-0.0203	0.0225	-7.1
-0.0083	-0.0053	-0.0248	0.0292	-7.3
-0.006	0.0075	-0.0256	0.0262	-7.2
-0.0053	-0.0143	-0.027	0.0217	-7.4
-0.0068	-0.0293	-0.0256	0.0112	-7.1
-0.0105	-0.0225	-0.0256	-0.015	-7.3
-0.015	-0.0233	-0.0248	-0.045	-7.3
-0.015	-0.027	-0.0195	-0.066	-7.3
-0.0165	-0.0181	-0.0113	-0.0788	-7.4
-0.0135	-0.0263	-0.0015	-0.0788	-7.3
-0.0128	-0.027	0.0015	-0.0511	-7.3
-0.0135	-0.0075	0.0022	-0.0256	-7.2
-0.0105	-0.0023	0.0007	0.0015	-7.6
-0.0091	-0.003	0	0.0172	-7.2
-0.0105	-0.0008	0.0015	0.0082	-7.4
-0.0113	-0.0015	-0.0015	0.012	-7.2
-0.0105	0.0052	-0.0046	0.015	-7.6
-0.0105	0.0097	-0.0053	0.0195	-7.4
-0.0113	0.0142	-0.0053	0.021	-7.5
-0.012	0.015	-0.0023	0.0172	-7.4
-0.0098	0.0097	0.0015	0.0202	-7.5
-0.0105	0.0127	0.0067	0.0195	-7.6
-0.0083	0.0165	0.0157	0.0217	-7.6
-0.006	0.021	0.021	0.0202	-7.6
-0.0075	0.0262	0.0232	0.0232	-7.6
-0.0075	0.042	0.0255	0.0375	-7.6
-0.0098	0.06	0.024	0.042	-7.7
-0.0105	0.051	0.0202	0.039	-7.7
-0.0068	0.024	0.0195	0.0352	-7.7
-0.0046	0.012	0.0142	0.0247	-7.6
-0.0053	0.012	0.0075	0.0082	-7.8
-0.003	-0.0091	0.0022	-0.0158	-7.7
0.0015	-0.0308	0.0007	-0.0285	-7.9
0.0052	-0.0285	-0.0015	-0.0346	-7.7
0.0067	-0.0293	-0.0015	-0.042	-7.9
0.009	-0.045	-0.0015	-0.0465	-7.7
0.0075	-0.054	0.0015	-0.0495	-7.9
0.0045	-0.0405	0.006	-0.0368	-7.7
0.0037	-0.0113	0.0067	-0.021	-7.9
0.003	0.0015	0.0082	-0.0083	-7.8
0.0015	0.0052	0.0007	-0.0008	-7.9
0.003	-0.0083	-0.0105	-0.0053	-8
0	-0.0398	-0.0128	-0.0105	-7.8
0.0007	-0.027	-0.0113	-0.012	-8.1
0.003	-0.0098	-0.0113	-0.0053	-7.9
0.0037	-0.0165	-0.0098	-0.0008	-8.1
0.0045	-0.0181	-0.0091	0.0105	-8
0.0052	-0.0181	-0.0083	0.018	-8.1
0.009	-0.0181	-0.0015	0.0142	-8
0.0142	-0.0315	0.0045	0.0187	-8
0.0142	-0.0361	0.006	0.0157	-8.1
0.0105	-0.0181	0.006	0.012	-8.1
0.009	-0.0098	0.0045	0.0127	-8.1
0.006	0.0067	0	0.006	-8.1
0.0007	0.0217	-0.0038	-0.0128	-8.2
0.0007	0.0285	-0.0046	-0.0361	-8.1
0	0.027	-0.006	-0.0405	-8.2
-0.003	0.0127	-0.0091	-0.0293	-8.2
-0.0053	0.0157	-0.0068	-0.0113	-8.2
-0.0046	0.0195	-0.0068	0.0067	-8.3
-0.003	0.0217	-0.0053	0.018	-8.1
-0.003	0.0255	-0.0053	0.0217	-8.4
-0.0008	0.027	-0.0128	0.0292	-8.2
0.0007	0.0345	-0.0233	0.0397	-8.4
-0.0023	0.0517	-0.0256	0.0465	-8.4
-0.0023	0.0697	-0.012	0.057	-8.5
-0.0015	0.078	-0.0046	0.069	-8.5
-0.0015	0.084	-0.0053	0.0592	-8.2
-0.0015	0.0577	-0.003	0.0165	-8.5
-0.0015	-0.012	-0.0068	-0.0233	-8.2
-0.0046	-0.0548	-0.0091	-0.0398	-8.4
-0.0091	-0.0353	-0.0091	-0.0436	-8.6
-0.0083	-0.027	-0.0053	-0.0443	-8.5
-0.0075	-0.0458	0.0007	-0.0623	-8.5
-0.0075	-0.0653	0.0037	-0.093	-8.5
-0.0083	-0.0863	0.006	-0.0968	-8.6
-0.0098	-0.084	0.0105	-0.0668	-8.5
-0.0053	-0.045	0.0135	-0.0233	-8.8
-0.006	-0.0053	0.0127	0.015	-8.5
-0.0053	0.0045	0.012	0.033	-8.7
-0.0038	0.0187	0.0105	0.0345	-8.5
-0.0023	0.0255	0.0082	0.0382	-8.7
0.0007	0.027	0.0045	0.0397	-8.7
0.0007	0.0367	0.0007	0.0465	-8.7
0.0037	0.0375	0	0.0592	-8.5
0.0037	0.0517	0.0007	0.0682	-8.6
0.0037	0.0757	0.0015	0.066	-8.6
0.0082	0.084	0.0067	0.0435	-8.6
0.0075	0.0585	0.012	-0.0083	-8.7
0.0045	-0.0068	0.0135	-0.0773	-8.8
0.0015	-0.0983	0.0165	-0.0915	-8.7
-0.0008	-0.1335	0.0165	-0.0563	-8.9
-0.0023	-0.096	0.0157	-0.024	-8.8
-0.0015	-0.0353	0.0157	0.0195	-8.8
0.0045	0.0037	0.0157	0.0457	-8.8
0.0052	0.0232	0.015	0.0442	-9
0.0045	0.0495	0.0127	0.0382	-8.9
0.0052	0.0472	0.0105	0.0052	-9
0.003	0.0172	0.0052	-0.0413	-8.9
0	-0.0075	0.0045	-0.0638	-9.1
-0.0015	-0.0256	0.0015	-0.0645	-8.9
-0.0015	-0.0398	0.0015	-0.0563	-9.1
-0.0023	-0.039	0.003	-0.0308	-8.8
-0.0038	-0.0256	0.0022	-0.0083	-9.1
0.0007	-0.0195	0.006	0.0067	-9
0.0007	-0.015	0.006	0.018	-9
0	-0.0015	0.0052	0.0247	-9.2
-0.0015	0.0127	0.006	0.033	-9
0.0007	0.0262	0.0067	0.0315	-9.4
-0.0008	0.0442	0.009	0.033	-9.1
-0.0008	0.0577	0.009	0.0307	-9.3
0.0007	0.0547	0.0045	0.0142	-9.1
-0.0008	0.0405	0.0022	0.0142	-9.2
0	0.0382	0.0022	0.0247	-9.2
0	0.0202	0.0015	0.024	-9.4
-0.0008	-0.0203	-0.0008	0.0045	-9.3
-0.0015	-0.0375	-0.0015	-0.0038	-9.5
-0.003	-0.0368	0	0.003	-9.4
-0.0015	-0.0495	0.003	-0.0053	-9.5
-0.003	-0.0405	0.0037	-0.0105	-9.5
0.0007	-0.0083	0.003	0.0007	-9.4
0.0022	-0.0075	0.0045	0.0135	-9.5
0.0015	0.0067	0.0045	0.0307	-9.6
0.0037	0.0225	0.003	0.039	-9.7
0.0045	0.0187	-0.0015	0.0397	-9.6
0.0037	0.024	-0.0046	0.0442	-9.5
0.009	0.0202	-0.003	0.0427	-9.8
0.009	0.0127	-0.003	0.0345	-9.7
0.0067	-0.0015	-0.0046	0.024	-9.9
0.0052	-0.0015	-0.0053	0.006	-9.7
0	0.0097	-0.0015	-0.0181	-9.9
-0.0015	0.0322	0.0045	-0.027	-9.8
-0.0046	0.0652	0.0075	-0.0173	-9.9
-0.0038	0.0825	0.012	-0.042	-9.9
-0.003	0.0637	0.018	-0.0923	-10.1
-0.0038	-0.0181	0.0195	-0.1208	-10.2
-0.0053	-0.1148	0.0142	-0.1178	-10
-0.0068	-0.1485	0.0157	-0.1155	-10
-0.003	-0.1268	0.018	-0.1043	-10.1
-0.003	-0.0743	0.0142	-0.039	-10.3
-0.003	-0.0256	0.012	-0.0053	-10.2
-0.0008	0.0067	0.009	0.0022	-10.3
-0.0008	0.0165	0.0052	0.0217	-10.4
0.0007	0.012	0.0015	0.0262	-10.4
0.0015	0.0195	-0.0046	0.0442	-10.4
0.0015	0.018	-0.0046	0.0517	-10.4
-0.0008	0.0405	-0.0068	0.0592	-10.5
0.0007	0.0615	-0.0075	0.0667	-10.5
0.0037	0.0862	-0.0053	0.066	-10.8
0.006	0.1215	-0.0038	0.057	-10.5
0.009	0.1155	-0.0053	0.0262	-10.8
0.0052	0.069	-0.006	0.0022	-10.8
0.0007	0.0067	-0.0038	-0.0158	-10.8
0.0007	-0.0683	-0.0046	-0.0315	-10.8
-0.0008	-0.1485	0	-0.0473	-11
-0.0008	-0.1313	0.0045	-0.0413	-11.1
0.0015	-0.0706	0.009	-0.0308	-10.8
0.0022	-0.0675	0.0082	-0.0308	-11.1
0	-0.0428	0.0052	-0.0158	-11.1
0.0015	-0.0143	0.0052	0.0007	-11.2
0.003	0.003	0.0015	0.0292	-11.2
0.003	0.0225	0.0015	0.0367	-11.3
0.003	0.024	0.0015	0.0292	-11.4
0.0007	0.0315	0	0.0352	-11.3
0	0.0345	-0.0008	0.0367	-11.5
0.0015	0.0315	-0.0023	0.0405	-11.4
0.0037	0.03	-0.006	0.0555	-11.6
0.0037	0.0255	-0.0083	0.0922	-11.6
0.0045	0.0187	-0.0068	0.1237	-11.6
0.0067	0.0097	-0.006	0.1125	-11.7
0.0105	0.0045	-0.0046	0.096	-11.7
0.0127	0.0112	-0.003	0.0757	-11.8
0.0135	0.0382	-0.0015	0.039	-11.9
0.012	0.072	-0.0053	0.003	-12.1
0.009	0.084	-0.006	-0.0743	-11.9
0.0112	0.0502	-0.0008	-0.1823	-12.2
0.0127	-0.027	0.006	-0.24	-12
0.0097	-0.1006	0.0127	-0.2123	-12.4
0.009	-0.1365	0.0157	-0.1411	-12.2
0.0075	-0.1185	0.0127	-0.0938	-12.4
0.0052	-0.0555	0.0105	-0.0405	-12.3
0.0037	-0.0346	0.0045	-0.0015	-12.7
0.003	-0.0555	0.0015	0.009	-12.5
0.0037	-0.033	0.0007	0.024	-12.6
0.0015	0.018	-0.0038	0.0217	-12.6
-0.0015	0.0382	-0.0053	0.0142	-12.8
-0.0008	0.0427	-0.0091	0.009	-13.1
-0.0015	0.0367	-0.012	0.0052	-13.1
-0.0015	-0.0053	-0.0143	0.0105	-13.2
-0.0015	-0.0233	-0.0173	0.0112	-13.1
-0.0038	-0.003	-0.0158	0.0165	-13.4
-0.0023	0.0225	-0.0128	0.0352	-13.1
0.0007	0.0262	0.003	0.051	-13.2
0.0007	0.0217	0.015	0.0465	-13.4
0.0015	0.0285	0.0022	0.042	-13.5
0.0037	0.0277	-0.0098	0.045	-13.6
0.0052	0.033	-0.0195	0.042	-13.6
0.0075	0.0495	-0.024	0.0397	-13.8
0.0067	0.06	-0.0203	0.0247	-13.8
0.0015	0.0405	-0.0181	-0.0068	-14
-0.0015	0.024	-0.0173	-0.0053	-14.2
-0.003	-0.006	-0.0135	-0.0068	-14.1
-0.0046	-0.0585	-0.0091	-0.0233	-14.2
-0.0015	-0.0473	-0.0075	0.003	-14.4
-0.0015	-0.0181	-0.0113	0.015	-14.5
-0.0015	-0.0413	-0.0135	-0.0053	-14.4
0.0007	-0.0315	-0.0135	-0.0128	-14.8
-0.0008	0.0022	-0.0128	-0.0181	-14.7
-0.0023	-0.0023	-0.0113	-0.0015	-14.9
-0.0023	0.0255	-0.0113	0.0202	-14.9
-0.0046	0.0375	-0.0091	-0.0181	-15.2
-0.0023	0.024	-0.0083	-0.063	-15.2
-0.0023	0.006	-0.0075	-0.078	-15.1
-0.0008	-0.0105	-0.006	-0.0803	-15.4
0.003	-0.0233	-0.0046	-0.0511	-15.4
0	-0.0443	-0.0068	-0.0083	-15.4
-0.0015	-0.012	-0.006	0.0307	-15.5
-0.0046	0.021	-0.0015	0.0577	-15.6
-0.006	0.0382	0.0022	0.0712	-15.8
-0.0046	0.0337	0.0067	0.063	-15.9
-0.003	0.0135	0.0075	0.0345	-16
-0.003	-0.0158	0.0045	-0.0158	-16.2
-0.0046	-0.0368	0.006	-0.0743	-16.3
-0.0046	-0.0053	0.009	-0.0743	-16.2
-0.003	0.0075	0.0105	-0.0173	-16.6
-0.0015	0.0015	0.0082	0.0765	-16.2
0.0007	0.006	0.0022	0.1552	-16.7
0.0015	0.0037	0.0015	0.1762	-16.7
0.0007	0.0097	0.003	0.165	-16.9
0.0015	0.0165	-0.0015	0.105	-17
0.0007	0.021	-0.0083	0.0412	-17.3
0.0022	0.0255	-0.015	-0.0188	-17.3
-0.0015	0.0142	-0.0195	-0.1185	-17.5
-0.0046	-0.003	-0.0173	-0.1943	-17.6
-0.0046	-0.015	-0.0083	-0.1928	-17.6
-0.0053	-0.0233	-0.0008	-0.1365	-17.9
-0.006	-0.0165	0.006	-0.0368	-17.8
-0.0068	-0.0083	0.0165	0.018	-18.1
-0.0053	-0.0068	0.0322	-0.0046	-18
-0.0068	-0.003	0.0442	-0.0068	-18.4
-0.0105	0.009	0.0495	-0.0248	-18.4
-0.0091	0.0007	0.0585	-0.0248	-18.6
-0.0105	-0.0188	0.0615	0.018	-18.6
-0.0083	-0.021	0.0555	0.0202	-18.8
-0.0068	-0.033	0.051	0.0142	-19
-0.006	-0.0293	0.0435	0.0075	-19
0	-0.0158	0.0307	0.0142	-19.3
0.0007	-0.0113	0.0172	-0.0053	-19.4
0.0015	0.0142	0.0105	-0.0346	-19.4
0.0052	0.0502	0.0105	0.0082	-19.6
