File Name: sentado.log
Channel 4: 'Recto Femoral', 14912 values, engineering units: mV, no filters.
Channel 5: 'Biceps Femoral', 14912 values, engineering units: mV, no filters.
Channel 6: 'Vasto Medial', 14912 values, engineering units: mV, no filters.
Channel 7: 'EMG Semitendinoso', 14912 values, engineering units: mV, no filters.
Channel 8: 'Flexo-Extension', 14912 values, engineering units: deg, no filters.

-0.0008	-0.0008	0	-0.003	-74.8
0.0037	-0.0015	-0.0023	-0.0046	-74.8
0.003	-0.0008	-0.0015	-0.0023	-74.6
0.0037	-0.003	0	-0.003	-74.7
0.003	0	-0.0015	-0.0015	-74.7
0.0037	0.0015	-0.0023	-0.0023	-74.7
0.0045	-0.0008	-0.0023	-0.0015	-74.8
0.0045	0.0007	-0.0015	-0.0015	-74.7
0.0052	0	-0.0023	-0.0038	-74.7
0.0045	-0.0015	-0.0008	-0.003	-74.7
0.0015	-0.0008	-0.0008	-0.003	-74.8
0.0015	-0.0008	-0.0015	-0.0008	-74.7
0.0015	0.0007	-0.0008	0.0007	-74.7
0.0015	0.0007	-0.0015	0.0007	-74.7
0.003	0.0007	-0.0015	0.0022	-74.6
0.0037	-0.0008	-0.0015	0.0007	-74.8
0.0015	-0.0008	-0.0023	0.0022	-74.6
0.0015	-0.0008	-0.0038	0.0045	-74.9
-0.0008	-0.0008	-0.003	0.0037	-74.6
0.0007	0.0015	-0.0023	0.0037	-74.7
0	0.0022	-0.0046	0.0052	-74.7
-0.0008	0.0015	-0.003	0.0052	-74.7
-0.003	0.0022	-0.0038	0.0045	-74.7
-0.0038	0.0022	-0.003	0.0045	-74.7
-0.0015	0.0007	-0.0015	0.0037	-74.7
-0.003	0.0015	-0.0015	0.003	-74.7
-0.003	0.0015	-0.0015	0.003	-74.7
-0.0046	0.0007	-0.003	0.0022	-74.7
-0.003	0.0007	-0.0015	0.0007	-74.7
-0.0008	0	-0.0008	-0.0015	-74.9
-0.0015	-0.0008	0	-0.0008	-74.7
-0.0015	0	-0.0008	-0.0015	-74.9
-0.003	0.0007	-0.0015	-0.0023	-74.7
-0.0008	-0.0015	-0.0008	-0.0023	-74.7
-0.0008	-0.0015	-0.0008	-0.0008	-74.7
-0.0008	-0.0015	0.0007	-0.0008	-74.6
0.0015	-0.0008	0.0022	0.0007	-74.8
-0.0008	0.0015	0.003	0.0007	-74.7
0	0.0015	0.003	0.0015	-74.7
0	0.0015	0.003	0.0007	-74.6
-0.0015	0.003	0.0022	0.0007	-74.7
0	0.0015	0.0037	0.0007	-74.7
-0.0008	0.0007	0.003	0.0007	-74.6
-0.0008	-0.0008	0.003	0	-74.7
0	-0.0015	0.0037	0	-74.7
-0.0015	0	0.0037	-0.0008	-74.7
0	0	0.003	-0.0015	-74.7
-0.0008	-0.0008	0.0037	-0.0015	-74.7
-0.0015	-0.0008	0.0015	0.0007	-74.6
0	0	0.0007	0.0007	-74.9
0.003	0	0.0022	0.0015	-74.6
0.003	0.0022	0.0015	0.0052	-74.8
0.0015	0.0022	0.0007	0.006	-74.7
-0.0008	0.0015	0.0007	0.0037	-74.8
0.0007	0.0007	0.0015	0.0015	-74.7
0.0007	-0.0008	0	-0.0008	-74.7
-0.0023	0	0.0007	-0.0015	-74.6
-0.0008	0.0007	0.0007	-0.0008	-74.8
-0.0023	-0.0008	0.0015	-0.0015	-74.7
-0.0008	-0.003	0.0022	-0.003	-74.7
0.0007	0	0	-0.0015	-74.6
0.0007	0.0015	0.0007	0	-74.7
0	0.0007	-0.0008	-0.0008	-74.7
0	0	-0.0015	-0.0023	-74.7
0.0015	0.0015	-0.0008	-0.0008	-74.6
0.0007	0.0015	0.0007	0.0007	-74.7
0.0007	0.0015	-0.0008	0	-74.7
-0.0008	0.0015	0.0007	0.0007	-74.7
-0.0008	0.0015	0.0007	-0.0008	-74.7
0	0.0007	0.0007	-0.0015	-74.8
0.0007	0	0.0007	-0.0023	-74.7
0.0022	0.0007	0	-0.0023	-74.7
0.0015	-0.0015	-0.0008	-0.0038	-74.8
-0.0008	-0.0015	0.0015	-0.0046	-74.7
-0.0008	-0.0008	0.0015	-0.003	-74.7
0.0015	-0.0015	0.0015	-0.003	-74.6
0.0007	-0.0015	0.0007	-0.0008	-74.7
0.0007	-0.0015	0.0015	0.0015	-74.8
-0.0015	-0.0015	0.0015	0.0015	-74.8
-0.0015	0	0.0015	0.0052	-74.7
-0.0015	0.003	0.0007	0.0082	-74.7
-0.003	0.0052	-0.0015	0.009	-74.7
-0.003	0.0045	-0.0015	0.0105	-74.9
-0.0038	0.0045	-0.0015	0.0105	-74.8
-0.0038	0.0045	-0.0015	0.0067	-74.7
-0.0038	0.003	0	0.0037	-74.9
-0.0015	0.0022	0.0007	0.0007	-74.6
0.0007	0.0007	0.0007	-0.0008	-74.7
0	-0.0015	0.0015	-0.0023	-74.8
-0.0008	-0.0008	0.0015	-0.003	-74.7
0	0.0007	0.0015	-0.0023	-74.8
0.0007	-0.0008	0.0015	-0.0046	-74.7
0.0007	-0.003	0.003	-0.0046	-74.8
0.0015	-0.0015	0.0037	-0.0046	-74.7
0.0007	-0.0015	0.0022	-0.0015	-74.9
0.0015	-0.0015	0.003	-0.0008	-74.7
0.0015	-0.0015	0.0015	0.0007	-74.7
0	0	0.0015	0.0015	-74.6
0.0015	0.0007	0.0015	0.0015	-74.8
0.0015	0.0007	0.0015	0.003	-74.7
-0.0008	0.0022	0.0022	0.003	-74.7
-0.0015	0.0015	0.0007	0.0037	-74.8
-0.0023	0.0007	0.0007	0.0052	-74.7
0	0.0015	0.0015	0.0045	-74.7
0.0007	0.0007	0.003	0.003	-74.9
-0.0015	-0.0008	0.003	0.0015	-74.7
-0.0023	-0.0008	0.0022	-0.0008	-74.7
-0.0008	0	0.0015	-0.0008	-74.7
0	-0.0008	0	0	-74.7
0	-0.0008	-0.0008	0	-74.7
-0.0023	0.0007	0.0007	-0.0015	-74.9
-0.0015	0.0015	0.0007	-0.0015	-74.6
-0.0008	0.0015	-0.0008	-0.0015	-74.9
-0.0015	0	-0.0008	-0.0008	-74.7
0.0007	0.0015	0	-0.0015	-74.8
0.0007	0.0007	0.0007	-0.003	-74.6
0.0015	-0.0008	0.0015	-0.003	-74.9
0.0022	-0.0015	0.0007	-0.003	-74.6
-0.0015	-0.0015	0.0015	-0.0023	-74.7
-0.0015	0	0.003	-0.003	-74.7
0.0007	-0.0015	0.0045	-0.0046	-74.7
0.0015	-0.0008	0.0037	-0.0038	-74.7
0.0007	0	0.003	-0.003	-74.8
-0.0008	-0.0008	0.003	-0.0015	-74.9
0	-0.0008	0.003	-0.0015	-74.7
0	-0.0008	0.0015	-0.0015	-74.9
-0.0008	-0.0023	0.003	-0.0015	-74.7
0	-0.0046	0.0045	-0.0038	-74.7
0.0007	-0.0046	0.003	-0.0008	-74.7
0.0007	-0.0046	0.0022	0.0022	-74.7
0.0015	-0.0008	0.0007	0.0067	-74.8
-0.0008	0.0015	0	0.009	-74.7
-0.0008	0.003	0.0007	0.0082	-74.8
-0.0023	0.0045	-0.0015	0.009	-74.7
-0.0015	0.0052	-0.0023	0.0067	-74.7
-0.0008	0.0045	-0.003	0.0045	-74.8
0.0007	0.003	-0.003	0.0045	-74.8
-0.0008	0.0015	-0.0015	0.0015	-74.7
0.0007	0.0007	-0.0008	0.0007	-74.7
0.0007	0.0007	-0.0015	0	-74.8
0.0015	-0.0008	-0.0015	-0.0023	-74.7
0	-0.0015	-0.0008	-0.0038	-74.8
0	-0.0015	-0.0023	-0.0038	-74.7
0.0022	-0.0008	-0.0023	-0.003	-74.8
0.0022	0	-0.0023	-0.003	-74.7
0.003	-0.0008	-0.0008	-0.0015	-74.8
-0.0008	0.0007	0	-0.0015	-74.7
-0.0008	-0.0015	0.0007	-0.0015	-74.9
0.0022	-0.0015	0.0015	-0.0015	-74.8
-0.0008	0.0007	0.0007	-0.0008	-74.8
-0.0023	0.0015	-0.0015	0.0015	-74.7
0.0007	0.003	-0.0046	0.0052	-74.7
0	0.003	-0.003	0.0045	-74.7
-0.0015	0.0037	-0.0008	0.0045	-74.8
-0.0015	0.003	-0.003	0.0052	-74.7
-0.0008	0.003	-0.0015	0.0037	-74.7
0.0007	0.0022	-0.0008	0.003	-74.7
0.0015	0.0007	-0.0015	0.003	-74.8
0.0015	0.0022	-0.0008	0.003	-74.7
0.0015	0.0007	-0.0008	0.0022	-74.8
0.0007	0	-0.0008	0.0015	-74.7
0.0015	0.003	-0.0015	-0.0008	-74.9
0.0015	0.0007	-0.0008	-0.003	-74.7
0.0007	0.0007	0	-0.0038	-74.9
-0.0008	-0.0008	0.0015	-0.0038	-74.7
0	-0.0008	0.0007	-0.0038	-74.7
-0.0008	-0.0015	0	-0.003	-74.7
0	-0.0023	-0.0008	-0.0038	-74.7
-0.0008	-0.0015	-0.0008	-0.0023	-74.7
-0.0015	-0.0008	0.0007	-0.0015	-74.8
0	0.0015	0.0015	-0.0015	-74.8
0.0007	0.0007	0.0007	-0.0008	-74.7
0	0.0007	-0.0008	0	-74.8
0.0007	0.0015	0.0007	0.0007	-74.7
0.0007	0	0	0.0007	-74.8
-0.0008	-0.0008	-0.0008	0.0015	-74.7
0.0007	0.0007	0	0.0007	-74.7
-0.0008	0.0015	-0.0015	0.0015	-74.9
-0.0008	0.0022	-0.0023	0.003	-74.7
0	0.0022	-0.0015	0.0037	-74.7
-0.0038	0.0022	-0.0008	0.0045	-74.7
-0.003	0.0015	-0.0008	0.003	-74.9
-0.003	0.0007	0	0.0015	-74.7
-0.003	0	-0.0008	0	-74.7
-0.0015	-0.0008	-0.0008	-0.0015	-74.7
-0.0015	-0.0015	-0.0015	-0.0015	-74.8
-0.0008	0	-0.0015	-0.0008	-74.7
-0.0015	-0.0008	-0.0008	0.0007	-74.7
-0.003	-0.0015	-0.0008	0.0007	-74.9
-0.0008	-0.0008	-0.0008	-0.0008	-74.7
0	-0.0008	-0.0008	-0.0015	-74.8
-0.0008	-0.0008	-0.0023	-0.0008	-74.7
-0.0008	-0.0008	-0.0015	-0.0008	-74.8
0	-0.0008	-0.003	0	-74.7
-0.0008	-0.0008	-0.0038	0.0015	-74.7
-0.0015	0.0007	-0.0015	0.0007	-74.7
-0.0023	0.0015	-0.0023	0.0007	-74.7
-0.0008	0.0007	-0.003	0.0007	-74.7
0.0007	0.0015	-0.0046	0.0007	-74.8
-0.0008	0.0015	-0.0053	0.0007	-74.7
-0.0015	0.0045	-0.0038	0.0015	-74.8
-0.0008	0.0052	-0.0046	0.0015	-74.7
0.0015	0.0045	-0.0038	0	-74.9
0.0015	0.0045	-0.003	0	-74.7
0.0022	0.003	-0.0023	-0.0008	-74.8
0.003	0.003	-0.0015	-0.0015	-74.7
0.003	0.0022	0	-0.0008	-74.7
0.0045	0	0.0015	0.0015	-74.7
0.003	-0.0023	0.003	0.0022	-74.7
0	-0.0046	0.0045	0.0015	-74.7
0.0007	-0.0068	0.0007	0.0007	-74.7
0	-0.0091	-0.0008	0	-74.7
-0.0015	-0.0068	-0.0015	-0.0015	-74.8
-0.0015	-0.0046	-0.0023	0.0015	-74.7
0	-0.003	-0.003	0.0015	-74.8
-0.0015	-0.0015	-0.0023	0.0007	-74.7
0.0007	0	-0.0008	0.0015	-74.7
0.0022	0.0007	-0.0015	0.0007	-74.7
0.0007	0.003	-0.0015	0.0022	-74.8
0.0022	0.0022	-0.0023	0.0022	-74.8
0.0022	0.0022	-0.0015	0.0015	-74.7
0.0015	0.003	-0.0015	0.003	-74.9
0.0015	0.0037	-0.0015	0.0022	-74.7
0.0015	0.003	0.0007	0.0015	-74.7
0.0022	0.0015	0	-0.0015	-74.7
0.0022	-0.0008	0.0022	-0.006	-74.7
0.003	-0.0008	0.0015	-0.0068	-74.8
0.003	0.0007	-0.0008	-0.0015	-74.7
0.003	0.0022	0.0015	0.0015	-74.8
0.003	0.0015	0.0007	0	-74.6
0	0.0015	0	0	-74.9
-0.0008	0.0022	0	0.003	-74.9
-0.0015	0.003	-0.0008	0.0052	-74.7
-0.0015	0.0067	-0.0015	0.0045	-74.8
0.0015	0.0082	-0.0023	0.0067	-74.7
0.003	0.0067	-0.0015	0.006	-74.9
0.0007	0.0045	0	0.0052	-74.7
-0.0015	0.0045	-0.0008	0.006	-74.8
-0.003	0.0037	-0.0008	0.0052	-74.7
-0.0015	0.0007	0.0007	0.0015	-74.9
-0.0008	-0.0023	0.0015	-0.0015	-74.7
-0.0015	-0.0038	0.003	-0.0023	-74.9
-0.0008	-0.0053	0.0045	-0.0046	-74.7
0.0007	-0.0091	0.0052	-0.0068	-74.8
0.0007	-0.0091	0.006	-0.0068	-74.7
0.0007	-0.0053	0.0045	-0.003	-74.8
-0.0015	-0.0023	0.003	-0.0008	-74.8
-0.003	-0.0008	0.0022	-0.0015	-74.7
-0.0015	0.0015	0.0022	-0.0015	-74.8
-0.0023	0.0007	0.0045	-0.0023	-74.7
-0.0023	-0.0046	0.0045	-0.003	-74.7
-0.0015	-0.0053	0.0045	-0.0015	-74.8
-0.0023	-0.003	0.0045	-0.0008	-74.7
0	0	0.0045	0	-74.8
-0.0046	0.0007	0.0037	0.0015	-74.7
-0.0038	0.0015	0.003	0.0007	-74.7
-0.0015	0.0015	0.0037	0	-74.7
-0.0015	0.0007	0.0045	0.0007	-74.8
-0.0008	0	0.0052	0	-74.7
0.0007	0.0015	0.0045	-0.0008	-75
0.0015	0.0015	0.0037	-0.0008	-74.7
0.0007	0	0.003	0	-74.8
0.0037	-0.0008	0.003	-0.0015	-74.7
0.0015	-0.003	0.003	-0.0008	-74.7
-0.0015	-0.0008	0.003	0.0007	-74.8
-0.0008	-0.0015	0.0022	0.0007	-74.8
-0.0015	-0.0008	0.0007	0.0015	-74.8
0.003	-0.0008	0.003	0.0007	-74.7
0.0022	0.0015	0.003	0.0015	-75
0.0007	0.0015	0.0007	0.0015	-74.7
0.0022	0.0015	0.0015	0.0015	-74.9
0	0.003	0.0007	0.0007	-74.7
0.0007	0.003	0.0007	0	-74.8
0.0007	0.003	0.0015	0.0007	-74.7
-0.0008	0.0022	0.0007	0	-74.8
-0.0008	0.0022	0.0015	0.0007	-74.9
0.0007	0.0015	0	0.0007	-74.7
0	0.0015	0.0007	-0.0008	-74.9
0.0015	0.0015	0.0015	0.0007	-74.7
0.0007	0.0015	0.0007	0	-74.8
0.0007	0	-0.0008	0	-74.8
-0.0008	0.0015	-0.0008	-0.0015	-74.8
-0.0008	0.0022	-0.0015	-0.0015	-74.9
0.0007	0.0015	-0.0008	0	-74.7
0.0007	0.003	-0.0015	-0.0008	-74.9
-0.0015	0.0022	0	0	-74.7
-0.0008	0.0015	0	0	-74.9
-0.0008	-0.0008	0.0007	-0.0008	-74.7
-0.0008	-0.003	0.0015	-0.0008	-74.8
-0.0015	-0.0038	0	-0.0023	-74.8
0	-0.0053	0.0007	-0.003	-74.9
0.0037	-0.0053	-0.0015	-0.003	-74.8
0.0022	-0.0046	-0.0008	-0.0038	-74.9
0.0015	-0.0053	0	-0.003	-74.9
0.003	-0.0023	-0.0008	-0.0008	-74.7
0.0015	0.0007	0	0	-74.9
0.0007	0.0015	-0.0008	0.003	-74.8
0	0.0015	-0.0015	0.0067	-74.8
-0.0015	0.0015	-0.003	0.0097	-74.9
-0.0008	0.0022	-0.0015	0.0097	-74.9
0.0007	0.003	0.0007	0.0105	-74.8
-0.0008	0.0045	-0.0015	0.0105	-74.9
-0.0023	0.003	-0.0008	0.009	-74.8
-0.0038	0.006	-0.0015	0.0082	-74.8
-0.003	0.0067	-0.0015	0.012	-74.9
-0.003	0.0082	-0.0015	0.0105	-74.7
-0.0038	0.0097	-0.003	0.0067	-75
-0.003	0.0105	-0.0023	0.0045	-74.7
-0.0015	0.0082	-0.0046	0.0015	-74.9
0	0.0052	-0.0046	-0.0008	-74.6
0.0007	0.003	-0.0046	-0.0023	-74.9
0.0007	-0.0008	-0.0053	-0.0038	-74.7
0.003	-0.0046	-0.0046	-0.006	-74.8
0.0015	-0.0075	-0.003	-0.0083	-74.8
0.0015	-0.0091	-0.0015	-0.0098	-74.9
0.003	-0.0113	-0.0008	-0.0105	-74.9
0.003	-0.012	0.0007	-0.0091	-74.7
0.0052	-0.0098	0	-0.0091	-74.8
0.0022	-0.0068	0	-0.006	-74.8
0.0007	-0.0046	0.0015	-0.0068	-74.9
0.0007	-0.0053	0.0015	-0.0068	-74.8
0	-0.0053	0.003	-0.0053	-74.7
0.0007	-0.0038	0.0007	-0.0046	-74.9
-0.003	-0.0023	0.0007	-0.0023	-74.7
-0.003	0.0015	0.0007	0	-75
-0.0015	0.0015	0	0.0015	-74.7
-0.003	0.0015	0.0015	0.0007	-74.9
-0.003	0.003	0.0007	0.0015	-74.9
-0.0038	0.0045	0	0.0015	-74.8
-0.003	0.0045	0	0.003	-74.8
-0.0046	0.003	-0.0008	0.003	-74.9
-0.0038	0.003	-0.0008	0.003	-74.8
-0.0053	0.003	-0.0008	0.003	-74.7
-0.0053	0.003	-0.0008	0.0015	-74.9
-0.0046	0.0022	-0.0015	0.0015	-74.7
-0.0053	0.0015	-0.0008	0.0015	-74.9
-0.003	0.0015	0	0.0007	-74.7
-0.0023	0.003	0	0.0015	-74.9
-0.0046	0.003	0.0007	-0.0008	-74.7
-0.003	0.0015	0.0022	-0.0008	-74.9
-0.0008	0.003	0.003	-0.0008	-74.8
-0.0015	0.0037	0.0015	-0.0008	-74.9
-0.003	0.0015	0.0022	0.0015	-74.7
-0.003	0.0007	0.0015	0.0015	-74.8
-0.0015	0.0022	0.0022	0.0015	-74.8
-0.0015	0.0022	0.003	0.0022	-74.7
-0.003	0.003	0.0015	0.0007	-74.7
-0.0023	0.003	0.003	0.0007	-74.7
-0.0023	0.003	0.0045	0.0007	-74.9
-0.0008	0.003	0.006	0.0007	-74.8
-0.0008	0.0007	0.006	0.0007	-74.8
0.0007	0	0.0052	-0.0008	-74.9
0.0015	0	0.0052	-0.0008	-74.9
0.0007	0.0007	0.0045	-0.0008	-75
-0.0008	-0.0015	0.0045	0	-74.7
0	-0.0015	0.0045	0	-74.9
0.0015	-0.0008	0.003	-0.0015	-74.7
0.0015	-0.0008	0.0007	0.0007	-74.8
-0.0008	0	0.0022	0.0015	-74.9
-0.0008	0	0.0022	0.0007	-74.9
-0.0008	-0.0008	0.0022	0.0007	-74.8
0.0007	0	0.0015	-0.0008	-74.8
0.0015	-0.0008	0	-0.0015	-74.8
0	-0.0015	-0.0015	0	-74.9
0.0007	-0.0015	-0.0015	0.0007	-74.9
0	-0.0015	-0.0015	-0.0008	-74.8
0.0022	-0.0008	-0.0015	-0.0008	-74.9
0.0037	-0.0008	-0.003	-0.0008	-74.8
0.003	0	-0.003	-0.0015	-74.9
0.0007	0.0015	-0.003	0.0007	-74.9
0.0015	0.0007	-0.003	-0.0008	-74.8
0.003	0.0007	-0.0038	-0.0008	-74.9
0.0015	0.0007	-0.006	0.0007	-74.7
0.0022	0.0007	-0.0046	-0.0015	-74.9
0.0022	-0.0008	-0.003	-0.003	-74.8
0.003	-0.0008	-0.0046	-0.0046	-74.9
0.0022	-0.0008	-0.0038	-0.0038	-74.8
0.0015	0.0007	-0.0023	-0.0015	-74.8
0.003	0.0007	-0.0038	-0.0008	-75
0.0007	0.0007	-0.0038	0.0007	-74.8
-0.0008	0.0007	-0.003	0.0022	-75
0.0007	0	-0.0046	0.0037	-74.8
-0.0008	0.0007	-0.0038	0.0022	-75.1
0.0007	-0.0008	-0.0038	0.0045	-74.7
0.0007	0	-0.0053	0.0067	-75.1
-0.0015	0.0037	-0.0068	0.009	-75
-0.003	0.003	-0.006	0.009	-75.1
-0.0068	0.003	-0.0068	0.0082	-74.9
-0.0098	0.003	-0.0075	0.0082	-75
-0.0105	0.003	-0.0075	0.0052	-74.9
-0.006	0.0022	-0.0053	0.0015	-74.9
-0.0015	0.0015	-0.0053	-0.0008	-74.8
0.0045	0	-0.0053	-0.0015	-75
0.0082	-0.003	-0.003	-0.003	-74.9
0.0082	-0.0015	-0.0008	-0.0046	-75
0.009	-0.0015	-0.0015	-0.003	-75.1
0.009	-0.0008	-0.0008	-0.0023	-74.9
0.009	-0.0008	-0.0015	-0.0015	-74.9
0.009	-0.0008	-0.0008	-0.0015	-74.8
0.0082	0	0	-0.0015	-74.9
0.0082	-0.0008	-0.0008	-0.003	-74.9
0.0082	-0.0008	-0.0015	-0.0046	-74.9
0.0067	-0.0015	-0.0008	-0.0038	-75
0.006	-0.0008	-0.0015	-0.0046	-74.8
0.0067	-0.0015	-0.0015	-0.0046	-75
0.006	-0.0015	0.0007	-0.0053	-74.7
0.0052	0.0007	0.0007	-0.0046	-75.1
0.0045	-0.0008	0.0015	-0.0015	-74.9
0.0037	0.0007	0.0015	0.0007	-74.9
0.0045	0.0022	0.0007	0.0007	-74.8
0.0052	0.003	0.0015	-0.003	-74.9
0.0037	0.0015	-0.0008	-0.003	-75
0.0037	0.0015	0.0007	-0.0015	-74.8
0.0052	0.0007	0.0007	0.003	-74.9
0.0045	0.0015	0	0.0067	-74.9
0.0015	0.0037	0	0.0075	-75.1
-0.003	0.006	-0.0015	0.0067	-74.9
-0.0023	0.0052	-0.003	0.0082	-74.9
-0.0008	0.003	-0.003	0.0067	-74.9
-0.0015	0	-0.0023	0.0037	-75
-0.0015	-0.0008	-0.0015	0.003	-75
-0.0015	-0.0023	0	0.0007	-74.8
-0.0015	-0.0015	0	-0.0008	-74.9
-0.0015	-0.0023	0.0007	-0.0015	-75
-0.0008	-0.0046	-0.0008	-0.0023	-74.9
0.0015	-0.0038	-0.0008	-0.0015	-74.9
-0.003	-0.0023	-0.0015	0	-74.9
-0.0038	-0.0015	-0.0023	-0.0008	-75
-0.0015	-0.0008	-0.0015	-0.0015	-74.9
-0.0038	0.0007	-0.003	-0.0008	-74.9
-0.0046	0.0007	-0.003	0.0007	-74.8
-0.003	0.0007	-0.0038	0.003	-74.9
-0.003	0.003	-0.003	0.0045	-74.8
-0.0046	0.0037	-0.0046	0.0052	-75
-0.006	0.0037	-0.0015	0.006	-74.8
-0.0046	0.0037	-0.0008	0.0045	-74.9
-0.0075	0.0015	-0.003	0.0015	-74.8
-0.0075	-0.0008	-0.0023	0.0007	-74.9
-0.0075	-0.0015	-0.0015	-0.0008	-74.8
-0.0053	0.0007	-0.0023	-0.0008	-74.9
0	0.003	-0.0023	-0.0008	-74.9
-0.0008	0.0022	-0.0008	-0.0023	-74.9
-0.0008	0.0015	0	-0.0023	-75.1
-0.0015	0.0015	0.0015	-0.003	-74.9
-0.003	0	0.0007	-0.0023	-74.9
0	0	0.0015	-0.0015	-74.9
0	0.0007	0.003	-0.0008	-74.9
-0.0023	0.0022	0.0045	-0.003	-74.8
-0.0015	0.0015	0.0067	-0.0023	-74.9
-0.0015	0.0015	0.0082	-0.0008	-75
-0.0023	0.0007	0.0075	-0.0015	-74.8
-0.0023	-0.0015	0.0067	-0.0015	-74.9
-0.0023	-0.0023	0.009	-0.0015	-74.8
-0.0015	-0.0046	0.0082	-0.0015	-75
-0.0015	-0.0038	0.0082	0	-74.8
0	-0.003	0.0067	-0.0008	-74.9
0.0007	-0.003	0.006	-0.0008	-74.9
-0.0015	-0.0015	0.0075	0	-75
-0.0015	0.0015	0.0052	0.0007	-74.9
-0.0008	0.0015	0.006	0.0007	-74.7
-0.003	0.0007	0.0082	0.0015	-75
-0.0023	0.0007	0.0075	0.0007	-74.7
0	-0.0023	0.0082	0.0007	-75
-0.0015	-0.003	0.0067	0.0007	-74.9
-0.0038	-0.0015	0.0067	0.0007	-75
-0.0023	-0.0008	0.0067	0	-74.8
-0.003	-0.0015	0.0067	0	-75.1
-0.0023	-0.0008	0.0052	0.0015	-74.8
-0.003	0.0015	0.0052	0.0007	-74.9
-0.0008	0.0022	0.0067	0.003	-74.9
-0.0015	0.0015	0.0082	0.0015	-74.7
-0.0053	0.0007	0.0067	0.0007	-75
-0.0046	0.0007	0.0067	-0.0008	-74.9
-0.0038	0	0.0052	-0.0008	-74.8
-0.0015	0.0007	0.0045	0	-74.9
-0.0008	0.0015	0.0045	0.0015	-74.9
-0.0015	0.0015	0.0045	0.0037	-74.9
0.0015	0.0007	0.0045	0.0037	-74.9
0.0022	0.0015	0.0037	0.0022	-74.8
0.003	0.0015	0.003	0.0022	-74.7
0.0022	0.0015	0.003	0.0015	-75.1
0.003	0.0022	0.0022	0.003	-74.8
0.0067	0.0015	0	0.003	-75.1
0.0105	0.003	-0.0015	0.0015	-74.7
0.0097	0.0037	-0.0008	0.0022	-75
0.0052	0.003	-0.0008	0.0015	-74.8
0.0045	0.0015	-0.0008	-0.0008	-74.9
0.0067	0.0007	-0.0008	-0.0008	-74.7
0.009	0.0007	-0.0015	0.0007	-74.9
0.0105	0	-0.0023	0.0007	-74.9
0.0045	0.0007	-0.003	0	-75
0.0007	0.0007	-0.0015	0	-74.9
-0.0023	0.0015	-0.003	0.0015	-74.9
-0.003	0.003	-0.003	0.0015	-75
-0.0023	0.003	-0.003	0.0007	-74.9
-0.0053	0.0022	-0.0053	0.0007	-75
-0.0053	0.0015	-0.0038	-0.0008	-74.9
-0.0053	0.0015	-0.003	-0.0008	-74.9
-0.0046	0.0015	-0.003	-0.0008	-74.9
-0.003	0.0015	-0.0046	0	-74.9
-0.0008	0.0015	-0.0046	-0.0008	-74.9
0	0.0007	-0.0038	0	-74.9
0.0007	-0.0008	-0.0038	0.0015	-74.9
0.003	-0.0008	-0.0038	0.0007	-74.9
0.0037	0.0007	-0.0038	0.0007	-74.9
0.0037	0.0007	-0.0046	-0.0008	-74.8
0.0037	0	-0.0046	0.0007	-74.9
0.0037	0	-0.0008	-0.0008	-75.1
0.0022	-0.0008	-0.0008	-0.0015	-75
0.003	-0.0015	-0.0015	-0.0015	-75
0.0045	-0.0015	-0.0008	-0.0023	-74.8
0.0037	-0.0023	-0.0015	-0.003	-75
0.0015	-0.003	-0.0015	-0.0023	-74.8
0.0022	-0.0023	-0.0015	-0.0023	-75
0.0045	-0.0008	-0.0023	-0.0015	-74.9
0.0015	-0.0008	-0.0015	-0.0015	-75.1
0.0022	0	-0.0015	-0.0023	-75
0.003	0.0007	-0.0015	-0.0015	-75
0	0.0015	-0.0015	-0.0015	-74.9
0	0.0015	-0.0023	-0.0023	-74.9
-0.0008	-0.0008	-0.0015	-0.003	-75
-0.0008	-0.0023	-0.0015	-0.0038	-74.9
-0.0015	-0.0023	-0.0023	-0.0015	-74.9
-0.0023	-0.0015	-0.003	0	-75
-0.003	-0.0023	-0.0015	0	-74.9
-0.0015	-0.003	-0.0008	-0.0008	-75
-0.0015	-0.0023	-0.0015	-0.0008	-75
0	-0.0038	-0.0015	0.0007	-75
0.0015	-0.0015	-0.0008	0.0015	-75
0	0.0007	-0.0008	0.0045	-75.1
-0.0015	0.0022	-0.0015	0.0067	-74.9
-0.0015	0.0037	-0.0015	0.0067	-74.9
-0.003	0.0022	-0.0015	0.0082	-74.9
-0.0046	0.0037	-0.0015	0.0105	-74.9
-0.0038	0.0037	-0.0015	0.0082	-74.9
-0.0015	0.003	-0.0023	0.0067	-75
-0.0023	0.0022	-0.003	0.0045	-74.9
-0.003	0.0022	-0.0038	0.003	-74.8
-0.003	0.0037	-0.0038	0.0045	-74.9
-0.0038	0.0022	-0.003	0.0037	-75
-0.003	0.003	-0.0015	0.003	-75
-0.0038	0.0022	-0.003	0.0015	-74.9
-0.0046	0.0015	-0.003	0.0007	-74.9
-0.003	0.0015	-0.003	0.0007	-75
-0.0046	0.0022	-0.0046	-0.0008	-75
-0.003	0.003	-0.0023	-0.003	-75
-0.0015	0.0015	-0.0008	-0.003	-75
-0.0015	0.0007	-0.0008	-0.0046	-75
-0.0008	-0.0008	-0.0008	-0.0046	-74.9
-0.0008	0	-0.0015	-0.0023	-75
-0.0008	0.0007	-0.0015	-0.003	-74.9
-0.0015	-0.0008	-0.0015	-0.003	-75
-0.003	-0.0015	-0.0015	-0.0053	-75.1
-0.0015	-0.0046	-0.0015	-0.0068	-74.9
0.0015	-0.0046	-0.0023	-0.0038	-75
0.003	-0.0053	-0.0008	-0.0046	-74.9
0.0022	-0.0046	-0.0008	-0.003	-75.1
0.0022	-0.0046	-0.0015	-0.0023	-74.9
0.0015	-0.0046	-0.0015	-0.0008	-75.1
0.0015	-0.0038	-0.0015	0.0007	-74.9
0.0015	-0.0046	0.0007	0.0007	-75.1
0.0007	-0.0023	0.0007	0.0015	-74.7
0	-0.0008	-0.0008	0.0037	-75.2
0.0007	0	0.0007	0.0067	-74.7
-0.0008	0.0007	-0.0008	0.0075	-74.9
-0.0038	0.0007	-0.0015	0.0052	-74.9
-0.0008	0.003	0.0007	0.0045	-75.1
0	0.003	0.0007	0.0037	-74.8
0.0022	0.0045	0	0.0037	-74.9
0.003	0.0052	0.0007	0.0007	-74.8
0.0007	0.0037	0.0015	0	-74.9
0.0015	0.003	0	0.0007	-75
0.0015	0.003	0.0015	0.0007	-74.9
0.003	0.0037	0.0015	-0.0015	-74.9
0.0022	0.0037	0.0015	-0.0008	-75.1
0.0007	0.0007	0.0015	-0.0008	-75
0.0015	0	0.0022	-0.0008	-75.1
0.0007	-0.0008	0.0015	-0.0015	-74.8
0	-0.0015	0.0015	-0.0023	-74.9
0.0015	-0.0023	0.003	-0.003	-74.8
0.0022	-0.0038	0.0052	-0.0046	-75
0.0007	-0.0053	0.0052	-0.0046	-74.8
-0.0015	-0.0053	0.0052	-0.0038	-75
0	-0.003	0.0052	-0.003	-74.9
0.0007	-0.0023	0.0052	-0.0015	-74.9
-0.0008	-0.0023	0.0067	-0.0015	-74.9
0.0015	0	0.0067	-0.0008	-75
0.0022	0.0007	0.0052	-0.0008	-75
0.0015	0.0015	0.0052	-0.0008	-74.8
0.003	0.0015	0.0052	0.0022	-74.9
0.003	0.0045	0.0037	0.006	-74.9
0.0015	0.0052	0.0022	0.0067	-74.9
0	0.0037	0.0015	0.0052	-75
0	0.0052	0.0015	0.0052	-74.7
0	0.0052	0.003	0.0037	-74.9
-0.0015	0.0037	0.0037	0.0015	-74.8
-0.003	0.0015	0.0052	0.0015	-75
-0.0023	0.0015	0.0045	0.0007	-74.8
-0.0015	0.0015	0.003	-0.0008	-74.9
-0.0008	0.0007	0.0052	-0.0015	-74.9
-0.0023	0.0015	0.0052	-0.0015	-74.9
-0.0015	0	0.003	-0.003	-74.8
-0.003	-0.0008	0.003	-0.003	-74.8
-0.0023	-0.0008	0.0037	-0.003	-74.9
-0.0008	-0.0015	0.0015	-0.0008	-74.9
-0.0008	-0.0015	0.0007	-0.0008	-75
-0.0015	0.0007	0.0015	-0.0008	-74.7
-0.0023	-0.0008	0.0022	0.0007	-75.1
-0.0015	0.0007	0.0015	0.0015	-74.9
-0.0023	0.0007	0.0007	0	-75
-0.003	0	0.0007	-0.0008	-74.9
-0.0008	0.0007	0.0007	-0.0008	-74.9
0.0007	0	0.0022	-0.0015	-75
0.0007	-0.0008	0.003	-0.003	-74.9
-0.0008	-0.0015	0.0022	-0.0023	-75
-0.0008	-0.003	0	-0.003	-74.9
0	-0.003	-0.0015	-0.0015	-75
0.0022	-0.0023	-0.003	-0.0008	-74.9
-0.0008	-0.0008	-0.0046	-0.0008	-75
-0.0015	0.0007	-0.0038	0.0037	-75
-0.0008	0.0022	-0.0023	0.0045	-75
-0.0008	0.0045	-0.003	0.0045	-74.9
0.0015	0.0052	-0.0046	0.0067	-74.8
0.0015	0.0045	-0.0046	0.006	-74.9
-0.0008	0.0045	-0.0046	0.0052	-74.9
-0.0008	0.0037	-0.0038	0.0052	-74.9
-0.0008	0.0022	-0.0046	0.003	-74.7
0.0007	-0.0008	-0.0023	0.003	-75.2
0	-0.0015	-0.003	0.0015	-74.9
-0.0038	-0.0008	-0.0023	0.0007	-75.1
-0.0038	-0.0015	-0.003	-0.0008	-74.9
-0.0015	-0.0015	-0.003	-0.0015	-75.1
-0.003	-0.003	-0.0008	0.0007	-74.9
-0.003	-0.0015	-0.003	0	-74.9
-0.003	-0.003	-0.0038	-0.0008	-74.9
-0.003	-0.0038	-0.0015	-0.0008	-74.8
-0.003	-0.0046	-0.0008	-0.0008	-75
-0.003	-0.0038	-0.0008	0	-74.8
-0.0038	-0.0008	-0.0008	-0.0008	-75
-0.003	0.0015	0.0007	-0.0023	-74.9
-0.003	0.0037	0.0007	-0.0008	-75.1
-0.0038	0.003	0	0	-74.9
-0.003	0.0015	-0.0008	-0.0008	-75
0.0007	0.0015	0.0007	-0.0015	-75
0.0022	0.0015	0.0015	-0.0023	-74.9
0.0015	0.0022	-0.0015	-0.0023	-74.9
0.0015	0.0037	-0.0008	-0.0008	-74.9
0.0022	0.003	0	0.0022	-74.9
0.0007	0.003	0	0.0037	-74.8
0.0015	0.0037	0.0007	0.003	-74.9
0.0022	0.0015	0.0015	0.003	-74.9
0.0015	0.0007	0.0015	0.003	-74.9
0.0015	0.0015	0.0015	0.0015	-75
0.0007	-0.0008	0.0015	-0.0008	-74.9
0.0007	-0.0015	0.0007	-0.0008	-74.9
0.0007	-0.0023	0.0007	0	-74.9
0.0007	-0.0015	0.0007	0.0007	-74.9
-0.0015	-0.0008	0	0	-75
-0.003	0.0007	0	0.0007	-75.1
-0.0015	0.0015	0	0.0007	-74.8
-0.0015	0.0015	0.0015	-0.0008	-75
0	0.0045	-0.0008	0.0015	-74.9
0.0007	0.0045	-0.0015	0.003	-75
0.0015	0.0052	-0.003	0.0022	-74.9
0.0007	0.0045	-0.003	0.003	-75
-0.0008	0.003	-0.0015	0.003	-74.9
-0.0015	0.0022	-0.0015	0.0015	-74.9
-0.0023	0	0	0.0007	-74.8
-0.0015	-0.0008	0.0007	0	-74.8
-0.003	-0.0015	0	-0.0015	-74.9
-0.006	-0.0008	0.0007	-0.0015	-75
-0.0083	0.0007	0.0007	-0.0023	-74.9
-0.0083	-0.0008	-0.0008	-0.0015	-75.1
-0.003	-0.0015	-0.0008	-0.0015	-74.8
0.0007	-0.0023	-0.0008	-0.0008	-75
0.003	-0.003	0.0007	-0.0008	-74.8
0.0067	-0.0046	-0.0008	-0.0008	-75.1
0.0082	-0.0046	-0.003	-0.0008	-75
0.009	-0.0023	-0.0023	0.0007	-74.9
0.009	0.0007	-0.0015	0.0007	-74.8
0.0067	0.0015	-0.0015	0.0015	-74.9
0.0067	0.0022	-0.0008	0	-75
0.0075	0.003	-0.0015	0.0007	-74.9
0.009	0.0022	-0.003	0.0007	-74.9
0.0082	0.0022	-0.003	-0.0008	-75
0.0075	0.0022	-0.0023	-0.0008	-75.1
0.0067	-0.0008	-0.003	-0.0008	-74.9
0.0052	-0.0015	-0.003	-0.0015	-75
0.0067	-0.0046	-0.0023	-0.0015	-74.9
0.0045	-0.0053	-0.003	0.0007	-74.9
0.003	-0.0046	-0.0023	0.0007	-74.8
0	-0.0015	-0.0015	0.0007	-74.9
-0.0015	-0.0008	-0.0015	0.0022	-75
0.0007	0.0007	-0.0015	0.0045	-75
0.0007	0.003	-0.0023	0.003	-74.9
0	0.003	-0.0023	0.0007	-74.9
0.0007	0.003	-0.0023	-0.0008	-74.9
0.0022	0.0007	-0.0015	0.0007	-74.8
0.0015	0.0007	-0.0015	0.0007	-74.7
0.0015	0.0007	0.0015	-0.0038	-74.9
0.003	-0.0008	0.0015	-0.0046	-74.8
0	0	0.0015	-0.0038	-75
0.0007	0.0007	0.003	-0.0038	-74.8
0.0015	-0.0015	0.003	-0.0046	-75.1
0.0007	-0.0038	0.0045	-0.0046	-74.9
0.0007	-0.0023	0.006	-0.003	-75.1
-0.0008	-0.0008	0.006	-0.003	-75.1
0.0007	0.0015	0.0075	-0.0023	-75.1
-0.0015	0.0007	0.006	0.0015	-74.8
-0.0053	0.0022	0.0037	0.0052	-75
-0.0046	0.0052	0.0015	0.0075	-74.9
-0.0046	0.0045	0.0007	0.0097	-74.8
-0.0046	0.003	0.0007	0.0112	-75
-0.0038	0.0022	0	0.009	-74.9
-0.0038	0.0015	0.0015	0.0067	-74.9
-0.0023	-0.0008	0.003	0.0045	-75
0	-0.0008	0.0045	0.0052	-75.1
-0.0008	0.0007	0.0022	0.0082	-74.9
-0.0038	0.0045	0.0007	0.0052	-75.1
-0.0046	0.0052	0.003	0.0052	-74.9
-0.0038	0.0037	0.0022	0.0037	-74.9
-0.0046	0.0015	0.0015	0.0015	-75
-0.003	0.0007	0.0022	0.0015	-75
-0.003	0.0007	0.0015	-0.0008	-75
-0.003	-0.0008	0.0015	-0.0008	-74.9
-0.0038	0.0007	0.0015	-0.0038	-74.9
-0.003	0	0.0015	-0.0046	-74.8
-0.003	0.0007	0.0015	-0.003	-74.9
-0.003	-0.0008	0.0007	-0.0038	-74.9
-0.0023	0	0.0015	-0.0015	-75
-0.0015	-0.0008	0.0022	-0.0038	-75
-0.0008	-0.0008	0.0022	-0.0053	-75.1
-0.0008	0	0.0015	-0.0053	-74.9
-0.003	-0.0015	0.0007	-0.006	-74.9
-0.0038	-0.0015	0.0015	-0.0053	-75
-0.0015	-0.0008	0.0015	-0.0053	-75
0	0.0007	0.003	-0.0038	-75
-0.0015	0.0015	0.0037	-0.0046	-74.9
-0.0015	0.0007	0.003	-0.003	-74.9
0.0015	0	0.0045	-0.003	-75
0.0007	-0.0015	0.0045	-0.0046	-74.8
0.0022	-0.0008	0.0045	-0.0023	-75
0.0007	-0.0015	0.0015	-0.0015	-74.8
0	-0.0008	0.0007	0	-75
0.0007	0.0007	-0.0008	0.0015	-74.9
0.0015	-0.0008	-0.0008	0.0022	-74.9
0.0015	-0.0008	0.0007	0.0022	-75
0	-0.0015	-0.0008	0.0015	-74.9
0.0015	-0.0023	-0.0008	0.0022	-74.9
-0.0008	-0.0015	-0.0023	0.0015	-74.9
0	-0.0008	-0.0015	0.0015	-75.1
0	0.0007	-0.0015	0.0022	-74.9
-0.0008	0	-0.003	0.0015	-75
-0.0023	0	-0.0023	0.0015	-74.9
-0.003	0.0007	-0.0008	-0.0008	-75.1
-0.0008	0.0015	-0.003	0	-74.9
-0.0015	0.0022	-0.003	0.0015	-74.9
-0.0015	0.003	-0.0038	0.0015	-75
0.0007	0.0037	-0.0046	0.0007	-74.9
0.0022	0.003	-0.0046	0.0007	-75
0.0015	0.0007	-0.0038	-0.0008	-74.9
0.0022	0.003	-0.003	0	-74.9
0.0045	0.003	-0.003	0.0007	-74.9
0.0022	0.0007	-0.003	0.0007	-74.8
0.0015	-0.0008	-0.003	0.0007	-74.9
0.0022	-0.003	-0.0023	-0.0008	-74.9
0.003	-0.0038	-0.003	0	-75.1
0.003	-0.003	-0.0023	-0.0015	-74.9
0.0022	-0.003	-0.0008	-0.0015	-75
0.0022	-0.0023	-0.0008	0	-74.8
0.0045	-0.0008	-0.0023	0.0007	-75.1
0.0022	0	-0.0015	0.0007	-74.9
-0.0008	0.0007	-0.0008	0.0007	-75.1
-0.0008	-0.0008	-0.003	-0.0008	-74.8
-0.0015	0.0007	-0.0008	-0.0008	-75.1
-0.0015	0.0015	-0.0015	0.0007	-74.9
-0.0015	0.0022	-0.0023	0.0015	-74.9
-0.0015	0.0045	-0.0015	0.0015	-75
-0.0023	0.0052	-0.003	0.003	-74.9
0	0.0045	-0.0023	0.0045	-74.9
0.0007	0.0045	-0.003	0.0022	-74.9
0	0.0045	-0.003	0.0007	-75.1
-0.0023	0.0022	-0.003	-0.0008	-74.9
0	0.0022	-0.0023	0	-75
0.0007	0.0015	-0.003	0.0007	-75
-0.0008	-0.003	-0.0015	0	-75
-0.0008	-0.0068	-0.0008	-0.0015	-75.1
-0.0008	-0.0053	0.0007	0	-74.9
-0.0015	-0.0038	0.0015	0.0015	-75.2
0.0007	-0.0038	0.0007	0.0007	-74.9
-0.0015	-0.0008	0.0022	0.0007	-75
-0.0015	0.0007	0.0022	0.0007	-74.8
-0.0008	-0.0015	0.0037	0.0007	-75.1
-0.0023	-0.0008	0.0045	0.0015	-74.9
-0.003	-0.0015	0.0037	0.0052	-74.9
-0.003	-0.0008	0.0045	0.0045	-75
-0.0015	0	0.003	0.0037	-74.9
-0.0023	0.0015	0.0015	0.0045	-74.9
-0.0008	0.0022	-0.0008	0.0052	-74.8
-0.0008	0.003	0	0.0045	-74.9
-0.0008	0.003	0.0007	0.0045	-74.8
0.0015	0.0015	-0.0008	0.006	-74.9
-0.0008	0.003	0.0007	0.003	-75
0.0007	0.003	0.0015	0.0015	-74.9
0.0015	0.003	0.0022	0	-75.1
0.0007	0.003	0.0015	0	-74.9
0.0015	0.003	0.0007	0.0007	-75.2
0	0.003	0.0022	0.0007	-74.9
0.0007	0.0015	0.003	0.0007	-75
0.0015	0.003	0.0007	-0.0008	-75
0	0.0015	0	-0.0008	-74.9
0.0015	0.0015	0.0007	-0.003	-74.8
0.0007	0	0.0015	-0.003	-74.9
-0.0023	0	0.0007	-0.0023	-75.1
-0.0015	0.0007	0.0015	-0.003	-74.8
-0.0015	0.0007	0.003	-0.003	-75.1
0.0015	-0.0008	0.0015	-0.006	-74.9
0.0022	-0.0053	0.003	-0.0046	-75
0.0015	-0.0053	0.003	-0.0046	-74.9
0.0007	-0.003	0.003	-0.0046	-74.9
-0.0015	-0.0015	0.0015	-0.003	-75
-0.003	-0.0008	-0.0008	-0.003	-74.9
-0.003	0.0007	-0.0008	-0.0023	-74.9
-0.0008	0.0015	-0.0008	-0.0023	-74.9
0.0022	0.0007	-0.0015	-0.0008	-74.9
0.0022	0.0007	0	-0.0008	-74.9
0.0022	0.0007	-0.0008	-0.0015	-74.9
0.0015	0.0015	-0.003	-0.0008	-75
0.0015	0.0015	-0.0023	-0.0008	-74.9
0.0022	0.003	-0.0015	-0.0008	-75
0.0022	0.003	-0.0015	0	-74.9
0.0015	0.003	-0.003	0.0007	-74.9
0.0022	0.0015	-0.003	0	-74.8
0.0037	-0.0008	-0.003	-0.0015	-75.1
0.003	-0.0015	-0.0023	-0.0015	-74.9
0.003	-0.0046	-0.003	-0.0015	-75
0.0022	-0.0053	-0.0015	-0.0008	-74.9
0.003	-0.0053	-0.0008	-0.0015	-75.1
0.0007	-0.0053	0.0007	-0.003	-74.9
0.0015	-0.003	0.0015	-0.0015	-74.9
0.0007	-0.0015	0.0015	0	-74.9
-0.0023	-0.0008	0.0007	0.0007	-75
0	0.0015	-0.0015	0.0022	-74.8
-0.0015	0.003	-0.003	0.0052	-75
-0.0015	0.0045	-0.0046	0.0052	-75
-0.0015	0.003	-0.003	0.0052	-74.9
-0.0023	0.0037	-0.003	0.0045	-75
-0.0015	0.0052	-0.0038	0.0045	-74.9
-0.0023	0.0082	-0.0023	0.0067	-75
-0.003	0.0067	-0.0008	0.0045	-74.9
-0.0053	0.0067	-0.0015	0.0052	-74.9
-0.003	0.0082	-0.0046	0.0045	-75
0.0015	0.0082	-0.0053	0.0045	-74.9
0.0022	0.0075	-0.006	0.0045	-75.2
0.0015	0.0037	-0.0053	0.0007	-74.8
0.0007	-0.0038	-0.0023	-0.0053	-75.1
0.0007	-0.0105	-0.0008	-0.0053	-75
0.0015	-0.0098	0.0007	-0.0015	-75
0.003	-0.0098	0.0037	-0.0015	-75
0.0037	-0.0105	0.0067	-0.0023	-74.9
0.0052	-0.0105	0.0082	-0.0015	-75
0.0052	-0.0105	0.0097	-0.003	-74.9
0.0022	-0.0091	0.0127	-0.0023	-75
0.0007	-0.0075	0.0127	-0.0008	-74.9
-0.0008	-0.003	0.0112	0.0007	-74.8
-0.003	-0.0008	0.009	0.003	-75
-0.0015	0.003	0.0067	0.0045	-74.9
-0.0015	0.0052	0.006	0.006	-74.9
-0.0015	0.006	0.003	0.0067	-74.9
-0.0008	0.0075	0.003	0.0067	-75
-0.0023	0.0082	0.003	0.0067	-74.8
-0.003	0.0105	0.0015	0.0045	-75
-0.0015	0.0045	0.0007	0.003	-75.1
-0.003	-0.0023	0	-0.0008	-74.9
-0.0015	-0.0023	0	-0.0015	-75.1
-0.0015	-0.003	0.0007	-0.0015	-74.8
-0.0015	-0.003	0.0007	-0.003	-75
-0.0038	-0.0008	0.0015	-0.0023	-74.8
-0.0053	-0.0008	0.0037	-0.0046	-75.1
-0.0046	0.0007	0.0015	-0.0053	-74.9
-0.003	0.003	0.0022	-0.003	-75.1
-0.003	0.003	0.0022	-0.003	-74.9
-0.0053	0.003	0.0007	-0.0038	-75.1
-0.0038	0.003	0.0022	-0.0008	-74.8
-0.003	0.0045	0.0015	0.0015	-75.1
-0.0046	0.0045	0.0022	0.003	-74.9
-0.0046	0.003	0.0022	0.0015	-75
-0.0046	0.0022	0.0007	-0.0008	-75.1
-0.003	0.0015	0.0022	-0.0015	-74.9
-0.003	0.003	0.0015	-0.0015	-74.9
-0.0038	0.0037	0.0007	0.0007	-75
-0.0046	0.003	0.0007	0.0007	-74.9
-0.0053	0.003	-0.0008	0.0007	-75
-0.003	0.0015	-0.0015	0.0022	-74.8
-0.0015	0.0015	-0.0015	0.0007	-74.9
0.0007	0.0007	-0.0015	-0.0015	-74.9
0.0007	0.0015	-0.0015	-0.0015	-75.1
-0.0008	0.0007	-0.0008	-0.0015	-75
0	0.0015	0.0007	-0.0015	-75.2
0.0015	0.0007	0.0007	-0.0015	-74.9
0.0007	-0.0008	0.0015	0.0007	-75.1
0.0007	0.0007	0.0007	0	-74.8
0.0015	0	0.0007	-0.0015	-75
0.0037	-0.003	0.0015	-0.0023	-74.9
0.0045	-0.0053	-0.0008	-0.0023	-74.9
0.003	-0.0046	-0.0015	-0.0015	-75
0.003	-0.0023	-0.0023	-0.0015	-75.1
0.003	-0.0023	-0.0023	-0.0023	-75
0.003	-0.003	-0.0023	-0.0015	-75
0.0045	-0.0008	-0.0046	-0.0008	-75.1
0.003	-0.0008	-0.003	0.0007	-75.1
0.0015	0.003	-0.0046	0.0007	-75.1
0.0007	0.003	-0.0053	0.0015	-75
-0.0023	0.0022	-0.0053	0.0007	-75.1
-0.003	0.003	-0.0046	0	-75
-0.0008	0.0015	-0.003	-0.0008	-74.9
-0.0015	0.0007	-0.0023	-0.0015	-74.9
0	-0.0023	-0.0046	0	-75
0.003	-0.003	-0.0053	0.0007	-75
0.0037	-0.0015	-0.003	0.0007	-74.9
0.0037	-0.0015	-0.0023	0.0022	-74.9
0.0045	0.0007	-0.0053	0.003	-75
0.006	0.003	-0.0046	0.003	-75.1
0.009	0.0015	-0.0046	0.0022	-75.1
0.009	-0.0008	-0.0046	0.0022	-74.9
0.0082	-0.0015	-0.0023	0.0022	-75.1
0.0082	-0.0008	-0.003	0.0037	-75
0.0082	-0.0015	-0.003	0.0015	-74.9
0.009	-0.0008	-0.0008	0.0015	-75
0.006	-0.0008	-0.0008	0.0015	-75.2
0.006	-0.0015	0	0.0015	-74.9
0.0045	-0.0008	0	0.0015	-75
0.0007	0.0007	-0.0008	0.0007	-75
-0.0008	0.0015	-0.0008	0.0015	-75.1
0.0007	0.0022	-0.0015	0.0015	-75
0.0037	0.003	-0.0015	0.0007	-74.9
0.0015	0.0015	-0.003	0.0007	-75.1
-0.0015	0.003	-0.0015	0.0007	-74.9
-0.0046	0.0022	-0.0015	0.0007	-74.9
-0.003	0	-0.0008	-0.0008	-75.1
-0.003	0	-0.0008	-0.0015	-75
-0.0068	0.0007	-0.0038	-0.0008	-75
-0.0083	0.0007	-0.0046	0.0015	-74.9
-0.012	-0.0008	-0.0053	0.0007	-75.1
-0.0143	0.0007	-0.0046	0.0007	-74.9
-0.0113	0.0007	-0.0053	0.0015	-75.2
-0.0083	0	-0.003	0.0007	-74.9
-0.0038	0.0007	0.0007	0.0007	-75.2
-0.0008	0.0007	0.0007	0.0007	-74.9
0.0015	0.0007	0.0015	0.0007	-75.2
0.0067	0.0022	0.003	0	-75
0.0067	0.0015	0.0037	0	-75
0.006	0.0007	0.0037	-0.0008	-75
0.0052	0.0015	0.0045	0.0007	-75.1
0.006	0.0015	0.0015	0.0007	-75
0.0067	0.0015	0.0022	-0.0008	-75.1
0.0075	0.0015	0.0037	0.0007	-75
0.0052	-0.0008	0.0037	-0.0008	-75.1
0.003	-0.0008	0.0045	-0.0008	-75.2
0.003	-0.0015	0.0022	-0.0015	-75.1
0.0015	-0.0015	0.0007	-0.0008	-74.9
0	-0.0015	0.0007	-0.0015	-75
-0.003	-0.0023	0.0007	-0.0008	-74.9
-0.0038	-0.0023	0.0007	0.0007	-75.2
-0.0015	-0.0008	0	0	-74.8
-0.0046	-0.0008	-0.0008	0.0007	-75.1
-0.0015	-0.0008	0.0007	0.0015	-74.9
-0.0015	0.0022	0.0007	0.0015	-75.1
-0.0015	0.0007	0.0007	0.0007	-75.1
-0.0008	0	0.0015	0.0022	-75.1
-0.0015	0.0007	0.0007	0.003	-75
0.0015	0.0007	0.0007	0.0022	-74.9
0.0015	0.0015	-0.0015	0.003	-74.9
0.0007	0.0007	-0.0015	0.0015	-74.7
-0.0008	0.0007	-0.0023	0.003	-75.2
-0.0008	0.0015	-0.0046	0.003	-74.9
0	0.0015	-0.0023	0.003	-75.1
0	0.0007	-0.0023	0.003	-74.7
0.0007	0.0007	-0.0015	0.0022	-75.2
-0.0015	0.0007	-0.003	0.003	-74.9
-0.0023	0.0007	-0.003	0.0015	-75.1
-0.0046	0	-0.0046	0	-75.2
-0.0046	0.0007	-0.0046	-0.0015	-75
-0.0038	0.0007	-0.0046	0	-75
-0.003	0	-0.0046	0.0015	-75
-0.0015	0.0015	-0.0038	0.0015	-74.9
-0.0015	0.0015	-0.0046	0.0007	-75
0.0007	0.0007	-0.003	0.0007	-75
0.0015	0	-0.0023	0	-75
0.0037	0.0007	-0.0015	0.0007	-75.1
0.003	-0.0008	-0.0015	-0.0015	-75.1
0.0022	-0.0015	-0.0015	-0.0015	-74.9
0.003	-0.0053	0	-0.0008	-75
0.0015	-0.0075	0.0007	-0.003	-75
0.0022	-0.0083	0.0015	-0.003	-75.2
0.0022	-0.006	0.003	-0.0008	-74.9
0.0022	-0.003	0.0015	-0.0015	-75
0.0007	-0.0015	0.0015	-0.0015	-74.9
-0.0008	0.0007	0.003	-0.0008	-75.1
0	0.0015	0.003	-0.0015	-74.9
-0.0008	0.003	0.003	0	-74.9
0.0007	0.0045	0.0015	0.0007	-75.1
-0.0008	0.0045	0.0037	0.0007	-74.9
-0.0008	0.0045	0.0045	0.0007	-74.9
-0.0015	0.0045	0.003	0.0007	-75
-0.0008	0.0045	0.003	0.0007	-75.1
0.0007	0.0052	0.003	-0.0023	-74.9
-0.0008	0.0052	0.003	-0.0023	-75.1
0.0007	0.0045	0.003	-0.0015	-75.1
0.0007	0.003	0.0037	-0.0023	-75
-0.0008	0.0015	0.0052	-0.003	-75.2
0	-0.0015	0.006	-0.0053	-75.1
0.0015	-0.0046	0.0067	-0.0068	-75.1
0.003	-0.0053	0.006	-0.0053	-74.9
0.0022	-0.0068	0.006	-0.003	-75.1
0.0045	-0.0046	0.0052	-0.0015	-75
0.003	-0.003	0.0045	-0.0008	-74.9
0.0015	-0.003	0.0067	-0.0015	-75.1
0	-0.0038	0.0082	0.0015	-75
-0.0015	-0.0015	0.0067	0.0045	-75.2
-0.0038	0.0015	0.0045	0.0067	-74.9
-0.006	0.003	0.003	0.0075	-75.2
-0.0068	0.0037	0.0015	0.009	-74.9
-0.0075	0.0045	-0.003	0.0082	-75.2
-0.0075	0.0045	-0.003	0.0067	-74.9
-0.0053	0.0052	-0.0038	0.009	-75.1
-0.0046	0.0052	-0.0046	0.0082	-75.1
-0.0046	0.0067	-0.0046	0.0067	-75.2
-0.003	0.0067	-0.0075	0.0105	-75.1
-0.0015	0.0067	-0.0083	0.0052	-75.1
-0.0008	0.0052	-0.006	0.0015	-75.1
0.0007	0.006	-0.0053	0.0007	-75
-0.0008	0.0075	-0.003	-0.0008	-75
-0.0015	0.0067	-0.003	-0.0015	-75.1
-0.0023	0.0052	-0.0015	-0.0023	-75.1
-0.0023	0.003	0.0007	-0.0015	-75.1
0.0007	0.0007	-0.0008	-0.0023	-75.1
0.0015	-0.003	-0.0015	-0.0038	-74.9
0.0022	-0.0053	-0.0008	-0.003	-75
0.0015	-0.0068	0.0007	-0.003	-74.9
0.003	-0.0083	0.0007	-0.003	-74.9
0.0052	-0.0091	0.0007	-0.003	-75.2
0.003	-0.0083	0	-0.0015	-75.1
0.003	-0.0053	0	-0.0008	-75.2
0.0015	-0.0046	-0.0008	-0.0023	-75
-0.0008	-0.003	-0.0008	-0.003	-75.1
-0.0008	-0.0015	0.0022	-0.003	-75
-0.0023	0.0007	0.0045	-0.0008	-75.1
-0.0038	0	0.0052	-0.0008	-75
-0.003	0	0.0052	-0.0008	-75
-0.0053	0.0022	0.0045	-0.0008	-74.9
-0.0053	0.0045	0.003	0.0007	-75
-0.0053	0.0045	0.0045	0.0007	-75
-0.0068	0.0052	0.0052	-0.0008	-75
-0.0053	0.0045	0.0067	-0.0015	-75.1
-0.006	0.0022	0.009	-0.0023	-75
-0.006	0.0022	0.009	-0.0015	-75
-0.0068	0.0007	0.0067	-0.0015	-74.9
-0.0046	0	0.0067	-0.0008	-75
-0.003	-0.0008	0.0082	-0.0008	-75
-0.0015	-0.0015	0.0082	-0.0008	-75
-0.0023	0.0007	0.0067	0.0007	-75.1
-0.0023	0.0015	0.0067	-0.0015	-75
-0.0023	0.0007	0.006	-0.0015	-75
-0.003	-0.0015	0.0052	-0.0023	-75.1
-0.0015	-0.0053	0.0045	-0.0023	-75.1
0	-0.0113	0.0045	-0.0038	-75.1
0.0045	-0.0128	0.0037	-0.0053	-75
0.0067	-0.0091	0.003	-0.003	-75.1
0.0052	-0.0053	0.003	-0.0015	-74.9
0.0075	-0.0023	0.0015	-0.0008	-75.2
0.0082	0.0015	-0.0008	0.0007	-75
0.009	0.0022	-0.003	0.0015	-75.1
0.0097	0.0052	-0.0015	0.0045	-75
0.0052	0.0045	0.0007	0.0052	-75.2
0.0022	0.0045	0.0007	0.0045	-75
0.003	0.0052	0	0.0052	-75.1
-0.0015	0.0037	0.0007	0.0045	-75.1
-0.0068	0.0045	0.0007	0.0045	-74.9
-0.0053	0.0037	0.0015	0.0037	-75.2
-0.0038	0.0045	0.0037	0.0015	-75.2
-0.0023	0.006	0.003	0.0022	-75
-0.0053	0.0052	0.0007	0.0015	-75.1
-0.0046	0.0052	-0.0008	0	-75.2
-0.0015	0.0045	-0.0008	-0.0008	-75.2
-0.0023	0.0045	-0.003	-0.0023	-75.1
-0.003	0.003	-0.0046	-0.0015	-75.2
-0.003	0.0007	-0.0046	-0.0015	-74.9
-0.0046	-0.0015	-0.0053	-0.0008	-75.2
-0.0053	-0.003	-0.0053	0.0007	-75.2
-0.006	-0.003	-0.0068	0.0007	-75.3
-0.0038	-0.0015	-0.006	0.0015	-75.1
0.0022	0.0007	-0.0075	0.0045	-75.2
0.0052	0.0015	-0.0113	0.0045	-75.1
0.0067	0.0015	-0.0105	0.0052	-75.2
0.0082	0	-0.0098	0.0067	-75.2
0.009	-0.0008	-0.0068	0.0052	-75.2
0.009	-0.0015	-0.0053	0.003	-75.2
0.006	-0.0023	-0.0038	0.0007	-75.2
0.0045	-0.0015	-0.0008	-0.0015	-75.2
0.0007	-0.0046	0.003	-0.003	-75
-0.0015	-0.0046	0.0045	-0.003	-75.2
-0.0038	-0.0015	0.0022	-0.003	-75.1
-0.006	-0.0008	0.0015	-0.0015	-75.2
-0.0053	0.003	-0.0015	-0.0015	-75.2
-0.0083	0.0037	-0.0038	-0.0008	-75.2
-0.0105	0.0045	-0.0046	-0.0008	-75.2
-0.0038	0.0037	-0.0053	-0.0008	-75.2
0.003	0.0022	-0.0068	-0.0015	-75.2
0.0052	0.0007	-0.006	0.0015	-75
0.0045	-0.0008	-0.003	0.003	-75.3
0.003	-0.0023	-0.0008	0.0015	-75.1
0.0045	-0.0046	0.0015	0.0015	-75.2
-0.0015	-0.0046	0.0022	0.0007	-75.1
-0.003	-0.0046	0.0022	-0.0008	-75.2
-0.0053	-0.0023	0.0007	0.0007	-75.2
-0.0083	0.0007	-0.0008	-0.0008	-75.1
-0.0046	0.0015	-0.0015	-0.0008	-75.2
-0.0053	0.003	-0.0015	-0.0008	-75
-0.0023	0.003	-0.0008	-0.0008	-75.2
-0.0008	0.0045	-0.0008	0.0015	-75.2
-0.0008	0.0067	-0.0023	0.003	-75.1
0.0007	0.0082	-0.0046	0.003	-75
-0.0008	0.009	-0.0046	0.003	-75.2
-0.0008	0.0105	-0.0038	0.003	-75.1
-0.0015	0.0097	-0.003	0.003	-75.2
-0.0008	0.0075	-0.003	0.0007	-75.3
0.0015	0.0067	-0.003	-0.0008	-75.2
0.0045	0.003	-0.0046	-0.0008	-75.2
0.0067	-0.0046	-0.0046	-0.0023	-75.2
0.006	-0.0098	-0.0038	-0.0023	-75.2
0.0067	-0.012	-0.0015	-0.0046	-75.2
0.0082	-0.0128	-0.0008	-0.003	-75.2
0.009	-0.0091	0	-0.0008	-75.2
0.0082	-0.003	0.0022	0	-75.2
0.0082	-0.0008	0.0037	0	-75.2
0.0105	0.0007	0.003	-0.0015	-75.1
0.0105	-0.0015	0.0045	-0.003	-75.2
0.009	-0.003	0.0052	-0.003	-75.2
0.009	-0.0046	0.0045	-0.0023	-75.2
0.0105	-0.006	0.0022	-0.0023	-75.2
0.009	-0.0068	0.003	-0.0015	-75.4
0.0075	-0.0068	0.003	0.0007	-75.2
0.003	-0.0046	0.0037	0.0015	-75.1
0.0007	-0.0015	0.003	0.0022	-75.2
0.003	-0.0015	0.0022	0.0015	-75.2
0.0022	-0.0046	0.0022	0.0007	-75.4
0	-0.0038	0.0015	0.0007	-75.2
-0.0008	-0.0015	0.0007	0	-75.2
-0.0008	0.0007	-0.0008	0.0007	-75.3
0.003	0.0075	-0.0023	0.003	-75.2
0.0022	0.0097	-0.0053	0.003	-75.3
0	0.0097	-0.0068	0.0045	-75.2
-0.0015	0.0082	-0.0053	0.0052	-75.2
-0.0023	0.0067	-0.0046	0.0052	-75.1
-0.0008	0.0082	-0.0038	0.003	-75.3
-0.0008	0.006	-0.0023	0.0007	-75.1
-0.0023	0.0052	0	0.0007	-75.4
-0.0008	0.0052	0.0015	0.0015	-75.2
-0.0015	0.0052	0	0.0015	-75.3
0.0015	0.0067	-0.0015	0.0015	-75.2
0.0037	0.0052	-0.0008	0.0015	-75.2
0.0015	0.0052	0.0015	0.0007	-75.2
0.0015	0.006	0	-0.0008	-75.3
0.0015	0.0052	-0.0015	0	-75.3
0.0007	0.0045	-0.0023	0	-75.2
0	0.0015	-0.0008	-0.0008	-75.3
-0.0008	0	0	-0.0008	-75.1
-0.0008	-0.0015	-0.0015	-0.0023	-75.2
-0.0015	0.0007	-0.003	-0.0023	-75.2
-0.0015	0	-0.003	-0.0023	-75.2
-0.0053	-0.0015	-0.0053	0.0007	-75.4
-0.0068	-0.0015	-0.0046	0.0022	-75.2
-0.006	0	-0.0053	0.0015	-75.2
-0.0038	-0.0015	-0.0053	0.0007	-75.2
0.0007	-0.003	-0.0053	-0.0008	-75.4
0.003	-0.0068	-0.0091	-0.003	-75.2
0.006	-0.0098	-0.0091	-0.006	-75.3
0.0052	-0.0098	-0.0053	-0.0075	-75.2
0.0045	-0.0105	-0.0023	-0.0098	-75.3
0.006	-0.0105	0.0015	-0.0105	-75.5
0.006	-0.0098	0.003	-0.0075	-75.2
0.0022	-0.0135	0.0067	-0.0053	-75.5
-0.0015	-0.0158	0.009	-0.003	-75.2
-0.003	-0.012	0.009	-0.0008	-75.4
-0.0046	-0.012	0.0075	-0.0008	-75.2
-0.006	-0.0105	0.0067	0.0022	-75.3
-0.0083	-0.0023	0.0045	0.0105	-75.2
-0.0105	0.006	0	0.0157	-75.3
-0.012	0.0127	-0.0015	0.0165	-75.3
-0.0128	0.0157	-0.0053	0.015	-75.3
-0.0143	0.0157	-0.0105	0.0127	-75.4
-0.0091	0.0165	-0.012	0.0105	-75.3
-0.0075	0.015	-0.0135	0.0067	-75.4
-0.0091	0.0142	-0.0128	0.003	-75.5
-0.0091	0.0135	-0.012	0.003	-75.5
-0.006	0.012	-0.0105	0.0015	-75.4
-0.0015	0.009	-0.0105	-0.0015	-75.4
0.0022	0.0067	-0.0091	-0.003	-75.4
0.0045	0.003	-0.0038	-0.0068	-75.2
0.0082	-0.0015	0.003	-0.0083	-75.5
0.009	-0.0023	0.0067	-0.0075	-75.2
0.0052	-0.0015	0.009	-0.0068	-75.5
0.0052	0.0015	0.0127	-0.0053	-75.3
0.0037	0.0037	0.0157	-0.003	-75.5
0.0022	0.0052	0.0165	-0.0015	-75.5
0.0045	0.0082	0.015	-0.0023	-75.3
0.0045	0.0075	0.0142	-0.0023	-75.5
0.006	-0.0008	0.0165	-0.0015	-75.3
0.0045	-0.0075	0.015	-0.0015	-75.2
0.0015	-0.012	0.0127	-0.003	-75.3
-0.0015	-0.0165	0.0127	-0.0053	-75.4
-0.006	-0.0188	0.0112	-0.0053	-75.3
-0.0068	-0.0195	0.0105	-0.006	-75.2
-0.0068	-0.0195	0.0097	-0.0053	-75.5
-0.0083	-0.0158	0.0067	-0.0046	-75.2
-0.0105	-0.0083	0.0052	-0.0023	-75.4
-0.0091	-0.0008	0.0007	0.0015	-75.2
-0.0083	0.003	0	0.003	-75.5
-0.0068	0.0045	-0.0008	0.0037	-75.3
-0.0083	0.0067	-0.0015	0.0045	-75.5
-0.0105	0.009	0.0007	0.0037	-75.4
-0.0113	0.0097	-0.0015	0.0037	-75.5
-0.0128	0.009	-0.0023	0.003	-75.3
-0.0083	0.0105	-0.0038	0.0045	-75.4
-0.003	0.0105	-0.0053	0.003	-75.6
-0.0038	0.009	-0.0053	0.0022	-75.5
-0.0038	0.009	-0.006	0.0022	-75.6
-0.006	0.0067	-0.0068	0	-75.4
-0.0008	0.0022	-0.0046	-0.0008	-75.5
0.003	0.0015	-0.0015	-0.0023	-75.4
0.0045	0.0015	-0.0015	-0.0015	-75.5
0.0075	0.0015	0.0007	-0.0008	-75.5
0.0067	0.0007	0.0022	0	-75.4
0.012	0.003	0.0052	0.0015	-75.5
0.0135	0.0045	0.0067	0.0007	-75.5
0.0127	0.0015	0.0082	-0.0008	-75.6
0.0142	0.0015	0.0067	-0.0008	-75.5
0.012	0.003	0.0067	-0.0008	-75.6
0.0097	0.0007	0.0067	0	-75.4
0.0052	-0.0038	0.0045	-0.0015	-75.7
0.003	-0.0068	-0.0165	-0.0023	-75.6
0.0022	-0.0105	-0.063	-0.0008	-75.5
0	-0.0128	-0.0878	-0.0023	-75.6
0	-0.0143	-0.078	-0.003	-75.5
-0.003	-0.0128	-0.075	-0.003	-75.8
-0.0015	-0.0105	-0.0706	-0.0023	-75.5
-0.0015	-0.006	-0.0195	0.0022	-75.7
-0.0008	0.0007	0.0517	0.0045	-75.5
-0.0008	0.0052	0.0945	0.0067	-75.7
-0.0053	0.009	0.1065	0.0105	-75.6
-0.0083	0.0195	0.0937	0.0105	-75.7
-0.0105	0.0262	0.0637	0.0105	-75.6
-0.0083	0.0292	0.0292	0.009	-75.7
-0.0053	0.033	0.0052	0.0052	-75.7
-0.003	0.027	-0.015	0	-75.8
0.0045	0.0142	-0.0278	-0.0015	-75.6
0.0127	0.0007	-0.0353	0.003	-75.6
0.0157	-0.0158	-0.0383	0.0052	-75.8
0.0195	-0.0308	-0.03	0.003	-75.7
0.0217	-0.039	-0.0158	-0.0038	-75.9
0.0195	-0.0368	-0.0015	-0.0105	-75.7
0.0157	-0.0256	0.009	-0.0195	-75.7
0.0105	-0.0158	0.018	-0.027	-75.8
0.0075	-0.0098	0.024	-0.0293	-75.6
-0.0008	-0.0083	0.0232	-0.0315	-75.7
-0.0068	-0.0105	0.0187	-0.0248	-75.7
-0.0068	-0.0143	0.0172	-0.015	-75.7
-0.0068	-0.0113	0.0135	-0.0038	-75.7
-0.0068	-0.006	0.0097	0.009	-75.8
-0.0068	0.003	0.0105	0.0142	-75.6
-0.0046	0.009	0.0082	0.0157	-75.9
-0.0038	0.0142	0.0037	0.0172	-75.8
-0.0015	0.0165	0.0007	0.018	-75.8
0	0.0157	-0.0023	0.0187	-75.8
0	0.0172	-0.0053	0.0172	-75.8
0.0007	0.015	-0.0053	0.0135	-76
0	0.0142	-0.0091	0.0105	-75.9
-0.0008	0.012	-0.0083	0.0105	-76
-0.0008	0.0112	-0.0068	0.0067	-75.8
0	0.0105	-0.0068	0.0052	-75.8
-0.0023	0.009	-0.006	0.0037	-75.9
-0.0008	0.0127	-0.0083	0.003	-75.9
-0.003	0.0135	-0.0091	0.003	-75.9
-0.006	0.0135	-0.0091	-0.0008	-75.9
-0.0038	0.0105	-0.0091	-0.0015	-76
-0.0038	0.0052	-0.0083	-0.003	-75.8
-0.003	0.0007	-0.0068	-0.003	-76.2
0	-0.006	-0.0075	-0.0053	-76
0.003	-0.0143	-0.0091	-0.0046	-76
0.009	-0.0225	-0.0083	-0.003	-76.1
0.009	-0.0256	-0.0083	-0.003	-76
0.0082	-0.0233	-0.0053	-0.003	-76
0.009	-0.0143	-0.0038	-0.003	-75.9
0.0075	-0.0091	-0.0015	-0.0015	-76.1
0.0067	-0.0075	0.0015	-0.0008	-75.8
0.0067	-0.0038	0.0045	-0.0008	-76.1
0.0015	-0.0008	0.0067	-0.0023	-75.8
-0.0015	-0.0015	0.009	-0.0038	-76.1
-0.0046	0.0007	0.006	-0.0068	-75.9
-0.0075	0.0015	0.0045	-0.0068	-76.1
-0.0083	0.0015	0.0015	-0.0068	-76.1
-0.0091	0.0037	-0.0008	-0.003	-76.1
-0.0098	0.0037	-0.0008	-0.0015	-76.1
-0.0091	0.0052	-0.0023	-0.003	-76.1
-0.0075	0.0045	-0.0038	-0.0015	-76.1
-0.0091	0.0045	-0.0046	-0.0008	-76.1
-0.0113	0.0015	-0.0046	-0.0008	-76.1
-0.0128	0.0015	-0.0046	0.0015	-76.2
-0.0165	0.0045	-0.0038	0.0045	-76.2
-0.0188	0.0045	-0.0053	0.0052	-76.1
-0.0173	0.0067	-0.0068	0.0082	-76.2
-0.0143	0.0082	-0.0105	0.0097	-76.4
-0.0105	0.012	-0.0173	0.0082	-76.3
-0.006	0.0127	-0.0181	0.006	-76.4
-0.0015	0.012	-0.0165	0.0052	-76.2
0.0045	0.0105	-0.0143	0.0022	-76.4
0.0097	0.009	-0.0113	-0.0008	-76.3
0.015	0.0067	-0.0075	-0.0015	-76.4
0.0165	-0.0015	-0.0053	-0.0023	-76.2
0.0157	-0.0098	-0.0008	-0.0046	-76.2
0.015	-0.0135	0.0037	-0.0046	-76.4
0.012	-0.0158	0.0067	-0.0053	-76.4
0.0067	-0.0165	0.0082	-0.0091	-76.2
0.003	-0.0158	0.009	-0.0083	-76.3
0.0022	-0.0158	0.0097	-0.006	-76.5
0	-0.0143	0.0097	-0.0038	-76.2
-0.0015	-0.0135	0.0067	-0.0008	-76.6
-0.003	-0.0091	0.0007	0.0007	-76.2
-0.006	0.0007	-0.003	0.0052	-76.6
-0.0068	0.0067	-0.0053	0.009	-76.3
-0.0098	0.009	-0.0068	0.0075	-76.5
-0.0098	0.0075	-0.0083	0.006	-76.5
-0.0075	0.0105	-0.0105	0.0067	-76.5
-0.0091	0.0112	-0.0128	0.0067	-76.5
-0.0105	0.0082	-0.012	0.003	-76.6
-0.0075	0.0075	-0.0113	0.0015	-76.7
-0.006	0.0067	-0.0098	0	-76.5
-0.003	0.006	-0.0083	-0.0008	-76.6
0.0007	0.0082	-0.0075	0.0015	-76.6
0.0052	0.0082	-0.0075	0.0015	-76.7
0.0082	0.0067	-0.0068	0	-76.7
0.0097	0.0052	-0.006	0	-76.7
0.0082	0.003	-0.0053	0	-76.7
0.003	-0.0008	-0.0023	-0.0015	-76.7
0.0037	-0.0023	-0.0008	-0.0023	-76.8
0.003	-0.003	0.0015	-0.0023	-76.6
0.0052	-0.0038	0.003	-0.0046	-76.8
0.009	-0.003	0.0052	-0.0046	-76.8
0.009	-0.006	0.0075	-0.0068	-76.7
0.0067	-0.0075	0.012	-0.006	-76.6
0.0082	-0.003	0.012	-0.0046	-76.7
0.0112	-0.0008	0.012	-0.003	-76.7
0.012	0	0.0127	-0.0023	-76.8
0.012	-0.0015	0.0105	-0.0023	-76.9
0.0105	-0.0053	0.0097	-0.0023	-76.8
0.0052	-0.0053	0.0105	-0.0008	-76.8
0.006	-0.0068	0.012	-0.0008	-76.9
0.0015	-0.0083	0.0105	-0.003	-76.7
-0.0046	-0.0046	0.0082	-0.0015	-76.7
-0.0046	-0.003	0.006	-0.0008	-76.7
-0.0075	-0.0015	0.0052	0	-77
-0.0075	0	0.0045	0.0015	-76.8
-0.0105	0.0037	0.0015	0.0015	-77
-0.0165	0.0052	-0.0015	0.0015	-76.8
-0.0195	0.0067	-0.0023	0.0015	-77
-0.0173	0.0067	-0.0015	0.0007	-76.9
-0.0143	0.0067	-0.0015	0.0015	-77
-0.0091	0.0082	-0.003	0.0015	-76.9
-0.0023	0.0067	-0.0023	0.0015	-77
0.0015	0.006	-0.0046	0.0015	-76.9
0.0052	0.0045	-0.0015	-0.0008	-77
0.0067	0.0015	-0.0015	0	-77
0.006	0.0007	-0.0015	0.0007	-76.8
0.006	-0.0038	0	0.0015	-77
0.0067	-0.0068	0	0.0045	-76.9
0.0067	-0.0068	0.0015	0.006	-77
0.006	-0.0053	0.0015	0.006	-77
0.0075	-0.006	0.0015	0.0037	-77
0.006	-0.0046	0.0015	0.0045	-77.1
0.003	-0.0015	0.003	0.0045	-77
0.0007	0.0015	0.0045	0.0015	-77
-0.003	0.0022	0.0045	0.003	-77
-0.0068	0.003	0.0052	0.0015	-77.1
-0.012	0.003	0.0052	0.0007	-77
-0.012	0.0015	0.0045	-0.0008	-77
-0.0098	0.0007	0.0015	-0.0008	-77
-0.0105	-0.0008	-0.0008	0	-77
-0.0105	-0.0015	-0.0015	0.0007	-77.2
-0.0083	-0.003	-0.0015	-0.0015	-77
-0.0083	-0.0046	-0.0038	-0.003	-77.2
-0.0053	-0.003	-0.0046	-0.0015	-77.1
-0.0075	-0.0015	-0.0068	-0.0015	-77.2
-0.0128	-0.003	-0.0068	-0.0015	-77
-0.0105	0.0007	-0.0053	0	-77.2
-0.0068	0.0022	-0.003	-0.0008	-77
-0.0053	0.0045	-0.0038	-0.0008	-77.1
-0.006	0.0052	-0.0046	-0.0008	-77
-0.0015	0.0052	-0.003	-0.0015	-77.2
0.0052	0.0052	-0.006	-0.0008	-77.2
0.009	0.0037	-0.0046	0.0007	-77.2
0.0082	0.0052	-0.0023	0.0015	-77.2
0.0105	0.006	-0.0015	0.003	-77.2
0.0142	0.0045	0.0022	0.0022	-77.2
0.0127	0.003	0.0045	0.0022	-77.1
0.012	0.0015	0.0045	0.003	-77.1
0.009	0.0007	0.0052	0.0022	-77.1
0.009	-0.0015	0.0052	0.0015	-77.3
0.0075	-0.0046	0.0052	-0.0008	-77.2
0.003	-0.0038	0.0045	-0.0015	-77.2
0.0007	-0.003	0.006	0	-77.4
-0.0008	-0.0015	0.0045	-0.0008	-77
-0.0023	-0.0008	0.003	-0.0008	-77.2
-0.0023	0	0.0022	-0.0008	-77.2
0.0007	0.0015	0.0015	-0.0008	-77.2
0.0007	0.003	-0.0008	-0.0008	-77.2
0.003	0.0045	-0.0015	-0.0008	-77.2
0.0075	0.0045	-0.003	-0.0008	-77.2
0.0082	0.0015	-0.003	-0.0008	-77.2
0.0075	-0.0008	-0.003	-0.0008	-77.2
0.0082	-0.0015	-0.0015	-0.0015	-77.1
0.0067	-0.0008	-0.0015	-0.0015	-77.4
0.0045	-0.0015	-0.0008	-0.0015	-77.1
0.0067	-0.0015	-0.0008	-0.0015	-77.3
0.0052	-0.0008	-0.0023	-0.0008	-77.2
0.0015	0	-0.0015	-0.0008	-77.2
0.003	0	-0.0015	0.0007	-77.3
0.0052	0.0015	-0.0015	0.0007	-77.4
0.0037	0.0022	-0.0015	0.0007	-77.4
0.0015	0.0007	-0.0015	0.0015	-77.2
-0.0008	0.003	-0.0015	0.0022	-77.3
-0.0015	0.0022	-0.0023	0.003	-77.1
-0.0075	0.0015	-0.0023	0.003	-77.2
-0.0113	0.0022	-0.003	0.0022	-77.3
-0.0083	0.0015	-0.0015	0.0022	-77.2
-0.003	0.003	-0.0015	0.0015	-77.2
0.0007	0.0022	-0.0015	0.0022	-77.3
-0.0015	0.0015	-0.003	0.0015	-77.3
-0.0008	0.0022	-0.003	0.0015	-77.2
0.0007	0.0052	-0.0015	0.0015	-77.4
-0.0015	0.0075	-0.0015	0.003	-77.2
0.0007	0.0097	-0.0015	0.0045	-77.5
0.0007	0.0082	-0.0008	0.0037	-77.2
0.003	0.0015	0	0.0015	-77.4
0.0052	-0.0023	-0.0015	0	-77.2
0.0075	-0.0083	-0.0015	-0.0008	-77.3
0.0082	-0.012	-0.0015	-0.0023	-77.3
0.0052	-0.0158	-0.0008	-0.0046	-77.3
0.006	-0.0181	0	-0.0046	-77.2
0.0045	-0.0128	0.0007	-0.0038	-77.3
0.003	-0.0091	0.0015	-0.003	-77.3
0.0022	-0.0075	0.0045	-0.0046	-77.3
-0.003	-0.0068	0.0052	-0.0038	-77.4
-0.0068	-0.003	0.0082	-0.0023	-77.3
-0.0083	0.0015	0.009	-0.0015	-77.3
-0.0068	0.0037	0.0082	-0.0015	-77.3
-0.006	0.0052	0.0097	-0.0015	-77.3
-0.0038	0.0067	0.0105	-0.0015	-77.4
-0.0046	0.0052	0.009	-0.0015	-77.2
-0.006	0.0052	0.0075	-0.0008	-77.4
-0.0083	0.0052	0.0075	0.0007	-77.2
-0.0091	0.006	0.006	0	-77.5
-0.0113	0.0052	0.0052	0.0015	-77.2
-0.0098	0.0052	0.0037	0.0037	-77.5
-0.0083	0.0045	0.0015	0.0037	-77.2
-0.0083	0.0045	0.0007	0.0022	-77.3
-0.0038	0.0037	-0.0008	0.0022	-77.2
0	0.0015	0.0007	0.0045	-77.3
-0.0008	0.003	0	0.0045	-77.4
0.0022	0.003	0.0015	0.0052	-77.1
0.0052	0.003	0.003	0.003	-77.4
0.0045	0.0022	0.0007	0.003	-77.2
0.0052	0.0007	0.0007	0.003	-77.2
0.0045	0	-0.0008	0.0015	-77.2
0.003	0.0022	-0.003	0	-77.2
0.0015	0.0007	-0.0038	-0.0015	-77.2
0.0007	-0.0008	-0.0053	-0.0008	-77.4
-0.0008	-0.0008	-0.0075	-0.0008	-77.4
-0.0015	0	-0.0091	-0.0015	-77.2
-0.0046	-0.0008	-0.0091	-0.0008	-77.4
-0.0068	-0.0023	-0.0128	-0.0008	-77.1
-0.0068	-0.003	-0.0158	-0.0008	-77.2
-0.0068	-0.0038	-0.0165	0	-77.3
-0.0083	-0.0023	-0.0181	-0.0008	-77.3
-0.0068	-0.0015	-0.0181	-0.0023	-77.3
-0.0083	-0.003	-0.0165	-0.0015	-77.1
-0.0091	-0.0015	-0.0165	-0.0015	-77.2
-0.0083	-0.0015	-0.0158	-0.0015	-77.2
-0.0068	-0.0015	-0.0143	-0.0008	-77.2
-0.0046	-0.0038	-0.0143	0	-77.2
-0.0038	-0.003	-0.0143	0.0007	-77.2
-0.0023	-0.0015	-0.0128	0.003	-77.2
0	0.0007	-0.0105	0.003	-77.2
-0.0008	0.0022	-0.0075	0.0015	-77
-0.0008	0.0015	-0.0068	0.0015	-77
-0.0008	0.003	-0.006	0.0015	-77.2
-0.0046	0.0022	-0.0068	0.0022	-77.2
-0.003	0.0015	-0.0083	0.0015	-77.2
0.0007	0.0022	-0.0075	0.0022	-77.1
-0.0015	0.0015	-0.006	0.0022	-77.1
-0.0046	0.0015	-0.0038	0.003	-77
-0.0046	0.0007	-0.0008	0.0037	-77
0.0007	0.0022	0	0	-77.1
0.0082	0.0015	0.0007	-0.0008	-77
0.0067	-0.0008	0.0007	0	-77.1
0.0045	0.0007	0.003	0.0007	-76.9
0.009	0.0007	0.0022	0.0015	-77.1
0.0105	0.0015	0.0022	0.0007	-77
0.0105	0.0015	0.0045	0.0015	-77
0.0082	0.0007	0.0075	0.0015	-77
0.0037	-0.0008	0.012	-0.0008	-77
0.003	-0.0015	0.0142	-0.0008	-76.9
0.0022	-0.0015	0.0165	-0.0023	-77
0.0015	-0.0015	0.0172	-0.003	-76.8
0.0015	-0.003	0.0172	-0.003	-76.8
0.0052	-0.0046	0.0165	-0.003	-76.7
0.0082	-0.0038	0.0172	-0.0046	-76.7
0.0097	-0.0015	0.0165	-0.0023	-76.7
0.0082	0.0007	0.0127	0	-76.8
0.009	0.0007	0.0127	0.0007	-76.7
0.0112	0.0022	0.012	0.0015	-76.7
0.012	0.0022	0.0105	0.0015	-76.6
0.0165	0.003	0.0105	0.0045	-76.8
0.0165	0.0037	0.0067	0.0037	-76.6
0.0127	0.0015	0.0052	0.003	-76.6
0.018	0.0037	0.0052	0.003	-76.4
0.0157	0.0045	0.0052	0.0015	-76.7
0.0022	0.003	0.0045	0.0037	-76.4
-0.0015	0.003	0.0052	0.0045	-76.6
-0.0015	0.0015	0.0082	0.0052	-76.5
-0.0008	0.0015	0.0052	0.003	-76.3
0.0007	0.0007	0.0022	-0.0008	-76.4
0.0007	-0.0008	0.0007	-0.0008	-76.3
0.0015	0	-0.0015	-0.0038	-76.5
0.0067	-0.0015	-0.003	-0.0046	-76.2
0.0052	-0.0008	-0.0046	-0.0015	-76.4
-0.0091	0	-0.0053	-0.0015	-76.1
-0.012	-0.0015	-0.006	-0.0023	-76.4
-0.0068	-0.0023	-0.0053	-0.0038	-76.2
-0.0038	-0.0008	-0.003	-0.0015	-76.2
-0.0046	0.0007	-0.003	0.0007	-76.2
-0.0105	0.0007	-0.0046	0.0015	-76.2
-0.0083	0.0015	-0.0046	0.0015	-76.1
-0.0068	0.0015	-0.003	0.0022	-75.9
-0.0053	0.0015	-0.003	0.0022	-76.1
-0.0083	0.0015	-0.0038	0.003	-76.1
-0.0105	0	-0.0038	0.0007	-75.8
-0.0091	-0.0008	-0.0038	0.0007	-75.9
-0.015	0.0007	-0.003	0.0015	-75.8
-0.0181	0.0007	-0.0015	0.0007	-75.9
-0.0083	0.0007	-0.0015	0.0007	-75.7
-0.0038	0.0007	-0.0008	-0.0008	-75.8
-0.0008	-0.0008	0	-0.0008	-75.7
0.0052	0.0007	-0.0008	-0.0008	-75.8
0.012	-0.0008	-0.003	-0.0008	-75.6
0.0157	-0.0008	-0.0015	0.0007	-75.7
0.009	0	-0.0008	0.0015	-75.5
0.003	-0.0008	-0.0015	0	-75.5
0.006	-0.0008	-0.0023	-0.0008	-75.5
0.0082	-0.0008	-0.0008	-0.0008	-75.5
0.006	0.0007	0.0007	0.0015	-75.4
-0.003	0.0015	0	0.0015	-75.2
-0.0158	0.0015	0.0007	0	-75.3
-0.0128	0.0015	0.0007	0	-75.2
-0.0143	0.0007	0	0	-75.2
-0.0128	0.0007	0.0007	0	-75.1
-0.0128	0.0022	0	0.0007	-74.9
-0.0181	0.0022	-0.0008	0.0015	-75
-0.0165	0.0007	0.0007	0.0015	-74.8
-0.0233	-0.0008	-0.0008	0.003	-75
-0.024	0	0.0015	0.0015	-74.7
-0.0195	0	0.0015	-0.0008	-75
-0.0181	-0.0008	0.0007	-0.0008	-74.7
-0.0181	0.0007	0.0022	0	-74.8
-0.0203	0.0007	0.0007	-0.0008	-74.7
-0.0181	0.0007	0.0007	-0.0008	-74.8
-0.0158	-0.0015	-0.003	-0.0008	-74.6
-0.0143	-0.0023	-0.0046	-0.0015	-74.6
-0.0143	-0.0008	-0.0046	-0.0008	-74.5
-0.0083	-0.0008	-0.0046	-0.0015	-74.3
-0.0008	0.0007	-0.0046	-0.0015	-74.6
0.003	0.0015	-0.0046	0.0007	-74.2
0.0075	0.003	-0.0038	0.0007	-74.4
0.0112	0.003	-0.0046	0	-74.2
0.0105	0.0022	-0.006	0.0007	-74.4
0.0082	0.0015	-0.0068	0.0015	-74.2
0.0127	0.0015	-0.0068	0.0037	-74.3
0.0112	0.003	-0.0083	0.0045	-74.3
0.0067	0.0015	-0.0091	-0.0008	-74.2
0.0082	0.0015	-0.0105	0	-74.1
0.0082	0	-0.0143	-0.0008	-74
0.0105	-0.0015	-0.0158	-0.0015	-74.1
0.0097	-0.0038	-0.012	-0.0015	-74
0.0127	-0.0046	-0.0091	-0.0015	-73.9
0.018	-0.0053	-0.006	-0.0015	-73.8
0.0187	-0.0046	-0.003	-0.0023	-73.8
0.0157	-0.0023	-0.0015	-0.0008	-73.8
0.009	-0.0008	-0.0015	0.0015	-73.5
0.0082	0.0007	0.0015	0.003	-73.7
0.0075	0.0007	0.003	0.0022	-73.4
0.009	0.003	0.0015	0.0037	-73.7
0.0142	0.003	0.0015	0.003	-73.4
0.015	-0.0008	0.0007	-0.0008	-73.5
0.0135	-0.0008	-0.0008	-0.003	-73.2
0.015	0.0007	0.0007	-0.003	-73.4
0.0165	-0.0008	0.0022	-0.003	-73.4
0.0165	-0.0008	0.003	-0.0023	-73.2
0.0187	-0.0008	0.0045	-0.0015	-73.3
0.0195	0.0007	0.0052	0	-73.2
0.0217	0.0015	0.0037	0.0015	-73.2
0.0232	0.0037	0.003	0.003	-73
0.0202	0.0052	0.003	0.0052	-72.9
0.0142	0.0045	0.003	0.0045	-73
0.0052	0.006	0.0045	0.0045	-72.9
0.0007	0.006	0.0052	0.0037	-72.9
-0.003	0.0045	0.0045	0.0015	-72.6
-0.0075	0.0052	0.0052	0.0022	-72.8
-0.0068	0.0052	0.0067	0.003	-72.6
-0.0038	0.0037	0.009	0.0015	-72.7
0.006	0.003	0.0075	0.0007	-72.4
0.0082	0.003	0.0075	-0.0008	-72.5
0.0052	0.0022	0.0105	0.0007	-72.3
0.0075	0	0.012	0.0015	-72.5
0.0067	-0.0008	0.0142	0.0015	-72.2
0.0052	-0.0038	0.0165	0.0007	-72.5
0.0015	-0.0053	0.018	0.0007	-72.3
-0.0008	-0.0046	0.021	0.0007	-72.1
-0.0015	-0.003	0.0217	0	-72
-0.0068	-0.0046	0.021	0.0007	-72
-0.0083	-0.0046	0.0202	-0.0008	-72
-0.0098	-0.003	0.021	-0.0023	-71.9
-0.015	-0.0023	0.0217	-0.003	-71.9
-0.0128	-0.0015	0.0202	-0.003	-72
-0.0083	-0.0008	0.018	-0.0015	-71.7
-0.0105	0	0.0165	0.0007	-71.8
-0.006	-0.0008	0.0165	-0.0008	-71.6
-0.0046	0.0007	0.0142	0	-71.6
-0.003	0.0007	0.0127	-0.0015	-71.5
0	-0.0008	0.0127	-0.0008	-71.5
-0.0046	-0.0008	0.0082	0.0007	-71.4
-0.0091	0	0.0082	0.0007	-71.3
-0.0128	0	0.006	0.0015	-71.3
-0.0165	-0.0008	0.0045	0.003	-71.2
-0.0173	0.0007	0.0015	0.0015	-71.1
-0.0181	0.0015	-0.0015	0.0015	-70.8
-0.0181	0.0007	-0.0038	0	-71.1
-0.0128	0.0007	-0.0053	-0.0008	-70.7
-0.0105	0.0007	-0.0053	0.0015	-71.1
-0.0098	0.0015	-0.006	0.0015	-70.9
-0.0075	0.0015	-0.0068	0.0007	-70.9
-0.0053	0	-0.0075	-0.0008	-70.7
-0.0068	-0.0008	-0.0075	-0.0008	-70.8
-0.0053	0	-0.0075	0.0015	-70.6
-0.0068	0.0022	-0.0068	0.0022	-70.7
-0.0091	0.003	-0.0075	0.0022	-70.6
-0.0083	0.0022	-0.0091	0.0007	-70.4
-0.0053	0.0022	-0.0105	0.0015	-70.4
0.0007	0.0015	-0.0098	0.0007	-70.3
0.0052	0.0015	-0.0083	-0.0008	-70.2
0.0045	0.0022	-0.0075	-0.0008	-70.2
0	0.0007	-0.0068	-0.0015	-70
0.0037	-0.0008	-0.0098	-0.003	-70.1
0.0007	0.0015	-0.0113	-0.0023	-69.8
-0.0083	0.0015	-0.0105	-0.0023	-70.1
-0.0195	0.0007	-0.0098	-0.0008	-69.8
-0.033	0	-0.0105	-0.0008	-69.9
-0.0315	0.0007	-0.0068	-0.0023	-69.6
-0.0225	0	-0.006	-0.0015	-69.8
-0.0135	-0.0008	-0.0046	-0.0008	-69.5
-0.0015	0.0007	-0.0015	0.0015	-69.5
-0.0008	0.0015	0.0007	0.0022	-69.3
0.0015	0.0007	0.0022	0.0007	-69.3
0.0052	0.0022	0.003	0.0022	-69.2
0.0037	0.0045	0.003	0.0022	-69.2
0.0112	0.003	0.0037	0.0007	-69.1
0.0165	-0.0015	0.0052	-0.0015	-69
0.0142	-0.003	0.0067	-0.003	-69.1
0.0075	-0.0008	0.006	0.0007	-68.9
-0.0023	-0.0008	0.0045	0.0015	-68.9
-0.0091	-0.003	0.0037	0.0007	-68.8
-0.015	-0.0046	0.0045	-0.0008	-68.8
-0.0143	-0.0008	0.0007	0.0007	-68.5
-0.0113	0.0015	-0.0015	0.0037	-68.6
-0.0023	0.0037	-0.0015	0.0052	-68.5
0.0082	0.0045	-0.0053	0.006	-68.5
0.0195	0.003	-0.0068	0.0052	-68.5
0.0232	0.003	-0.0053	0.0045	-68.3
0.0157	0.003	-0.0046	0.0045	-68.4
0.0195	0.0015	-0.0053	0.003	-68.1
0.0217	0.0007	-0.0046	0.0007	-68.1
0.0165	-0.0008	-0.0038	0	-68.1
0.009	-0.0015	-0.003	-0.0008	-68
0.0022	-0.0023	-0.0015	-0.0008	-67.8
-0.0008	-0.0038	0	-0.003	-67.7
-0.0015	-0.003	0.0015	-0.003	-67.9
-0.0053	-0.003	0.0007	-0.0015	-67.6
-0.0143	-0.0015	0.0015	-0.0015	-67.6
-0.0128	-0.0008	0.0015	0	-67.6
-0.0046	-0.0015	0.0015	-0.0008	-67.6
-0.0008	-0.003	0.0015	-0.0023	-67.5
-0.0015	-0.0015	0.0015	-0.0015	-67.5
-0.0068	-0.0008	-0.0008	-0.0015	-67.5
-0.003	-0.0015	-0.0015	-0.0015	-67.2
-0.0046	-0.0015	-0.0023	-0.0015	-67.2
-0.0091	-0.0015	-0.0015	-0.0015	-67.1
-0.0068	-0.0015	-0.0023	-0.0008	-67.1
-0.0053	-0.0008	-0.003	-0.0008	-66.9
0.0045	0.0007	-0.0023	0.0007	-67
0.0075	0.003	-0.003	0.0015	-66.8
0.0067	0.0037	-0.0046	0.003	-66.8
0.0082	0.0052	-0.0046	0.003	-66.9
0.0075	0.0045	-0.0038	0.0022	-66.6
0.0097	0.0045	-0.0038	0.003	-66.6
0.0067	0.0052	-0.0038	0.003	-66.4
0.0052	0.0037	-0.003	0.0022	-66.5
0.0082	0.003	-0.003	0.0007	-66.3
0.0067	0.0022	-0.0015	0	-66.3
0.0082	0.0007	-0.0015	0.0007	-66.3
0.0045	0.0007	-0.0015	0	-66.3
0.0037	0.0015	-0.003	-0.0008	-66.2
0.0007	0.0007	-0.0038	-0.0008	-66.2
-0.0023	0.0007	-0.0053	-0.0015	-65.9
0.0045	-0.0008	-0.0053	-0.0015	-66
0.0015	-0.0008	-0.0046	-0.0008	-66
-0.003	0	-0.0046	0	-65.9
-0.0083	0.0007	-0.0046	0.0007	-65.8
-0.003	-0.0008	-0.003	0.0007	-65.7
0.006	-0.0015	-0.0015	0.0015	-65.6
0.009	-0.0023	0.0007	0.0045	-65.7
0.0127	-0.0015	0.0015	0.0037	-65.5
0.0127	-0.0008	0.0007	0.0022	-65.6
0.0112	0	0	0.003	-65.3
0.0007	0.0015	0.0007	0.0022	-65.4
-0.003	0.0007	-0.0008	0	-65.1
0.003	-0.0015	-0.0008	-0.0015	-65.4
0.0045	-0.0008	-0.0023	-0.0046	-65
0.012	-0.0015	-0.0038	-0.003	-65.2
0.0202	-0.0015	-0.0046	-0.0015	-64.9
0.0232	0.0007	-0.0053	-0.0015	-65
0.0195	0.0022	-0.0023	-0.0008	-64.8
0.018	0.003	-0.0023	0.0007	-64.6
0.0157	0.0022	-0.0046	0.0007	-64.9
-0.0008	0.0015	-0.0038	0.0007	-64.6
-0.0046	0.0015	-0.003	-0.0008	-64.7
-0.0046	0.0007	-0.003	-0.0015	-64.4
-0.0015	0.0015	-0.0023	-0.0015	-64.6
0.003	0.0007	-0.003	-0.0023	-64.5
0.0015	0	-0.0023	-0.0015	-64.4
0.003	-0.0008	-0.0015	-0.0008	-64.4
-0.0008	-0.0008	-0.0008	-0.0008	-64.2
-0.0008	0.0007	-0.0008	-0.0008	-64.2
-0.0053	-0.0015	-0.003	-0.0008	-64
-0.0098	-0.0015	-0.0015	0.0015	-64.2
-0.0128	0.0007	-0.0015	0.0015	-64
-0.0165	0.0015	-0.0015	0.0015	-63.9
-0.015	0.0022	-0.003	0.0015	-63.9
-0.0233	0.0015	-0.0046	-0.0008	-63.9
-0.0091	0.003	-0.003	0	-63.9
0.0127	0.0022	-0.0046	0.0007	-63.5
0.0135	0.003	-0.0038	0.0022	-63.7
0.024	0.0022	-0.003	0.0015	-63.5
0.039	-0.0008	-0.0023	0	-63.5
0.0577	-0.0008	0	0.0007	-63.5
0.057	0.0007	0	0.0007	-63.3
0.0292	-0.0008	0.0015	0.0007	-63.4
0.0097	-0.0015	0.003	0	-63.3
-0.0105	0.0007	0.0045	0.0015	-63.2
-0.0165	0.0007	0.0045	-0.0015	-63
-0.0113	-0.0015	0.0037	-0.003	-63.1
-0.0091	-0.003	0.0022	-0.0023	-62.9
-0.0053	-0.003	0.0015	-0.003	-62.9
-0.0053	-0.003	0.0007	-0.0023	-63
-0.006	-0.003	-0.003	-0.0015	-62.7
-0.0046	-0.0015	-0.0023	-0.0015	-62.9
-0.006	-0.0008	-0.0023	0.0007	-62.6
-0.0098	0.0007	-0.0015	0.0022	-62.8
-0.0135	0.0015	-0.0023	0.003	-62.6
-0.0195	0.0015	-0.003	0.0037	-62.6
-0.0203	0.003	-0.003	0.0052	-62.4
-0.0203	0.003	-0.0046	0.0045	-62.3
-0.0143	0.0045	-0.003	0.003	-62.3
-0.0046	0.003	-0.0046	0.0022	-62.4
0.012	0.0015	-0.003	0.0007	-62.3
0.0345	0.0015	-0.0015	0.0015	-62.2
0.0427	0.0015	0.0007	0.0007	-62.1
0.0255	0.0007	0.003	0.0015	-62
0.0112	0.0007	0.0037	0.0037	-62
0.0112	0.0007	0.0037	0.003	-62
0.003	0	0.003	0.0007	-61.8
-0.0046	-0.0008	0.0022	0	-61.8
-0.0195	0.0007	0.0037	0.0007	-61.6
-0.0293	0.0007	0.0037	0.0022	-61.8
-0.0293	0.0007	0.0015	0.003	-61.5
-0.0315	0.0007	0	0.0022	-61.6
-0.0263	-0.0015	-0.0008	0.0015	-61.3
-0.0263	-0.0008	-0.0015	0.0007	-61.6
-0.0195	0.0007	-0.0015	-0.0008	-61.3
-0.0128	-0.0008	-0.003	-0.0015	-61.5
-0.0091	-0.0008	-0.003	-0.0008	-61.2
-0.0046	0.0007	-0.003	-0.0008	-61.2
-0.0083	0	-0.0038	0	-61
-0.0091	0.0015	-0.0053	-0.0008	-61.1
-0.0113	0.0007	-0.0053	-0.0008	-61.1
-0.012	-0.0015	-0.0053	-0.0008	-61
-0.012	0.0015	-0.0053	0.0015	-60.9
-0.012	0.0015	-0.0053	0	-60.8
-0.0083	0.0015	-0.0068	-0.0008	-61
-0.012	0	-0.006	-0.0008	-60.8
-0.0225	-0.0015	-0.0053	0	-60.8
-0.027	0	-0.0046	0.0022	-60.6
-0.0128	-0.0015	-0.0046	0.0015	-60.5
-0.0046	0.0007	-0.0053	-0.0008	-60.5
0.0015	-0.0015	-0.003	-0.0023	-60.5
0.0127	-0.003	-0.0023	-0.0015	-60.4
0.015	-0.0008	0.0007	-0.0008	-60.3
0.0045	0.0007	0.003	-0.0008	-60.3
-0.0008	0.0007	0.003	-0.0015	-60.1
-0.0015	-0.0008	0.0007	-0.0015	-60.1
-0.0091	0.0007	-0.0008	0.0007	-60
-0.0113	0.0015	0.0015	-0.0008	-60
-0.0068	0.0007	0.003	-0.0008	-60
0.0052	0.0007	0.0045	0	-59.8
0.009	0.0015	0.0052	0.0015	-59.8
-0.012	0.0022	0.0067	0.0037	-59.8
-0.0098	0.0015	0.009	0.003	-59.8
0.003	0.0022	0.0082	0.0022	-59.6
0.0082	0.0007	0.0067	0.0007	-59.4
0.0142	0.0022	0.0045	0.0007	-59.5
0.033	0.0015	0.0052	-0.0015	-59.2
0.051	0.0007	0.0075	-0.003	-59.4
0.033	-0.0008	0.0075	-0.0015	-59.2
0.018	0	0.0067	0.0007	-59.2
0.0195	0.0015	0.0082	0.0015	-59
0.0157	0.0015	0.0112	0	-59
0.0142	0	0.0157	-0.0008	-58.9
0.0082	-0.0015	0.018	-0.0008	-58.9
-0.0053	0	0.0112	0.0022	-58.9
-0.0225	0.003	0.0082	0.0045	-58.6
-0.0218	0.0007	0.0052	0.0037	-58.7
-0.0091	-0.0008	0	0.003	-58.6
-0.012	-0.0008	-0.003	0	-58.6
-0.0158	-0.0008	-0.0015	-0.0015	-58.3
-0.0135	-0.0008	0.0022	-0.0023	-58.5
-0.0046	-0.003	0.0067	-0.003	-58.2
-0.0008	-0.003	0.009	-0.0015	-58.4
-0.0008	-0.0015	0.0105	-0.0015	-58.2
-0.0046	-0.0015	0.0082	0	-58.1
-0.0188	0.0007	0.003	0.0007	-58.1
-0.0105	0.0007	0.0007	-0.0008	-58.1
-0.003	0.0015	-0.0008	-0.0008	-57.9
-0.0046	0.0015	-0.0008	-0.0008	-57.9
0.0007	0.0007	-0.0008	-0.0015	-57.8
0.0082	0.0015	-0.0023	0.0007	-57.8
0.0097	0.0015	0	0.0037	-57.6
0.0007	0.003	-0.0046	0.0052	-57.8
0.0067	0.0037	-0.0068	0.003	-57.7
0.0277	0.0045	-0.0068	0.003	-57.6
0.027	0.0045	-0.0053	0.0015	-57.4
0	0.0045	-0.0046	0.0007	-57.4
0.003	0.0015	-0.003	0	-57.2
0.027	-0.0023	-0.003	-0.003	-57.3
0.0202	-0.0015	-0.0038	0.0007	-57
-0.0015	0.0007	-0.0046	0.003	-57.1
-0.0008	0.0022	-0.0053	0.0015	-56.9
0.0037	0.0007	-0.0091	0.0015	-57.2
-0.0053	0	-0.012	0.0015	-56.9
-0.0046	0	-0.0128	0.0007	-56.9
0.003	0	-0.015	0.0007	-56.8
0.0007	0	-0.0158	0.0015	-56.7
-0.0128	0.0015	-0.0165	0.0007	-56.7
-0.0368	0.0015	-0.0158	0.0015	-56.5
-0.0533	0.0015	-0.0181	0	-56.6
-0.0585	0.0007	-0.0203	0.0007	-56.4
-0.0465	0.0015	-0.0218	0.003	-56.6
-0.0128	0.0022	-0.0225	0.0007	-56.3
0.0097	0.0015	-0.024	0	-56.3
0.0367	0.0007	-0.0263	-0.0008	-56.3
0.057	0.0007	-0.0248	-0.003	-56.2
0.0637	-0.0023	-0.021	-0.0038	-56.3
0.078	-0.0046	-0.0165	-0.003	-56.1
0.0615	-0.0023	-0.0091	-0.0008	-56.1
0.0412	-0.0015	-0.0023	0.0015	-55.9
0.0225	-0.0015	0.0037	0.0015	-55.8
-0.0105	-0.0015	0.0075	-0.0008	-55.8
-0.0256	-0.0015	0.0045	-0.0008	-55.6
-0.0218	-0.0015	0.0015	-0.0008	-55.7
-0.0068	-0.0015	0.0022	-0.0023	-55.4
0.0022	-0.0038	0.003	-0.003	-55.4
0.0015	-0.0046	0.0052	-0.003	-55.2
-0.0015	-0.003	0.009	-0.0053	-55.4
0.0015	-0.003	0.0135	-0.003	-55.2
0.003	-0.0015	0.0135	-0.0008	-55.3
-0.003	-0.0008	0.012	0.0007	-55
-0.0091	0.0037	0.009	0.003	-54.9
-0.0165	0.0052	0.0082	0.0037	-54.9
-0.0203	0.0052	0.0082	0.0045	-54.8
-0.0256	0.0052	0.0097	0.0052	-54.9
-0.024	0.0045	0.0097	0.0052	-54.7
-0.0203	0.0067	0.0067	0.0052	-54.7
-0.0188	0.0045	0.0075	0.0052	-54.6
-0.0158	0.0052	0.0082	0.0045	-54.5
-0.0165	0.0037	0.009	0.0037	-54.5
-0.0128	0.0015	0.0127	0.003	-54.5
-0.0083	0.0022	0.012	0.0015	-54.5
-0.003	0	0.012	0	-54.3
0.0022	-0.0015	0.012	-0.0015	-54.4
0.003	-0.0015	0.0127	-0.0015	-54.1
0.003	0	0.0165	-0.0008	-54.2
0.006	-0.0008	0.018	-0.0015	-54
0.012	-0.0023	0.0157	-0.0015	-54.1
0.0037	-0.0046	0.0142	-0.0008	-53.9
-0.0075	-0.0046	0.0157	-0.0023	-54
-0.0091	-0.0053	0.0165	-0.003	-53.9
-0.012	-0.0053	0.0172	-0.0046	-53.9
-0.0128	-0.0046	0.0195	-0.0046	-53.8
-0.0105	-0.0053	0.0202	-0.0046	-53.7
-0.0008	-0.0046	0.0255	-0.0046	-53.6
0.0037	-0.003	0.0307	-0.0015	-53.6
-0.006	0.0007	0.03	0	-53.6
-0.0046	0.0007	0.0292	0.0015	-53.3
0.0052	0.0007	0.0262	0.0015	-53.5
0.0172	0.0037	0.0232	0.0022	-53.2
0.024	0.0052	0.018	0.0052	-53.2
0.0172	0.0067	0.009	0.0067	-53.2
0.015	0.0067	0.003	0.006	-53
0.0045	0.006	-0.0008	0.006	-53.2
-0.015	0.0052	-0.0038	0.0045	-52.9
-0.0158	0.0037	-0.0098	0.0045	-53.1
-0.0218	0.0022	-0.0165	0.0007	-52.9
-0.0315	0.0007	-0.0181	-0.0015	-52.8
-0.0308	-0.0008	-0.0233	-0.0023	-52.9
-0.0195	-0.0008	-0.0233	-0.0015	-52.7
-0.0053	-0.0015	-0.0203	-0.003	-52.7
0.0082	-0.003	-0.0218	-0.0046	-52.4
0.0202	-0.003	-0.0195	-0.0046	-52.6
0.0232	-0.003	-0.0158	-0.0015	-52.3
0.0217	-0.0023	-0.0165	-0.0008	-52.6
0.0202	-0.003	-0.0165	0.0007	-52.2
0.0172	-0.003	-0.0165	0	-52.4
0.0075	-0.0015	-0.0181	-0.0008	-52.1
0.0127	-0.0008	-0.0158	-0.0015	-52.3
0.0247	-0.0015	-0.0105	-0.0015	-51.9
0.027	-0.0008	-0.0053	-0.003	-52
0.0172	0	0.0037	-0.0023	-51.9
-0.0023	0	0.018	-0.0008	-51.8
-0.0075	0.003	0.027	-0.0008	-51.8
-0.0046	0.003	0.0217	0.0007	-51.8
-0.0053	0.0007	0.0172	-0.003	-51.5
-0.0195	0.0015	0.0082	-0.0015	-51.5
-0.0256	0.0015	-0.0068	0.0007	-51.4
-0.0128	0.003	-0.0195	0	-51.5
-0.012	0.0045	-0.0256	0.0022	-51.5
-0.0143	0.0052	-0.0173	0.003	-51.4
-0.0203	0.006	-0.0068	0.0037	-51.1
-0.0068	0.0022	-0.0008	0.0015	-51.3
0.0232	-0.0008	0.0007	0.0015	-50.9
0.003	0	0.003	0.0052	-50.9
-0.0218	0.0022	0.003	0.0067	-50.7
-0.0046	0.0052	-0.0091	0.0037	-50.9
0.0157	0.0015	-0.0203	0.0007	-50.8
0.0225	-0.0015	-0.021	0.0007	-50.7
0.0052	-0.0008	-0.0195	0.0007	-50.6
-0.0083	-0.0008	-0.012	0.0015	-50.6
-0.0053	-0.0008	-0.003	-0.0008	-50.4
0.018	-0.003	0.003	-0.0023	-50.4
0.0517	-0.0038	0.0097	-0.003	-50.3
0.0517	-0.003	0.0172	-0.0023	-50.3
0.0367	-0.003	0.0217	-0.0015	-50.2
0.0195	0	0.024	0.0015	-50
0.0105	-0.0008	0.027	0.0015	-50
0.009	0.0007	0.0315	0.0007	-50
0.0007	-0.0015	0.0322	-0.0015	-49.7
-0.0053	-0.003	0.027	-0.0015	-50
-0.015	0.0007	0.0232	0.0007	-49.6
-0.027	0	0.0232	0.0007	-49.8
-0.0338	0.0007	0.0202	0.0007	-49.5
-0.0428	0.0015	0.0165	0.003	-49.7
-0.042	0.0045	0.0105	0.006	-49.5
-0.033	0.0052	0.0097	0.0052	-49.3
-0.0203	0.003	0.012	0.0052	-49.4
-0.0053	0.003	0.0202	0.0052	-49.2
0.0105	0.003	0.0375	0.0037	-49.2
0.0277	0.0015	0.0502	0.0015	-49
0.0382	0	0.0532	-0.0015	-49
0.0307	-0.0015	0.0465	-0.0008	-48.8
0.0127	-0.0015	0.039	-0.0008	-48.7
-0.0233	-0.0008	0.033	0.0007	-48.6
-0.0518	0	0.0135	0.0007	-48.6
-0.0443	-0.0015	-0.0091	-0.0023	-48.6
-0.033	-0.0038	-0.024	-0.003	-48.4
-0.0315	-0.0046	-0.0368	-0.0046	-48.4
-0.0263	-0.003	-0.0443	-0.003	-48.2
-0.0368	-0.0015	-0.0518	0	-48.3
-0.0473	0	-0.0563	-0.0008	-48.2
-0.0165	0	-0.057	-0.0015	-48.1
0.033	-0.0008	-0.0578	-0.003	-47.9
0.054	0.0007	-0.0563	-0.003	-47.7
0.045	0.003	-0.054	0.0015	-47.7
0.0285	0.0037	-0.0488	0.003	-47.7
0.0007	0.003	-0.042	0.003	-47.7
-0.0173	-0.0008	-0.0383	0.0007	-47.4
0.0045	-0.0015	-0.0368	-0.0015	-47.7
0.0082	-0.0008	-0.0338	0.0007	-47.3
-0.0173	0.0015	-0.0346	0.0015	-47.5
-0.0293	0.0015	-0.0368	0	-47.2
-0.0233	-0.0008	-0.0405	-0.0008	-47.3
-0.0158	-0.0015	-0.0428	0.0015	-47.1
0.0045	-0.003	-0.042	-0.0008	-47.1
0.0255	-0.0008	-0.0413	-0.0015	-46.9
0.0352	0.0007	-0.0346	-0.0008	-46.9
0.0427	0.0007	-0.0263	0.0007	-46.7
0.0157	0.0052	-0.0225	0.003	-46.8
-0.0135	0.006	-0.0203	0.0045	-46.7
-0.0143	0.0052	-0.0203	0.0052	-46.5
-0.0128	0.0052	-0.0203	0.0045	-46.6
-0.0046	0.003	-0.0188	0.0015	-46.4
-0.0015	0.0007	-0.0158	0.0015	-46.4
-0.0015	0.0007	-0.0128	0.0007	-46.4
0.003	-0.0015	-0.0105	-0.0015	-46.3
0.0052	-0.0023	-0.0091	-0.003	-46.2
0.0082	-0.0023	-0.006	-0.0046	-46.1
0.0105	-0.0046	-0.006	-0.006	-46
0.009	-0.0046	-0.003	-0.0053	-45.9
0.006	-0.0038	-0.0023	-0.003	-45.9
0.0022	-0.0015	-0.0015	-0.0015	-45.6
-0.0015	0.0007	0.0007	-0.0008	-45.7
-0.0053	0.0015	0.0022	0.0037	-45.5
0.0007	0.0045	0.0037	0.0082	-45.5
-0.0008	0.0075	0.0037	0.0082	-45.5
-0.003	0.0067	0.0015	0.0067	-45.3
0.0037	0.0045	0.0052	0.0045	-45.3
0.0097	0.003	0.0067	0.0045	-45.1
0.0202	0.0015	0.009	0.0015	-45.1
0.0217	0.0007	0.0127	0	-44.9
0.0142	0.0007	0.015	0.0007	-45
0.0097	-0.0008	0.0142	-0.0015	-44.8
-0.0008	-0.0023	0.012	-0.0023	-44.8
-0.0173	-0.003	0.012	-0.0038	-44.7
-0.0203	-0.0038	0.0105	-0.0053	-44.6
-0.0188	-0.003	0.0097	-0.0023	-44.6
-0.0158	-0.0038	0.0067	-0.0038	-44.4
0.0045	-0.0023	0.0052	-0.003	-44.4
0.021	0.0007	0.0037	-0.0008	-44.3
0.0187	0.0022	-0.0023	0.0007	-44.3
0.015	0.0007	-0.003	-0.0015	-44.2
0.0142	0.0007	-0.0008	0.0022	-44
0.0142	0.0037	0.0007	0.0052	-44
-0.0015	0.0007	-0.0015	0.0015	-43.9
-0.0225	-0.0008	0.0007	-0.0008	-44
-0.0181	-0.003	0.0045	-0.003	-43.6
-0.0068	-0.003	0.009	-0.0046	-43.8
0.0142	-0.003	0.0142	-0.0046	-43.4
0.0315	-0.0008	0.0165	-0.0008	-43.7
0.012	0.0067	0.0217	0.0052	-43.3
-0.0046	0.009	0.0277	0.0067	-43.5
-0.0046	0.0075	0.0262	0.0052	-43.2
-0.0038	0.0045	0.0232	0.0045	-43.2
0.0045	0.0022	0.027	0.003	-43.2
0.0082	0.0007	0.0307	0.0015	-43.1
0.0195	0	0.0345	-0.003	-43.1
0.0382	-0.0008	0.0412	-0.003	-42.8
0.0457	0.0007	0.0427	-0.0008	-42.9
0.0277	0.0015	0.0382	-0.0015	-42.8
-0.0008	-0.0008	0.027	-0.0015	-42.6
-0.0203	-0.0038	0.0135	-0.0046	-42.5
-0.048	-0.0068	0.0045	-0.006	-42.5
-0.0668	-0.0075	0.003	-0.0075	-42.4
-0.0518	-0.0091	0.0172	-0.0091	-42.3
-0.0293	-0.0068	0.0442	-0.0053	-42.3
0.0007	-0.0023	0.0705	-0.0038	-42
0.063	-0.003	0.0645	-0.003	-42.1
0.114	-0.0015	0.0457	-0.0008	-41.8
0.0817	0.003	0.0315	0.0045	-41.9
0.0105	0.006	0.0097	0.009	-41.9
-0.0105	0.0075	-0.0015	0.0082	-41.8
-0.0143	0.0067	-0.0105	0.0067	-41.8
-0.0278	0.0052	-0.0203	0.0037	-41.6
-0.0383	0.0052	-0.021	0.003	-41.5
-0.0405	0.0015	-0.0173	0.003	-41.4
-0.0263	0.0015	-0.0105	0.0015	-41.4
-0.012	0.003	-0.0083	0.0015	-41.1
0.0187	0.003	-0.0143	0.0007	-41.2
0.0532	0.0045	-0.0188	0.0015	-40.9
0.045	0.003	-0.0195	0.0015	-41.1
0.0277	0.0015	-0.0203	0.0015	-40.9
0.0165	0.0022	-0.0203	0.0037	-40.9
-0.0218	0.003	-0.0218	0.0045	-40.6
-0.0473	0.0045	-0.0203	0.0052	-40.7
-0.0578	0.0037	-0.0203	0.0045	-40.6
-0.0398	0.0007	-0.0218	0.0015	-40.5
-0.006	-0.0008	-0.0165	0.0007	-40.3
-0.0173	-0.0023	-0.015	0	-40.3
-0.0046	-0.0038	-0.0135	-0.0023	-40.3
-0.0075	-0.0046	-0.012	-0.0038	-40.2
-0.0458	-0.0046	-0.012	-0.0038	-40
-0.0383	-0.0046	-0.012	-0.0038	-40
-0.0233	-0.0053	-0.0068	-0.0046	-39.7
-0.0256	-0.006	-0.0008	-0.0068	-39.7
-0.033	-0.0075	0.0045	-0.0083	-39.6
-0.0181	-0.0068	0.0067	-0.0068	-39.5
0.0067	-0.0053	0.0052	-0.0068	-39.4
0.0195	-0.0053	0.0045	-0.0053	-39.4
0.0195	-0.003	0.0075	-0.003	-39.2
0.0225	0.0007	0.0112	0.003	-39.3
0.0195	0.0067	0.0127	0.009	-39.1
-0.003	0.0112	0.0157	0.0112	-39
-0.0068	0.0105	0.0157	0.0105	-39
0.0082	0.0105	0.0135	0.0105	-38.8
0.0037	0.0097	0.0127	0.012	-38.8
0.0007	0.0097	0.0067	0.012	-38.6
0.0097	0.009	0.0045	0.0105	-38.7
0.0022	0.0075	-0.0023	0.0097	-38.6
-0.0008	0.0045	-0.0068	0.006	-38.4
-0.003	0.003	-0.0105	0.0015	-38.3
-0.003	-0.0015	-0.015	-0.003	-38.2
-0.0083	-0.0046	-0.0143	-0.0046	-38.3
-0.024	-0.003	-0.0128	-0.003	-37.8
-0.0128	-0.0046	-0.012	-0.0038	-38.1
-0.0008	-0.0046	-0.0113	-0.003	-37.8
-0.0091	-0.0046	-0.0091	-0.0068	-38
-0.0256	-0.0053	-0.0083	-0.0083	-37.8
-0.0338	-0.0068	-0.0068	-0.0068	-37.7
-0.0128	-0.0068	-0.0068	-0.0083	-37.5
0.0165	-0.0068	-0.006	-0.0098	-37.4
0.0442	-0.0091	-0.003	-0.0135	-37.4
0.0757	-0.0083	0.0007	-0.015	-37.2
0.0862	-0.0053	0.0052	-0.012	-37.3
0.0592	0	0.0112	-0.0053	-37.1
0.012	0.0045	0.0105	0.0037	-37.1
-0.012	0.0067	0.0067	0.0082	-36.9
-0.0248	0.0105	0.006	0.0127	-36.9
-0.0323	0.0127	-0.003	0.0127	-36.9
-0.027	0.012	-0.0098	0.0127	-36.7
-0.0361	0.0082	-0.0128	0.0127	-36.8
-0.0173	0.0045	-0.0203	0.0075	-36.6
0.0157	0.0007	-0.0218	0.0052	-36.6
0.0465	0.0007	-0.0173	0.0045	-36.4
0.0502	-0.0008	-0.0135	0.0007	-36.5
0.0135	-0.0015	-0.012	-0.0015	-36.3
-0.0165	-0.003	-0.0135	-0.0015	-36.1
-0.033	-0.0038	-0.0105	-0.0023	-36.3
-0.0218	-0.0053	-0.0075	-0.006	-36
-0.0046	-0.0091	-0.0008	-0.0098	-36
0.0045	-0.0098	0.0007	-0.0128	-35.8
0.0142	-0.012	0.003	-0.0165	-36
0.0247	-0.0143	0.0052	-0.0203	-35.7
0.0405	-0.0128	0.0015	-0.0181	-35.7
0.0472	-0.0083	0.003	-0.0128	-35.5
0.0502	-0.0046	0.006	-0.0105	-35.6
0.0487	-0.0008	0.009	-0.0053	-35.4
0.0322	0.0075	0.0112	0.0045	-35.4
0.015	0.0142	0.012	0.0135	-35.2
-0.0068	0.0202	0.0142	0.0187	-35.2
-0.027	0.021	0.0135	0.0217	-35.1
-0.0398	0.0187	0.0127	0.0217	-35.1
-0.0495	0.015	0.0105	0.0202	-35.1
-0.0555	0.0105	0.0075	0.0165	-34.8
-0.0548	0.009	0.006	0.0127	-34.9
-0.054	0.0082	0.0052	0.012	-34.7
-0.0428	0.0067	0.0007	0.009	-34.8
-0.0008	0.003	-0.0068	0.0067	-34.7
0.018	-0.0038	-0.0098	0.003	-34.7
0.018	-0.0053	-0.0015	-0.0008	-34.6
0.0255	-0.0068	0.0157	-0.0015	-34.5
-0.0293	-0.0075	0.0367	-0.0046	-34.3
-0.1065	-0.0068	0.0442	-0.0046	-34.2
-0.0915	-0.0075	0.0307	-0.0091	-34.3
0.0315	-0.012	0.0105	-0.0105	-34.2
0.075	-0.0105	-0.0091	-0.0068	-34.2
0.018	-0.0046	-0.021	-0.003	-34.2
0.021	-0.003	-0.0353	-0.003	-34
0.042	-0.003	-0.0428	-0.0038	-34
0.054	-0.0038	-0.0338	-0.0046	-34
0.0802	-0.0008	-0.0195	-0.0046	-34
0.0982	-0.0008	-0.0038	-0.0053	-33.7
0.0667	0.0007	0.0045	-0.0015	-33.7
0.012	0.003	0.009	0.0015	-33.4
-0.006	0.0037	0.0105	0.0037	-33.5
-0.006	0.0037	0.0105	0.0045	-33.4
-0.0158	0.0052	0.0082	0.0037	-33.4
-0.0195	0.003	0.0037	0.0015	-33.3
-0.0263	0.0022	0.0007	0.0015	-33.2
-0.0308	0.0015	-0.0015	-0.0015	-33
-0.0285	-0.0008	-0.0015	-0.0023	-32.9
-0.0383	-0.0008	0.0015	-0.0015	-33
-0.0465	-0.0008	0.0052	-0.0008	-32.9
-0.0473	0	0.0067	-0.0008	-32.7
-0.0405	0.0015	0.009	0.0007	-32.8
-0.021	0	0.012	0.0007	-32.5
0.021	-0.0015	0.0142	-0.0008	-32.6
0.0577	-0.0015	0.018	-0.0038	-32.4
0.0675	-0.0023	0.0232	-0.0038	-32.4
0.036	-0.0008	0.0292	0.0007	-32.3
-0.0218	0.0045	0.0292	0.003	-32.3
-0.0308	0.003	0.0307	0.0007	-32.2
-0.024	-0.0008	0.033	-0.0015	-32.2
-0.039	-0.0015	0.0255	-0.0015	-32
-0.0218	-0.0046	0.0157	-0.0053	-32
-0.0053	-0.0068	0.009	-0.0068	-31.8
-0.0046	-0.0068	0.006	-0.0083	-31.9
0.0015	-0.0083	0.0007	-0.0098	-31.8
0.009	-0.0068	-0.0053	-0.0091	-31.8
0.015	-0.0046	-0.0068	-0.006	-31.7
0.0015	-0.0008	-0.0083	-0.0015	-31.5
-0.0105	0.0052	-0.0105	0.0052	-31.5
-0.015	0.0105	-0.0105	0.0105	-31.5
-0.024	0.0142	-0.0105	0.012	-31.5
-0.0263	0.015	-0.0046	0.012	-31.4
-0.03	0.012	-0.0008	0.0112	-31.1
-0.0323	0.0105	-0.0046	0.0105	-31.2
-0.033	0.0105	-0.0075	0.0097	-31.1
-0.039	0.0067	-0.0068	0.0082	-31.1
-0.0405	0.0045	-0.0105	0.0052	-30.9
-0.0338	0.0007	-0.0083	0.0022	-31
-0.0285	-0.0015	-0.0068	0.0007	-30.7
0.0067	-0.0015	-0.0046	0.0007	-30.9
0.0405	-0.0015	-0.0008	0	-30.6
0.021	-0.0015	-0.0008	-0.0015	-30.7
0.033	-0.0046	-0.0015	-0.0038	-30.5
0.0232	-0.0053	-0.0008	-0.0046	-30.5
-0.0091	-0.0075	-0.0015	-0.0083	-30.3
0.0105	-0.0091	-0.0046	-0.0105	-30.2
0.03	-0.0098	-0.003	-0.0105	-30.5
0.0555	-0.0075	-0.0008	-0.0068	-30.2
0.0502	-0.003	0.0007	-0.0046	-30.3
0.0337	-0.0023	-0.0015	-0.006	-30.1
0.018	-0.0008	-0.0068	-0.0053	-30.1
-0.0143	-0.003	-0.012	-0.0068	-30.2
-0.0233	-0.0053	-0.0181	-0.0075	-30
-0.0293	-0.0053	-0.0203	-0.0015	-30
0.006	0	-0.0263	0.0022	-29.8
0.051	0.0052	-0.0346	0.0067	-29.8
0.0412	0.009	-0.033	0.009	-29.7
0.03	0.0112	-0.0278	0.0097	-29.8
0.0405	0.009	-0.03	0.0082	-29.7
0.0592	0.0067	-0.0353	0.006	-29.7
0.0472	0.006	-0.0361	0.006	-29.6
0.0232	0.003	-0.0398	-0.0008	-29.4
0.0262	-0.0015	-0.0436	-0.0008	-29.5
0.0037	0.0015	-0.0428	0.0015	-29.3
-0.0398	0.003	-0.0353	-0.006	-29.4
-0.033	0	-0.0315	-0.0128	-29.3
-0.0046	-0.0038	-0.0256	-0.0158	-29.2
-0.0015	-0.0091	-0.0158	-0.0181	-29.2
0.0015	-0.0113	-0.0128	-0.0165	-29.2
0	-0.012	-0.0105	-0.0158	-29.1
0.0015	-0.0128	-0.0091	-0.012	-28.9
0.0007	-0.0091	-0.0098	-0.0068	-29
-0.0113	-0.0046	-0.0068	-0.0023	-28.7
-0.0278	-0.0015	-0.0023	0.0007	-28.8
-0.0638	0.003	-0.003	0.0067	-28.8
-0.0945	0.012	-0.006	0.015	-28.8
-0.1125	0.0165	-0.0053	0.0195	-28.5
-0.1006	0.0142	-0.0083	0.0202	-28.5
-0.0428	0.0157	-0.012	0.024	-28.5
0.0195	0.0165	-0.015	0.024	-28.4
0.0532	0.0142	-0.0128	0.0225	-28.5
0.0427	0.009	-0.0098	0.0195	-28.3
0.0195	0.003	-0.0068	0.0127	-28.5
0.0225	-0.0023	0	0.009	-28.1
0.024	-0.0046	0.009	0.003	-28.2
0.0007	-0.0113	0.018	-0.0053	-28
-0.0143	-0.015	0.0217	-0.0075	-28
-0.0105	-0.012	0.0232	-0.0068	-27.9
-0.0158	-0.0113	0.0142	-0.0091	-28
-0.0105	-0.0091	0.0052	-0.0098	-27.9
0.0052	-0.0105	0.0075	-0.0143	-27.8
0.0202	-0.0105	0.012	-0.0181	-27.7
0.0585	-0.0113	0.0172	-0.0195	-27.9
0.0765	-0.0083	0.0225	-0.0165	-27.7
0.0502	-0.0015	0.0247	-0.0068	-27.5
0.0277	0.0045	0.027	0.003	-27.7
0.0067	0.0127	0.0307	0.009	-27.6
-0.0203	0.018	0.0315	0.015	-27.3
-0.0315	0.0202	0.0292	0.0195	-27.5
-0.0436	0.0202	0.0247	0.0202	-27.3
-0.0533	0.0165	0.0225	0.0157	-27.5
-0.0608	0.012	0.0195	0.012	-27.1
-0.0833	0.0067	0.0157	0.0105	-27.2
-0.1133	0.0015	0.0157	0.0052	-27
-0.1193	-0.0008	0.0135	0.0052	-27.3
-0.1006	0.0007	0.0127	0.0082	-26.9
-0.0668	0.003	0.0127	0.009	-26.9
0.006	-0.0008	0.0067	0.0067	-27
0.0855	-0.0046	-0.0023	0.0045	-27
0.1155	-0.0046	-0.0083	0.0007	-27
0.1005	-0.006	0	-0.0046	-26.6
0.0765	-0.0068	0.012	-0.0046	-26.9
0.0157	-0.006	0.0127	-0.0038	-26.6
-0.027	-0.0053	0.0127	-0.006	-26.7
-0.0083	-0.0053	0.0142	-0.0075	-26.6
-0.003	-0.0053	0.0157	-0.0113	-26.6
0.0217	-0.0091	0.0142	-0.0158	-26.5
0.0375	-0.0128	0.0142	-0.0203	-26.5
0.042	-0.0165	0.0097	-0.0248	-26.4
0.0705	-0.0195	0.0067	-0.0293	-26.2
0.0817	-0.0195	0.0112	-0.0263	-26.3
0.0742	-0.0098	0.018	-0.0158	-26.2
0.033	0.0022	0.0232	-0.003	-26.1
-0.003	0.0127	0.0232	0.0097	-26.2
-0.0278	0.0232	0.0202	0.018	-26.1
-0.0488	0.0292	0.0157	0.024	-26.1
-0.0585	0.0277	0.009	0.0255	-26
-0.0668	0.024	0.003	0.0225	-26
-0.0735	0.018	-0.0068	0.0202	-25.9
-0.0788	0.012	-0.0098	0.0142	-26.1
-0.0758	0.0067	-0.0143	0.009	-25.9
-0.0721	0.0015	-0.0203	0.0045	-25.8
-0.054	-0.003	-0.0233	0.0007	-25.7
0.0082	-0.0068	-0.0256	-0.0046	-25.8
0.039	-0.0098	-0.0263	-0.0053	-25.7
-0.0225	-0.0083	-0.0293	-0.0023	-25.5
-0.012	-0.006	-0.0256	-0.0015	-25.7
0.0667	-0.0038	-0.0165	-0.0008	-25.6
0.054	-0.0053	-0.0113	-0.0015	-25.5
0.0772	-0.0075	-0.0098	-0.0053	-25.5
0.0802	-0.0075	-0.0023	-0.0083	-25.4
-0.0173	-0.0075	0.0015	-0.0135	-25.4
-0.0075	-0.012	0	-0.0195	-25.2
0.0427	-0.0165	-0.0008	-0.0203	-25.3
0.0345	-0.015	-0.0053	-0.0181	-25.2
0.039	-0.0128	-0.0083	-0.015	-25.5
0.018	-0.0068	-0.0098	-0.0083	-25.2
-0.0083	-0.0008	-0.0068	-0.0015	-25.3
-0.0218	0.0052	-0.006	0.003	-25
-0.0338	0.0112	-0.0091	0.0105	-25.2
-0.0458	0.0142	-0.0165	0.0142	-24.9
-0.0706	0.0157	-0.0256	0.0157	-25.2
-0.0706	0.0142	-0.0278	0.0165	-25
-0.0518	0.015	-0.0308	0.015	-24.9
-0.0158	0.012	-0.0293	0.012	-24.9
0.0195	0.0097	-0.027	0.0075	-24.9
0.057	0.0052	-0.0256	0.0022	-24.8
0.0615	0.003	-0.0173	0.0007	-24.9
0.003	0.0037	-0.0075	0.003	-24.8
-0.0323	0.003	-0.0008	0.0007	-24.8
-0.0158	0.0015	0.0007	-0.0008	-24.5
0.012	-0.0023	0.0015	-0.0023	-24.6
0.024	-0.006	0.0045	-0.0068	-24.6
0.0015	-0.0091	0.0045	-0.0083	-24.6
-0.0128	-0.0105	0.0075	-0.0105	-24.4
0.0045	-0.0143	0.0015	-0.0135	-24.5
0.021	-0.015	-0.0046	-0.0143	-24.3
0.036	-0.012	-0.003	-0.0128	-24.5
0.069	-0.0113	-0.0023	-0.0098	-24.4
0.0862	-0.0075	-0.0008	-0.0053	-24.5
0.0465	-0.0015	-0.0015	-0.0015	-24.4
0.0202	0.0022	-0.0008	0.0052	-24.3
-0.0015	0.0082	0.0007	0.012	-24.3
-0.0383	0.0105	0.0015	0.0142	-24
-0.0278	0.0082	0.0007	0.0112	-24.3
-0.0263	0.0052	-0.0023	0.006	-24
-0.0203	0.0007	0.0007	0.0007	-24.3
-0.0165	-0.003	0.0015	-0.0053	-23.9
-0.03	-0.0083	-0.0008	-0.0098	-24.1
-0.021	-0.0105	0.0007	-0.012	-23.9
-0.0053	-0.0068	0.0022	-0.006	-24
0.0277	0.0007	0.003	-0.0015	-23.9
0.0547	0.0082	0.0007	0.003	-23.9
0.042	0.0105	-0.0008	0.009	-24
0.0045	0.0142	-0.0008	0.0105	-23.8
-0.0158	0.0127	-0.0046	0.009	-23.9
-0.012	0.0105	-0.0083	0.0082	-23.9
-0.0038	0.0067	-0.0113	0.0052	-23.9
0.0015	0.0037	-0.0165	0.0045	-23.9
-0.0053	0.0015	-0.0233	0.003	-23.6
-0.0113	0	-0.0308	0.003	-23.8
-0.0083	-0.0015	-0.0361	0.003	-23.6
0.0015	-0.003	-0.0368	-0.0008	-23.8
0.0142	-0.003	-0.033	-0.003	-23.7
0.0157	-0.0053	-0.0293	-0.003	-23.8
0.0045	-0.006	-0.0263	-0.003	-23.7
-0.003	-0.003	-0.0256	-0.003	-23.6
-0.0083	-0.0008	-0.0233	-0.0038	-23.5
-0.015	0.0007	-0.0135	-0.0015	-23.6
-0.0248	0.0007	-0.0023	0.0007	-23.5
-0.0353	-0.0008	0.0082	0	-23.2
-0.0428	-0.0015	0.018	-0.0008	-23.4
-0.0503	-0.0053	0.027	-0.003	-23.3
-0.0248	-0.0068	0.0352	-0.0046	-23.4
0.012	-0.0038	0.045	-0.0046	-23.3
0.024	-0.0015	0.057	-0.003	-23.4
0.042	-0.0008	0.063	-0.003	-23.4
0.018	0.0015	0.0667	0.0007	-23.1
-0.033	0.0022	0.0652	0.0007	-23.3
-0.0008	0.003	0.0637	0.003	-23.1
0.0165	0.003	0.0645	0.0022	-23.1
-0.0046	0	0.0637	-0.0046	-23.1
0.0172	-0.003	0.0637	-0.0068	-23.3
0.024	-0.003	0.06	-0.0046	-23
0.0307	0	0.0517	0	-23.2
0.0367	0.0022	0.0465	0.003	-23
0.0307	0.003	0.042	0.0015	-23.2
0.024	0.0045	0.0345	0.0015	-23
-0.0023	0.0045	0.0285	0.003	-23
-0.0248	0.0045	0.024	0.0045	-22.9
-0.0495	0.006	0.0202	0.0067	-23
-0.0668	0.0067	0.0165	0.0097	-23
-0.0593	0.0067	0.012	0.0105	-22.9
-0.0293	0.0045	0.0075	0.0082	-22.8
-0.0203	0.0037	0.0045	0.006	-22.8
-0.0398	0.003	-0.003	0.0045	-22.9
-0.027	0.0015	-0.0083	0.003	-22.8
-0.0256	0.0015	-0.012	0.0007	-22.8
-0.0233	-0.0015	-0.0128	-0.0015	-23
0.0487	-0.006	-0.0128	-0.0053	-22.8
0.069	-0.0053	-0.0105	-0.0083	-23
0.0172	-0.0091	-0.0075	-0.0128	-22.8
0.0195	-0.0113	-0.0053	-0.012	-22.9
0.0172	-0.0046	-0.0053	-0.0038	-22.8
0.0022	-0.0015	-0.0083	-0.0046	-22.8
0.027	0.0007	-0.0105	0	-22.8
0.027	0.0052	-0.0105	0.0037	-22.9
0.0195	0.0045	-0.0091	0.0045	-23
0.0105	0.0045	-0.0083	0.0082	-22.6
-0.0046	0.003	-0.0046	0.009	-22.8
-0.0203	0.0052	-0.0038	0.012	-22.6
-0.0428	0.0105	-0.0083	0.0172	-22.9
-0.0368	0.012	-0.0083	0.0195	-22.6
-0.0473	0.012	-0.012	0.018	-22.7
-0.0578	0.0105	-0.0165	0.015	-22.6
-0.0383	0.0075	-0.0195	0.0127	-22.7
-0.0278	0.0045	-0.0256	0.0105	-22.6
-0.0158	0.0007	-0.0278	0.0082	-22.5
0.0172	-0.003	-0.0285	0.003	-22.7
0.0232	-0.006	-0.0285	0.0015	-22.8
-0.0046	-0.0083	-0.0293	-0.0008	-22.7
0.0097	-0.0083	-0.0256	-0.0015	-22.7
0	-0.0068	-0.0225	-0.0015	-22.6
-0.0315	-0.0083	-0.0195	-0.0038	-22.7
-0.0308	-0.0083	-0.0143	-0.0046	-22.5
-0.0068	-0.0091	-0.0188	-0.0068	-22.8
0.0292	-0.0113	-0.0233	-0.0083	-22.5
0.0367	-0.0068	-0.027	-0.0008	-22.6
0.0862	0	-0.0315	0.003	-22.5
0.147	0.0007	-0.0315	0.0052	-22.6
0.0892	0.0015	-0.0346	0.0052	-22.5
0.0097	0.0007	-0.0256	0.006	-22.6
0.009	0.003	-0.0143	0.009	-22.6
0.0037	0.006	-0.012	0.0105	-22.7
-0.0015	0.0082	-0.0091	0.009	-22.6
0.0202	0.0082	-0.0068	0.0067	-22.6
0.0105	0.006	-0.0053	0.0015	-22.6
0.024	0.003	-0.006	-0.003	-22.7
0.0367	-0.0015	-0.0075	-0.0068	-22.5
0.033	-0.0023	-0.0038	-0.012	-22.5
0.0405	-0.003	0.0022	-0.0135	-22.4
0.0285	-0.0023	0.0067	-0.012	-22.5
0.0135	0.0022	0.0105	-0.0068	-22.5
-0.006	0.0052	0.0112	0.0007	-22.5
-0.0315	0.009	0.0075	0.0082	-22.4
-0.06	0.0127	-0.0008	0.0157	-22.6
-0.0765	0.0165	-0.0053	0.018	-22.3
-0.0871	0.0172	-0.0075	0.0202	-22.6
-0.0885	0.0165	-0.0075	0.018	-22.5
-0.0765	0.0112	-0.012	0.012	-22.7
-0.057	0.0067	-0.0135	0.009	-22.5
-0.0338	0.0082	-0.0128	0.006	-22.6
-0.042	0.0052	-0.012	0.0007	-22.5
-0.054	0.0007	-0.0075	-0.0038	-22.5
-0.021	-0.0015	-0.0046	-0.003	-22.4
0.027	-0.0023	-0.0068	-0.0046	-22.5
0.0352	-0.0068	-0.0083	-0.0091	-22.6
0.0547	-0.0105	0.0007	-0.0143	-22.2
0.069	-0.012	0.0105	-0.0165	-22.5
0.0367	-0.0098	0.012	-0.0173	-22.5
0.0352	-0.0083	0.0112	-0.0158	-22.5
0.0337	-0.003	0.0127	-0.0105	-22.5
0.018	0.003	0.0127	-0.0038	-22.4
0.018	0.0075	0.009	0.0007	-22.5
-0.0015	0.012	0.0052	0.0037	-22.4
-0.0068	0.0127	0.0067	0.0052	-22.5
-0.0068	0.0105	0.0067	0.0052	-22.3
-0.024	0.0082	0.0052	0.0052	-22.5
-0.0495	0.006	0.0015	0.0037	-22.5
-0.0593	0.0045	-0.0053	0.003	-22.5
-0.0548	0.0037	-0.0128	0.0015	-22.5
-0.0548	0.0045	-0.0165	0.0007	-22.3
-0.0233	0.003	-0.0143	-0.0046	-22.5
-0.0256	0.0007	-0.0023	-0.0083	-22.3
-0.03	-0.0023	0.0097	-0.0091	-22.4
0.0307	-0.0046	0.024	-0.0075	-22.3
0.045	-0.0068	0.0367	-0.0098	-22.6
0.0262	-0.0105	0.0307	-0.0165	-22.3
0.0322	-0.012	0.0285	-0.0173	-22.4
0.0247	-0.0098	0.0382	-0.0158	-22.4
0.0127	-0.0083	0.0352	-0.0181	-22.5
0.0427	-0.0113	0.0277	-0.0218	-22.5
0.0682	-0.012	0.0165	-0.0218	-22.3
0.0562	-0.0068	0.012	-0.0165	-22.3
0.0315	-0.003	0.0082	-0.015	-22.4
0.0157	0.0015	0.0007	-0.0098	-22.3
0.0112	0.0082	-0.0038	-0.0053	-22.4
-0.0068	0.0105	-0.0075	-0.0008	-22.5
-0.0128	0.0142	-0.0068	0.0045	-22.5
-0.0195	0.0142	-0.0038	0.0082	-22.3
-0.0203	0.0127	-0.0008	0.009	-22.5
-0.0181	0.0112	-0.0015	0.0082	-22.3
-0.0256	0.0082	-0.0038	0.0067	-22.4
-0.033	0.0052	-0.0015	0.0052	-22.4
-0.0436	-0.0008	-0.0008	0.003	-22.4
-0.0375	-0.0038	-0.0008	0.0007	-22.4
-0.027	-0.0053	-0.0008	-0.003	-22.5
-0.015	-0.0091	-0.0068	-0.0068	-22.4
-0.0083	-0.0105	-0.0105	-0.0075	-22.5
-0.0128	-0.012	-0.012	-0.0105	-22.5
-0.0143	-0.012	-0.012	-0.0105	-22.5
-0.0046	-0.0128	-0.0143	-0.0105	-22.5
0.0052	-0.012	-0.015	-0.0105	-22.4
-0.0105	-0.0091	-0.0128	-0.0068	-22.5
-0.0158	-0.0083	-0.0113	-0.0068	-22.4
0.0232	-0.0091	-0.0113	-0.0091	-22.5
0.072	-0.0091	-0.0098	-0.0128	-22.5
0.099	-0.0105	0.0022	-0.0128	-22.6
0.1027	-0.0083	0.0105	-0.0075	-22.4
0.063	-0.0015	0.0067	-0.0053	-22.3
0.0277	-0.0008	-0.0015	-0.0046	-22.4
0.0307	0.0007	-0.0083	-0.0015	-22.5
0.0142	0.0037	-0.0068	0	-22.5
0.0045	0.0007	-0.0046	-0.0008	-22.3
0.0097	-0.003	0	-0.003	-22.5
0.0052	-0.0053	-0.003	-0.0015	-22.3
0.0045	-0.003	-0.0068	0.0015	-22.4
-0.0008	0	-0.0053	0.0037	-22.3
-0.0068	0.0015	-0.003	0.0052	-22.4
-0.0165	0.0022	-0.0046	0.0105	-22.5
-0.0338	0.0045	-0.0068	0.0127	-22.4
-0.0503	0.0067	-0.0068	0.012	-22.5
-0.0548	0.0067	-0.0083	0.0105	-22.3
-0.0518	0.003	-0.0091	0.0082	-22.5
-0.0511	0.0022	-0.0068	0.009	-22.3
-0.0503	0.0045	-0.0046	0.009	-22.5
-0.0638	0.0007	-0.0046	0.0052	-22.3
-0.0518	0	-0.0068	0.003	-22.4
0.0165	-0.0008	-0.0053	0.0007	-22.5
0.0727	-0.003	-0.006	0	-22.4
0.0727	-0.0038	-0.0038	0.0007	-22.5
0.042	-0.0038	-0.0015	-0.0015	-22.3
0.021	-0.0046	0.0007	-0.003	-22.4
0.009	-0.0046	0.0045	-0.003	-22.5
0.012	-0.0038	0.0045	-0.003	-22.4
0.042	-0.0046	0.0067	-0.0038	-22.5
0.0645	-0.0053	0.009	-0.0038	-22.4
0.0735	-0.0075	0.0105	-0.0091	-22.4
0.063	-0.0105	0.0127	-0.0135	-22.4
0.0697	-0.0083	0.0142	-0.0098	-22.4
0.0247	-0.0015	0.0142	-0.0023	-22.3
-0.0465	0.0045	0.0135	0.0045	-22.5
-0.0368	0.0067	0.0142	0.0052	-22.3
-0.0465	0.0067	0.0142	0.009	-22.5
-0.0368	0.009	0.018	0.0127	-22.3
-0.003	0.0082	0.0195	0.0142	-22.5
0.0045	0.0067	0.0127	0.0142	-22.1
-0.0091	0.0052	0.009	0.0135	-22.5
-0.0405	0.0045	0.0022	0.012	-22.5
-0.0443	0.0052	-0.0068	0.009	-22.4
-0.042	0.0022	-0.0135	0.0067	-22.3
-0.0038	0	-0.0188	0.0037	-22.4
0.0217	0.0007	-0.0158	0.0015	-22.5
0.039	-0.0015	-0.0143	-0.0015	-22.3
0.0382	-0.0015	-0.0075	-0.0046	-22.5
-0.021	-0.003	0.0007	-0.0068	-22.4
-0.0188	-0.0075	0.0015	-0.0105	-22.5
-0.0188	-0.0091	0.0052	-0.0143	-22.5
-0.03	-0.0143	0.0105	-0.0203	-22.5
0.0082	-0.0181	0.0165	-0.0233	-22.5
0.0232	-0.0203	0.0202	-0.027	-22.3
0.0345	-0.0225	0.0255	-0.0293	-22.5
0.0315	-0.0203	0.0315	-0.0233	-22.4
0.0105	-0.0098	0.0262	-0.0128	-22.4
-0.0105	0.0052	0.0217	0.0022	-22.5
-0.0353	0.018	0.0232	0.018	-22.4
-0.0548	0.0292	0.018	0.0307	-22.3
-0.0638	0.0345	0.0082	0.0397	-22.5
-0.0668	0.0352	0.006	0.0397	-22.5
-0.0653	0.0322	0.0045	0.0352	-22.4
-0.0638	0.0255	-0.0046	0.0285	-22.6
-0.0706	0.015	-0.012	0.021	-22.5
-0.0465	0.0097	-0.0165	0.0142	-22.5
-0.0098	0.0052	-0.0158	0.009	-22.5
-0.0165	0.0007	-0.0128	0.0052	-22.5
-0.0436	-0.0023	-0.0128	0.0015	-22.4
-0.042	-0.006	-0.015	-0.0053	-22.6
-0.0165	-0.0128	-0.0165	-0.0135	-22.5
0.042	-0.0181	-0.0195	-0.0195	-22.5
0.1057	-0.0165	-0.0188	-0.021	-22.6
0.1117	-0.0143	-0.0165	-0.0203	-22.5
0.0727	-0.0143	-0.015	-0.0173	-22.5
0.0255	-0.0105	-0.0105	-0.0143	-22.5
0.0037	-0.0053	-0.0046	-0.006	-22.5
-0.0015	0.0007	0.0007	0.0022	-22.5
-0.0015	0.006	-0.0038	0.0045	-22.5
0.0112	0.0075	-0.012	0.0052	-22.7
0.0232	0.0082	-0.012	0.0067	-22.5
0.018	0.0067	-0.012	0.0052	-22.7
-0.0053	0.003	-0.0158	0.003	-22.5
-0.0143	0.0022	-0.012	0.0015	-22.7
-0.0165	0.0007	-0.0068	0.0015	-22.5
-0.0383	-0.0015	-0.003	0.003	-22.5
-0.0428	-0.0015	-0.0015	0.0067	-22.5
-0.0293	0	0.0015	0.009	-22.5
-0.0083	-0.0015	-0.0038	0.009	-22.5
0.0217	-0.0053	-0.0113	0.0045	-22.6
0.0202	-0.006	-0.0128	0.0015	-22.8
0.012	-0.0068	-0.0046	-0.0046	-22.6
0.0307	-0.0105	0.006	-0.0113	-22.6
0.0127	-0.0105	0.009	-0.0091	-22.5
-0.0203	-0.0083	0.006	-0.0083	-22.6
-0.0008	-0.0068	0.003	-0.0098	-22.7
0.0202	-0.0075	0.006	-0.015	-22.5
0.048	-0.0068	0.0127	-0.0181	-22.5
0.0735	-0.0053	0.0172	-0.0128	-22.5
0.0795	-0.0015	0.0232	-0.0083	-22.6
0.093	0.0015	0.0225	-0.0053	-22.5
0.0862	0.006	0.0195	-0.0008	-22.6
0.0037	0.0105	0.0165	0.0067	-22.4
-0.0743	0.0157	0.0052	0.0135	-22.7
-0.09	0.0202	-0.003	0.0195	-22.5
-0.1125	0.021	-0.0015	0.0217	-22.5
-0.1013	0.0187	0	0.021	-22.5
-0.0495	0.0142	-0.0015	0.0172	-22.5
-0.0091	0.012	-0.0046	0.0127	-22.6
0.0202	0.0082	-0.0128	0.0112	-22.4
0.0255	0.0082	-0.0203	0.012	-22.7
0.0015	0.0052	-0.0285	0.0105	-22.4
-0.003	0.0007	-0.03	0.006	-22.6
0.0052	-0.0015	-0.0308	0.0022	-22.4
0.0007	-0.006	-0.027	-0.0015	-22.6
0.0142	-0.0091	-0.0195	-0.0068	-22.5
0.0022	-0.0105	-0.0135	-0.0091	-22.5
0.0067	-0.0113	-0.0053	-0.0105	-22.5
0.027	-0.0158	-0.0023	-0.0158	-22.5
0.0217	-0.0181	-0.0023	-0.0195	-22.5
0.0285	-0.0181	-0.0023	-0.0203	-22.5
0.0277	-0.0195	-0.0008	-0.024	-22.4
0.036	-0.0158	-0.0015	-0.021	-22.4
0.0375	-0.0143	-0.0015	-0.0195	-22.5
0.0322	-0.0083	0.0052	-0.0128	-22.4
0.0202	0.003	0.0067	-0.0015	-22.4
-0.0165	0.0112	0.0105	0.0052	-22.5
-0.0436	0.0135	0.0157	0.009	-22.3
-0.0533	0.0142	0.0157	0.0157	-22.5
-0.039	0.0187	0.0142	0.024	-22.4
-0.0195	0.0217	0.0105	0.0277	-22.5
0.0067	0.018	0.0082	0.0255	-22.3
0.0277	0.0157	0.0082	0.0217	-22.5
0.0037	0.0135	-0.0008	0.0172	-22.4
0.0045	0.0075	-0.006	0.0097	-22.5
0.0472	0.003	-0.003	0.0022	-22.5
0.0457	0.0007	0.0015	0.0015	-22.5
-0.0165	0.0007	0.0022	0.0007	-22.2
-0.033	0.0007	0.0007	-0.0023	-22.5
-0.012	-0.0008	0.0045	-0.0046	-22.4
-0.0105	-0.0046	0.0015	-0.0113	-22.5
0.018	-0.0113	0.0007	-0.0181	-22.5
0.0405	-0.0158	-0.0008	-0.021	-22.5
0.0532	-0.0181	0.0015	-0.0233	-22.5
0.0532	-0.015	0.0037	-0.0203	-22.4
0.0255	-0.0083	0.0052	-0.0135	-22.4
-0.0046	-0.0015	0.0112	-0.0053	-22.5
-0.0338	0.0015	0.0142	0.0015	-22.3
-0.057	0.0045	0.0172	0.0052	-22.5
-0.0788	0.0082	0.018	0.009	-22.2
-0.096	0.012	0.0127	0.0135	-22.5
-0.099	0.0142	0.0082	0.015	-22.3
-0.0863	0.0127	0.0015	0.0142	-22.5
-0.054	0.0105	-0.0053	0.0105	-22.4
-0.006	0.0075	-0.0083	0.006	-22.5
0.0037	0.0045	-0.0113	0.003	-22.4
0.0015	0.0037	-0.0143	0.0015	-22.3
0.0322	0	-0.0158	0.0015	-22.5
0.021	-0.0015	-0.012	0.0022	-22.2
0.003	0	-0.0068	0.0022	-22.5
0.012	0.003	-0.0083	0.0007	-22.3
0.0255	0.0022	-0.0053	0.0015	-22.4
0.0225	-0.0023	-0.006	-0.003	-22.2
0.0202	-0.0068	-0.0053	-0.0068	-22.2
0.0315	-0.0105	0.003	-0.0098	-22.2
0.0292	-0.012	0.0075	-0.0128	-22.2
0.0367	-0.0113	0.0112	-0.012	-22.4
0.0322	-0.0113	0.0127	-0.0098	-22.3
0.0195	-0.006	0.0142	-0.003	-22.2
0	0	0.0135	0.0015	-22.1
-0.0188	0.0037	0.009	0.0052	-22.2
-0.0256	0.0052	0.0045	0.0067	-22.2
-0.0353	0.0052	-0.0015	0.0067	-22.2
-0.0308	0.0075	-0.0023	0.0082	-22.3
-0.0256	0.0067	-0.0015	0.0052	-22.1
-0.0233	0.0045	-0.0015	0.0015	-22.2
-0.033	0.0037	-0.0023	0.0007	-22.2
-0.0458	0.0022	-0.0023	-0.0008	-22.3
-0.054	-0.0015	0	-0.0015	-22.1
-0.0383	-0.0023	0.0022	-0.0053	-22.2
0.0052	-0.003	0.0082	-0.0046	-22.1
0.0232	-0.0046	0.012	-0.0046	-22.2
0.0345	-0.0015	0.0112	-0.003	-22
0.0517	0	0.0082	-0.0015	-22.2
0.0592	-0.0023	0.0082	-0.003	-22.1
0.0315	-0.0008	0.0082	-0.0008	-22.2
0.0082	0.0022	0.0045	0	-22.1
0.003	0.003	0.0007	-0.0008	-22.1
-0.0046	0.006	0.0007	0.0045	-22.2
-0.0173	0.009	0.0007	0.0082	-22.1
-0.0233	0.0075	0	0.0075	-22.3
-0.015	0.0037	0.0037	0.0052	-22
-0.0083	-0.0015	0.0067	0	-22.1
0.0045	-0.0023	0.0105	-0.0038	-22
0.0112	-0.0038	0.0127	-0.006	-22.1
0.018	-0.003	0.012	-0.0046	-22.2
0.0202	0.0007	0.0105	-0.0008	-22.1
0.015	0.0052	0.009	0.006	-22.2
-0.0015	0.0135	0.009	0.015	-22.1
-0.0233	0.0165	0.0075	0.0172	-22.2
-0.03	0.0157	0.003	0.0172	-22.1
-0.0368	0.0142	-0.0053	0.0165	-22.2
-0.0308	0.0097	-0.0128	0.0142	-22.1
-0.024	0.0067	-0.0181	0.009	-22.2
-0.024	0.0015	-0.0218	0.0052	-22.1
-0.0203	-0.0038	-0.0218	0.0007	-22.2
-0.0195	-0.0068	-0.0203	-0.0046	-22.1
-0.0165	-0.0091	-0.015	-0.0083	-22.2
-0.006	-0.0105	-0.0083	-0.0113	-22.2
0.0067	-0.0113	-0.0015	-0.0128	-22.1
0.018	-0.012	0.003	-0.0128	-22.2
0.0217	-0.0105	0.0052	-0.012	-22.1
0.0142	-0.006	0.0067	-0.0068	-22
0.0157	-0.003	0.012	-0.0015	-22.2
0.0262	-0.003	0.0195	-0.003	-22.1
0.0307	-0.0023	0.0195	-0.003	-22.3
0.0307	0.0015	0.0157	0	-22
0.0142	0.003	0.0165	0.0015	-22
0.0075	0	0.0157	-0.0008	-22.1
0.027	-0.0023	0.0112	-0.003	-22.1
0.03	-0.003	0.006	-0.0008	-22.2
0.0082	-0.003	0	0.0022	-22
0.009	-0.0008	-0.0038	0.003	-22.2
0.0262	-0.0015	-0.006	0	-22.1
0.0165	-0.003	-0.006	-0.0015	-22.2
0.0037	-0.0015	-0.0015	0.0007	-22
-0.0195	0.0015	-0.0008	0.0037	-22.1
-0.0465	0.006	0.0015	0.0067	-22
-0.0315	0.0105	0.0022	0.0067	-22.1
0.0007	0.0105	-0.003	0.0082	-22
-0.006	0.0097	-0.0068	0.012	-22.1
-0.0465	0.009	-0.0068	0.0105	-21.9
-0.0353	0.0082	-0.0083	0.0082	-22.1
-0.0091	0.0045	-0.0113	0.003	-22.1
-0.0008	0	-0.0158	-0.003	-22.1
0.0232	-0.0015	-0.0135	-0.0015	-22
0.0495	-0.0008	-0.0053	-0.0023	-22.1
0.0487	-0.0015	-0.0015	-0.0053	-22
0.0232	-0.0008	0	-0.0046	-22.1
0.0165	0.0007	-0.0008	-0.0023	-22
0.0007	-0.003	-0.0083	-0.003	-22
0.0277	-0.006	-0.0083	-0.006	-22
0.0592	-0.0068	-0.0053	-0.0083	-22
0.0292	-0.0083	0.0007	-0.0105	-22
0.0075	-0.0068	0.009	-0.006	-22
-0.0233	-0.0008	0.009	0.0015	-21.7
-0.0256	0.0052	0.012	0.0082	-22.1
-0.0195	0.0075	0.0142	0.009	-21.8
-0.024	0.0075	0.0075	0.009	-22.1
-0.0248	0.0082	0.0045	0.0105	-22
-0.0368	0.0052	0.0007	0.009	-22.1
-0.0278	0.0037	-0.0046	0.0052	-21.8
-0.0293	0.0015	-0.0083	0.003	-22
-0.024	-0.0023	-0.0128	0.0015	-22.2
-0.027	-0.0038	-0.0181	0.0007	-21.7
-0.027	-0.0038	-0.0225	0.0007	-22.2
-0.0165	-0.003	-0.0256	0.0015	-21.9
-0.0083	-0.0023	-0.0278	-0.0008	-22.1
0.0195	-0.0046	-0.0293	-0.0068	-21.9
0.0345	-0.0091	-0.0278	-0.0113	-22.1
0.0592	-0.0091	-0.0293	-0.0135	-21.9
0.0652	-0.0075	-0.027	-0.0105	-22.1
0.0352	-0.0023	-0.0203	-0.0046	-22
0.0292	0.0022	-0.0105	0.0007	-22.1
0.0292	0.0045	0.0007	0.0022	-22
0.0127	0.0052	0.009	0.003	-22
-0.0053	0.003	0.015	0.0015	-21.9
-0.0165	0.0022	0.012	0.003	-21.9
-0.0188	0.0015	0.0067	0.0037	-22
-0.0218	0.0022	0.0015	0.003	-22
-0.024	0.0037	-0.003	0.0052	-21.9
-0.0203	0.0045	-0.0053	0.0045	-22
-0.0225	0.0045	-0.0105	0.006	-22.1
-0.0218	0.0045	-0.0143	0.0082	-22.1
-0.006	0.0037	-0.0203	0.0082	-22.1
0.0135	0.0022	-0.027	0.0075	-22.2
0.033	0.0015	-0.0278	0.003	-22
0.0195	0.0015	-0.0263	0.0045	-22.2
-0.006	0.003	-0.0233	0.003	-22
-0.0015	0.0015	-0.0165	0.0015	-22.3
-0.0135	-0.0015	-0.0091	0.0007	-22
-0.0368	-0.0046	-0.003	-0.0038	-22.1
-0.024	-0.0068	0.0007	-0.0083	-22.1
-0.0053	-0.0105	0.0015	-0.012	-22
0.0142	-0.0128	-0.0008	-0.0165	-22.1
0.0487	-0.0143	0.0037	-0.0181	-21.9
0.0712	-0.0143	0.009	-0.0181	-22
0.0495	-0.0105	0.0105	-0.0128	-22
0.0142	-0.003	0.0127	-0.0046	-22.2
0.0022	0.0052	0.0082	0.0022	-22
-0.0165	0.0105	0.0052	0.0067	-22
-0.0323	0.012	0.0045	0.009	-22
-0.0346	0.0127	0.0007	0.009	-22
-0.0165	0.0135	-0.003	0.0105	-22.2
0.0157	0.0142	-0.0075	0.0105	-22
0.0075	0.0112	-0.0053	0.0105	-22.1
-0.0083	0.0082	-0.003	0.0082	-21.8
-0.0181	0.0075	0.0045	0.0082	-22.1
-0.015	0.0052	0.0127	0.006	-22.1
0.006	0.0015	0.0157	0.003	-22
-0.003	-0.0015	0.0165	-0.0015	-22.2
-0.0293	-0.0053	0.015	-0.003	-22
-0.0495	-0.0091	0.009	-0.0091	-22.1
-0.0465	-0.0143	0.012	-0.0143	-21.9
-0.0203	-0.0135	0.0187	-0.0143	-22.1
0.0165	-0.0091	0.027	-0.0128	-21.9
0.0352	-0.0068	0.0307	-0.0098	-22
0.0307	-0.0068	0.0307	-0.0105	-22
0.0487	-0.0068	0.0322	-0.012	-22.1
0.0532	-0.0053	0.0277	-0.0128	-21.8
0.0457	-0.0075	0.024	-0.0158	-22
0.0705	-0.0091	0.0247	-0.0158	-21.9
0.0757	-0.006	0.0225	-0.0143	-21.9
0.0555	-0.0038	0.018	-0.0135	-21.9
0.0322	0.0007	0.0127	-0.0046	-22
0.0142	0.009	0.0067	0.006	-21.8
-0.0075	0.0165	-0.0015	0.012	-21.9
-0.0458	0.021	-0.0053	0.0187	-21.7
-0.0668	0.0232	-0.006	0.0195	-22
-0.0615	0.024	-0.0068	0.0217	-21.9
-0.0668	0.0217	-0.0075	0.0232	-22
-0.0691	0.0165	-0.0091	0.0217	-21.8
-0.0691	0.0105	-0.0135	0.0195	-22
-0.0593	0.0075	-0.0143	0.0157	-21.7
-0.0488	0.0045	-0.015	0.0105	-22
-0.0458	-0.0008	-0.0165	0.0052	-21.7
-0.0338	-0.0046	-0.0158	0.0007	-22
-0.033	-0.0083	-0.0181	-0.003	-21.6
-0.0128	-0.0091	-0.0158	-0.006	-21.9
0.0135	-0.0105	-0.0098	-0.0091	-21.7
0.003	-0.0105	-0.006	-0.0098	-21.7
-0.0083	-0.0105	-0.0046	-0.012	-21.7
-0.0046	-0.0113	-0.0038	-0.0128	-21.7
-0.0083	-0.0105	-0.0023	-0.0128	-21.7
-0.0105	-0.0091	-0.003	-0.012	-21.6
-0.006	-0.0053	0.0007	-0.0105	-21.6
0.0022	-0.0053	0.003	-0.0075	-21.5
0.0232	-0.0046	0.009	-0.006	-21.7
0.042	0	0.0142	-0.0023	-21.6
0.0457	0.0022	0.0165	0.0045	-21.6
0.0247	0.0067	0.0165	0.0082	-21.6
0.0037	0.0067	0.0127	0.0082	-21.6
0.0135	0.006	0.012	0.009	-21.6
0.018	0.0067	0.0127	0.0112	-21.5
0.0082	0.0052	0.012	0.0105	-21.6
0.0255	0.0045	0.0127	0.009	-21.6
0.0277	0.003	0.021	0.0097	-21.6
-0.0165	0.003	0.021	0.006	-21.6
-0.0315	-0.0015	0.0195	0.0015	-21.5
-0.0098	-0.0023	0.0255	-0.0008	-21.5
-0.0038	-0.0038	0.0202	-0.0046	-21.6
-0.0053	-0.0046	0.0195	-0.0053	-21.6
0.0097	-0.0046	0.0165	-0.0068	-21.6
0.0202	-0.0083	0.0105	-0.0105	-21.6
0.0232	-0.0083	0.009	-0.012	-21.3
0.0285	-0.0113	0.0112	-0.0143	-21.4
0.0232	-0.012	0.0127	-0.0143	-21.4
0.0232	-0.0083	0.015	-0.0128	-21.6
0.0292	-0.003	0.0157	-0.0083	-21.4
0.018	0.0015	0.0142	-0.0046	-21.5
0.009	0.003	0.0142	-0.0046	-21.4
0.021	0.0067	0.0112	-0.0008	-21.4
0.027	0.0075	0.0045	0.003	-21.3
0.0142	0.012	0.0015	0.0105	-21.4
-0.0053	0.0157	-0.0015	0.018	-21.4
-0.0368	0.0165	-0.0083	0.0195	-21.4
-0.0548	0.0142	-0.0143	0.0157	-21.6
-0.0383	0.009	-0.0188	0.0127	-21.3
-0.015	0.009	-0.0256	0.015	-21.5
-0.0173	0.0067	-0.0293	0.0127	-21.3
-0.0165	0.003	-0.0308	0.0105	-21.4
-0.015	0.0015	-0.0323	0.0082	-21.3
-0.0165	-0.0008	-0.0353	0.0052	-21.4
-0.003	-0.0053	-0.0368	-0.0008	-21.5
0.0045	-0.0083	-0.0383	-0.0068	-21.3
0.0097	-0.0098	-0.0368	-0.0105	-21.5
0.0165	-0.0105	-0.033	-0.0128	-21.4
0.018	-0.012	-0.0278	-0.0135	-21.3
0.027	-0.012	-0.0225	-0.0143	-21.4
0.039	-0.0075	-0.0135	-0.0105	-21.4
0.0382	-0.0038	-0.003	-0.0046	-21.4
0.0082	-0.0008	0.0052	-0.0015	-21.3
-0.0143	0	0.0082	-0.0015	-21.3
0.0037	0.0015	0.012	0.0007	-21.2
0.003	0.0052	0.0127	0.0045	-21.2
-0.0113	0.0067	0.0127	0.0067	-21.3
0.0052	0.0097	0.0172	0.0105	-21.3
0.0105	0.0105	0.018	0.0112	-21.1
-0.0091	0.012	0.0075	0.009	-21.4
-0.039	0.0082	0.0015	0.0052	-21.1
-0.0488	0.0045	-0.0046	0.0045	-21.5
-0.0443	0.0022	-0.0083	0.003	-21.1
-0.048	-0.0015	-0.0113	0	-21.3
-0.03	-0.0015	-0.0188	-0.0008	-21.3
-0.0195	-0.0046	-0.0195	-0.003	-21.2
0.0007	-0.0053	-0.0181	-0.003	-21.2
0.0367	-0.0038	-0.0158	-0.0023	-21.2
0.0045	-0.0015	-0.015	-0.0008	-21.2
-0.039	0	-0.0158	0.0045	-21.2
-0.0503	0	-0.0143	0.0052	-21.2
-0.0675	0.0015	-0.0128	0.0045	-21.2
-0.0518	0.0015	-0.0113	0.003	-21.2
0	0.003	-0.0091	0.003	-21.2
0.06	0.0015	-0.0075	0.0007	-21.1
0.0742	0	-0.0015	-0.0008	-21.1
0.0292	-0.0008	0.0052	-0.0023	-21.1
0.0405	-0.003	0.0075	-0.0015	-21.2
0.0525	-0.0023	0.0105	-0.0008	-20.9
0.0187	-0.0046	0.009	-0.0046	-21.1
0.027	-0.0075	0.0037	-0.0091	-21.1
0.0232	-0.0083	0.0052	-0.012	-21.1
-0.0135	-0.0083	0.012	-0.0128	-21
-0.0293	-0.0075	0.018	-0.012	-20.9
-0.0181	-0.0046	0.0217	-0.0098	-21.1
-0.0008	-0.0023	0.0217	-0.0083	-21.1
0.012	-0.0008	0.0187	-0.0053	-21.1
0.0217	0.0015	0.0127	-0.0015	-21
0.021	0.003	0.0082	-0.0023	-21.1
0.0172	0.0052	0.0052	-0.0023	-21
0.0097	0.0045	0.003	-0.0015	-21.1
0.003	0.0052	0.0015	0.0007	-20.7
-0.0023	0.009	-0.0008	0.0052	-21.1
-0.0128	0.012	-0.0053	0.0105	-20.8
-0.0233	0.0157	-0.0098	0.015	-21.1
-0.0338	0.0165	-0.0158	0.018	-20.8
-0.0353	0.015	-0.021	0.015	-20.9
-0.0293	0.0127	-0.0218	0.0142	-21
-0.0263	0.009	-0.0188	0.012	-20.9
-0.0263	0.0052	-0.0143	0.0097	-20.9
-0.0278	0.0022	-0.012	0.009	-20.8
-0.0256	-0.0008	-0.0135	0.0045	-21.1
-0.0173	-0.0023	-0.0143	0.0022	-20.8
-0.0068	-0.003	-0.0113	0.0015	-21
0.0052	-0.0053	-0.0091	-0.0015	-20.8
0.0187	-0.0075	-0.0083	-0.0015	-20.9
0.024	-0.0068	-0.0053	-0.0053	-20.7
0.0165	-0.0083	-0.0008	-0.0091	-21
0.0022	-0.0091	0.0022	-0.0091	-20.7
0.012	-0.0113	0.0037	-0.0128	-20.8
0.027	-0.0158	0.006	-0.0181	-20.7
0.0367	-0.0203	0.0105	-0.024	-20.7
0.0457	-0.0233	0.0172	-0.027	-20.7
0.051	-0.0188	0.0225	-0.0203	-20.8
0.0502	-0.0068	0.0217	-0.0068	-20.8
0.0322	0.0075	0.0195	0.006	-20.7
0.0127	0.0142	0.0172	0.0127	-20.8
-0.0256	0.0165	0.0157	0.0172	-20.6
-0.0728	0.0187	0.0142	0.0202	-20.8
-0.0555	0.0202	0.006	0.021	-20.6
0.0277	0.018	-0.0008	0.0187	-20.8
0.1012	0.0157	-0.0083	0.0157	-20.7
0.0795	0.0127	-0.0128	0.0127	-20.9
0.0315	0.0082	-0.006	0.0082	-20.8
0.0202	0.0015	0	0.003	-20.6
0.0015	-0.003	0.0007	-0.0008	-20.6
-0.0008	-0.0053	-0.0046	-0.0046	-20.7
0.0097	-0.0083	-0.0091	-0.0091	-20.8
0.0097	-0.0105	-0.0105	-0.0135	-20.7
0.0202	-0.0143	-0.0098	-0.0195	-20.8
0.027	-0.0165	-0.0068	-0.0218	-20.7
0.0292	-0.0158	0.0007	-0.0203	-20.7
0.027	-0.0135	0.009	-0.0188	-20.8
0.0105	-0.0068	0.0105	-0.0135	-20.7
-0.0098	-0.0008	0.0097	-0.0038	-20.7
-0.0293	0.0067	0.0105	0.0052	-20.6
-0.0428	0.012	0.0052	0.0142	-20.8
-0.0503	0.0112	-0.0008	0.0165	-20.7
-0.0458	0.009	-0.0068	0.0142	-20.8
-0.0293	0.0097	-0.0068	0.015	-20.7
-0.0195	0.0097	-0.0083	0.015	-20.8
-0.0098	0.009	-0.0105	0.0127	-20.7
0	0.0082	-0.0105	0.0112	-20.7
0.0082	0.0037	-0.0181	0.0082	-20.7
0.0067	-0.0008	-0.0233	0.003	-20.7
-0.0068	-0.003	-0.021	-0.0015	-20.6
-0.0218	-0.006	-0.0165	-0.0038	-20.7
-0.0263	-0.0091	-0.0165	-0.0083	-20.7
-0.0233	-0.0135	-0.0218	-0.0128	-20.6
0.0045	-0.0135	-0.027	-0.0165	-20.7
0.0315	-0.015	-0.0285	-0.0173	-20.5
0.0195	-0.0158	-0.0233	-0.0195	-20.7
-0.0008	-0.0143	-0.0135	-0.0203	-20.6
-0.0218	-0.0128	-0.003	-0.0181	-20.6
-0.033	-0.0068	0.003	-0.0105	-20.7
0.0045	0.0015	0.0105	-0.0015	-20.6
0.0315	0.0082	0.0172	0.0052	-20.7
0.015	0.012	0.0127	0.0127	-20.5
0.0127	0.015	0.009	0.0105	-20.7
0.039	0.0127	0.012	0.0052	-20.5
0.027	0.012	0.0067	0.0067	-20.5
-0.0195	0.0135	0.0015	0.012	-20.6
-0.0413	0.018	-0.0008	0.0172	-20.5
-0.057	0.021	0	0.018	-20.6
-0.0645	0.0165	0.0052	0.018	-20.6
-0.0721	0.0135	0.0052	0.0165	-20.5
-0.0818	0.009	0.0052	0.0142	-20.4
-0.0765	0.0045	0.0052	0.0112	-20.6
-0.0683	-0.0015	0.006	0.0045	-20.4
-0.0578	-0.0046	0.0052	0.0007	-20.6
-0.0473	-0.0038	0.0045	-0.0008	-20.3
-0.0323	-0.003	0.0022	-0.0015	-20.5
-0.0143	-0.0053	0.0007	-0.0046	-20.4
-0.0091	-0.0053	0.0052	-0.0046	-20.5
-0.0008	-0.0053	0.0067	-0.0053	-20.4
0.021	-0.0091	0.0067	-0.0091	-20.4
0.0045	-0.0098	0.0097	-0.0113	-20.3
0.009	-0.0105	0.0127	-0.0113	-20.6
0.0637	-0.0098	0.0165	-0.0105	-20.3
0.021	-0.0083	0.0165	-0.012	-20.3
-0.0383	-0.0091	0.0195	-0.015	-20.4
-0.006	-0.0105	0.018	-0.0165	-20.2
0.027	-0.012	0.0135	-0.0173	-20.4
0.0487	-0.0091	0.018	-0.0165	-20.4
0.0742	-0.006	0.0195	-0.0113	-20.4
0.0652	0.0007	0.0165	-0.0015	-20.3
0.0367	0.0082	0.0067	0.009	-20.3
0.027	0.0127	0.0007	0.0142	-20.3
0.0082	0.0135	-0.0038	0.0142	-20.3
-0.0225	0.012	-0.0075	0.0127	-20.3
-0.0465	0.009	-0.0053	0.0127	-20.3
-0.0728	0.0082	-0.0053	0.0105	-20.3
-0.084	0.0045	-0.003	0.006	-20.3
-0.063	0.0007	-0.0038	0.0022	-20.3
-0.0158	-0.0015	-0.006	-0.0015	-20.3
0.0555	-0.0023	-0.006	-0.0015	-20.2
0.1065	-0.0038	-0.0008	-0.003	-20.3
0.087	-0.0068	0.0075	-0.0068	-20.2
0.0157	-0.0046	0.0105	-0.0046	-20.3
-0.0338	-0.0015	0.0135	-0.0046	-20.2
-0.0368	-0.0023	0.0127	-0.0083	-20.3
-0.0068	-0.0068	0.0172	-0.012	-20.2
0.03	-0.0113	0.0262	-0.015	-20.3
0.0382	-0.012	0.027	-0.0165	-20.1
0.0592	-0.0105	0.024	-0.0105	-20.3
0.0532	-0.0015	0.0195	-0.0015	-20.1
0.027	0.006	0.0157	0.0052	-20.3
0.0105	0.009	0.015	0.0105	-20.1
-0.0068	0.0135	0.012	0.0142	-20.1
-0.0128	0.0142	0.0105	0.0142	-20.2
-0.0203	0.012	0.0067	0.0127	-20.3
-0.0181	0.0105	0.0007	0.0142	-20.3
-0.0165	0.0105	-0.0053	0.0127	-20.2
-0.012	0.0067	-0.012	0.009	-20.3
-0.0083	0.0037	-0.0113	0.0052	-20.3
-0.0135	0.003	-0.0143	0.0045	-20.3
-0.0256	0.0015	-0.0173	0.0022	-20.2
-0.0383	0.0007	-0.0195	0.0022	-20.3
-0.0353	-0.0015	-0.0203	0.0022	-19.9
-0.021	-0.003	-0.0218	0.0045	-20.4
0.0112	-0.0023	-0.0188	0.003	-20.1
0.0517	-0.0015	-0.012	-0.0008	-20.3
0.0622	-0.0038	-0.0068	-0.0046	-20
0.045	-0.0038	0.003	-0.0038	-20.2
0.0292	-0.003	0.009	-0.003	-20.3
0.0142	-0.003	0.0075	-0.0038	-20.1
0.009	-0.0023	0.0052	-0.0053	-20.2
0.018	-0.0053	0.0052	-0.0098	-20.3
0.027	-0.006	0.0037	-0.012	-20.3
0.0255	-0.0046	0	-0.0113	-20.2
0.0187	-0.0046	0.0022	-0.0083	-20.2
0.0142	0.0015	0.003	-0.0015	-20.1
0.003	0.0045	0.0045	0.0022	-20.1
-0.0173	0.0067	0.0067	0.0045	-20
-0.0323	0.0127	0.0067	0.009	-20.2
-0.033	0.0142	0.0052	0.012	-20.1
-0.0278	0.0142	-0.0015	0.012	-20
-0.0233	0.012	-0.0053	0.0105	-20.1
-0.0143	0.009	-0.0105	0.0082	-20.1
-0.0158	0.0067	-0.0128	0.0045	-20.2
-0.03	0.003	-0.0143	0.0052	-20
-0.0233	-0.0008	-0.0218	0.0045	-20.1
0.0067	-0.0038	-0.03	0.0015	-20.1
0.0135	-0.006	-0.0353	0.0007	-20
0.027	-0.0046	-0.0315	-0.0015	-20
0.0277	-0.0053	-0.0308	-0.0038	-19.9
-0.0278	-0.012	-0.0256	-0.0105	-20.1
-0.0346	-0.0128	-0.0218	-0.0158	-20
0.0195	-0.015	-0.0203	-0.0165	-19.9
0.0232	-0.0165	-0.0181	-0.0218	-20.1
0.0082	-0.0165	-0.0158	-0.0248	-20.1
0.039	-0.0143	-0.0105	-0.0233	-19.9
0.0405	-0.0091	-0.0091	-0.0165	-20.1
0.021	-0.003	-0.0098	-0.0046	-19.9
0.027	0.0067	-0.0053	0.0075	-19.9
0.0015	0.015	-0.0053	0.0187	-19.9
-0.0233	0.0202	-0.0053	0.0247	-19.9
-0.0181	0.0187	-0.0075	0.0247	-19.9
-0.0203	0.0165	-0.012	0.0217	-19.9
-0.0383	0.0165	-0.0105	0.0195	-19.9
-0.0368	0.0142	-0.0091	0.018	-19.8
-0.0473	0.0105	-0.0158	0.015	-20.1
-0.0706	0.0067	-0.0203	0.012	-19.8
-0.0615	0.003	-0.0256	0.0067	-19.9
-0.042	-0.0015	-0.027	0.0007	-19.8
-0.0046	-0.0046	-0.0256	-0.003	-19.9
0.0427	-0.0053	-0.0195	-0.003	-19.9
0.0517	-0.0068	-0.0083	-0.0046	-19.8
0.0232	-0.0083	-0.0015	-0.0083	-19.9
-0.0015	-0.0113	0.003	-0.0098	-19.8
0.0052	-0.012	0.0067	-0.012	-19.8
0	-0.012	0.0067	-0.015	-19.7
-0.0015	-0.0143	0.009	-0.0181	-19.7
0.0105	-0.015	0.0105	-0.0158	-19.8
0.021	-0.012	0.0082	-0.0128	-19.7
0.0352	-0.0083	0.0082	-0.0128	-19.7
0.042	-0.0053	0.015	-0.0128	-19.7
0.0367	-0.0023	0.0247	-0.006	-19.8
0.0075	0.003	0.0315	0.003	-19.8
-0.0233	0.0105	0.033	0.0105	-19.8
-0.0256	0.0142	0.0315	0.0142	-19.5
-0.0128	0.0135	0.027	0.0165	-19.8
0.0187	0.0127	0.0277	0.0165	-19.6
0.0165	0.0112	0.0292	0.0135	-19.8
-0.0315	0.009	0.0277	0.0105	-19.7
-0.0083	0.0052	0.0277	0.0082	-19.7
0.0255	0.003	0.027	0.0045	-19.6
0.0015	0.0015	0.0255	0.0052	-19.7
-0.012	0.003	0.0255	0.006	-19.7
-0.0038	0.0015	0.024	0.0045	-19.7
-0.0015	0	0.0225	0.0037	-19.7
-0.0128	-0.0008	0.0202	0.0015	-19.7
-0.0053	-0.003	0.0217	-0.0008	-19.8
-0.0046	-0.0053	0.018	-0.003	-19.7
0.0045	-0.0053	0.0105	-0.0053	-19.8
0.0075	-0.0083	0.0052	-0.0105	-19.7
-0.006	-0.0128	0.0052	-0.012	-19.8
-0.0083	-0.0113	0.0052	-0.0128	-19.7
-0.0135	-0.0083	0.003	-0.0105	-19.7
-0.0203	-0.006	-0.0008	-0.0091	-19.7
0.009	-0.0075	-0.0068	-0.0098	-19.8
0.0517	-0.0046	-0.0068	-0.0083	-19.8
0.0855	-0.0023	0.0022	-0.0083	-19.7
0.1155	-0.003	0.0082	-0.0091	-19.8
0.0622	-0.0015	0.015	-0.0083	-19.8
-0.0083	0.0022	0.015	0.0022	-19.8
-0.0158	0.0112	0.0045	0.015	-19.8
-0.0346	0.0172	-0.0015	0.0195	-19.8
-0.0346	0.0195	-0.0075	0.0202	-19.8
-0.0256	0.018	-0.012	0.0195	-19.8
-0.0203	0.0157	-0.0105	0.018	-19.9
-0.0098	0.0135	-0.0098	0.0135	-19.8
-0.012	0.0097	-0.0083	0.012	-19.9
-0.0203	0.0097	-0.0098	0.0127	-19.9
-0.027	0.0067	-0.0105	0.0105	-20
-0.0188	0	-0.015	0.0052	-19.8
-0.012	-0.0046	-0.0165	0.0015	-20
-0.0098	-0.0053	-0.0158	-0.0015	-19.8
-0.0293	-0.0068	-0.0195	-0.0038	-20
-0.0698	-0.0083	-0.0285	-0.0046	-19.8
-0.0765	-0.0083	-0.0346	-0.006	-19.9
-0.0383	-0.0105	-0.0375	-0.0105	-19.9
0.0157	-0.0135	-0.0338	-0.0165	-19.9
0.0637	-0.0188	-0.0233	-0.0233	-19.9
0.0727	-0.0218	-0.0113	-0.027	-19.9
0.0435	-0.0195	-0.0083	-0.0225	-20.1
0.0345	-0.0098	-0.0128	-0.0128	-19.9
0.0315	0.0007	-0.0158	-0.0046	-20.2
0.015	0.0052	-0.0128	0.0015	-20
0.0172	0.0075	-0.0068	-0.0008	-19.9
0.0217	0.006	-0.0008	-0.0053	-19.8
0.0202	0.0045	-0.0015	-0.0053	-19.9
0.0165	0.0052	-0.006	-0.0038	-20.1
-0.0008	0.0097	-0.0135	0.0067	-20
-0.0346	0.0165	-0.0173	0.0157	-19.9
-0.078	0.0232	-0.0195	0.0232	-20
-0.0915	0.024	-0.024	0.024	-19.9
-0.0653	0.021	-0.024	0.0217	-20.1
-0.0256	0.0165	-0.0181	0.0195	-20
0.0232	0.0105	-0.0083	0.0157	-19.9
0.0405	0.0082	0.0007	0.0142	-19.9
0.0007	0.003	0.0045	0.009	-20
-0.0188	0.0007	0.006	0.003	-19.9
-0.0165	-0.003	0.0105	0	-19.9
-0.0368	-0.0053	0.0135	-0.003	-20
-0.0533	-0.0075	0.0127	-0.0068	-20
-0.0248	-0.0105	0.0097	-0.0091	-20
0.0195	-0.0098	0.0082	-0.0098	-19.9
0.0352	-0.0105	0.009	-0.0091	-19.8
0.024	-0.012	0.0127	-0.0113	-20
-0.0256	-0.0128	0.009	-0.0143	-19.8
-0.0353	-0.0143	0.0067	-0.0158	-19.9
-0.0158	-0.0128	0.009	-0.0158	-19.8
-0.0315	-0.0113	0.0067	-0.0143	-20
-0.0188	-0.0113	0.0045	-0.0158	-20
-0.0098	-0.0075	0.0022	-0.012	-19.9
0.0052	-0.0023	0	-0.0068	-19.9
0.048	0.0015	0.0022	-0.0038	-19.8
0.0735	0.006	0.006	0.0007	-19.9
0.0555	0.009	0.012	0.0045	-19.8
-0.0008	0.0105	0.0187	0.006	-19.8
-0.0195	0.009	0.0195	0.006	-19.8
-0.006	0.0067	0.021	0.0052	-20
-0.0068	0.0067	0.0247	0.0075	-19.8
-0.0195	0.0052	0.0232	0.009	-19.9
-0.024	0.0045	0.0232	0.009	-19.9
-0.024	0.0022	0.0225	0.0067	-19.9
-0.048	-0.0008	0.0217	0.003	-19.9
-0.0668	-0.0023	0.018	0.0007	-19.8
-0.0436	-0.0038	0.012	-0.0008	-19.8
-0.024	-0.0046	0.009	0.0007	-19.8
-0.0068	-0.0023	0.0075	0.0007	-19.7
0.0195	-0.0008	0.0082	0	-19.8
0.018	-0.0023	0.009	-0.003	-19.7
0.0345	-0.0053	0.0082	-0.006	-19.8
0.0712	-0.0053	0.0097	-0.0046	-19.8
0.0675	-0.003	0.0157	-0.0053	-19.8
0.0457	-0.0038	0.018	-0.0068	-19.9
0.0382	-0.0046	0.0157	-0.0053	-19.7
0.0142	-0.003	0.0105	-0.0053	-19.7
0.0082	-0.0038	0.0082	-0.0075	-19.8
0.0315	-0.0053	0.0052	-0.0091	-19.6
0.0292	-0.003	0.0015	-0.0083	-19.8
0.0277	0.0015	-0.0015	-0.0046	-19.7
0.012	0.0045	-0.0046	0.0015	-19.8
-0.0083	0.0082	-0.0068	0.006	-19.7
-0.0225	0.0105	-0.006	0.0105	-19.7
-0.0353	0.0127	-0.0105	0.0165	-19.8
-0.033	0.0142	-0.0098	0.0187	-19.7
-0.033	0.0112	-0.0083	0.0165	-19.8
-0.012	0.009	-0.0098	0.0142	-19.6
0.0112	0.0082	-0.0105	0.0097	-19.9
0.0127	0.0067	-0.0128	0.0082	-19.5
0.0142	0.0015	-0.0188	0.003	-19.9
0.0225	-0.003	-0.0256	-0.0015	-19.7
0.036	-0.0053	-0.0278	-0.006	-19.9
0.0622	-0.0105	-0.0293	-0.0181	-19.8
0.0855	-0.0181	-0.0278	-0.0256	-19.7
0.0862	-0.021	-0.024	-0.0263	-19.8
0.054	-0.0181	-0.0225	-0.021	-19.7
0.03	-0.0128	-0.0165	-0.0143	-19.6
0.0135	-0.0068	-0.0135	-0.0068	-19.7
-0.012	0.0052	-0.0173	0.0045	-19.8
-0.0091	0.015	-0.0181	0.0157	-19.5
-0.0181	0.021	-0.0158	0.0232	-19.7
-0.0413	0.024	-0.0098	0.0277	-19.6
-0.0653	0.0247	-0.0098	0.0277	-19.7
-0.06	0.0195	-0.0083	0.0217	-19.7
-0.024	0.0142	-0.0091	0.018	-19.7
-0.0053	0.012	-0.0113	0.0142	-19.6
0.0052	0.0082	-0.0105	0.0105	-19.6
0.0052	0.0037	-0.0128	0.0052	-19.7
0.0022	-0.0008	-0.0135	0.003	-19.5
-0.0203	-0.003	-0.015	0.0007	-19.7
-0.0278	-0.0075	-0.0165	-0.0053	-19.4
-0.0015	-0.0091	-0.0143	-0.0068	-19.8
-0.0015	-0.0105	-0.0128	-0.0098	-19.7
0.0015	-0.0105	-0.0128	-0.0091	-19.7
0.033	-0.0091	-0.015	-0.0098	-19.6
0.0345	-0.0128	-0.0203	-0.0128	-19.8
0.0105	-0.015	-0.021	-0.0135	-19.8
0.0052	-0.0143	-0.015	-0.012	-19.6
0.0037	-0.0105	-0.0075	-0.0098	-19.8
0.0052	-0.0098	0	-0.0113	-19.4
0.0052	-0.0098	0.0052	-0.0128	-19.7
0.012	-0.0091	0.0082	-0.0158	-19.4
0.0247	-0.0091	0.0142	-0.0165	-19.7
0.0262	-0.0105	0.0217	-0.0173	-19.5
0.0232	-0.012	0.0345	-0.0143	-19.7
0.009	-0.0068	0.0412	-0.0068	-19.4
-0.0083	0.0045	0.0442	0.0067	-19.6
-0.0263	0.0157	0.0442	0.0172	-19.5
-0.0346	0.0202	0.0397	0.0195	-19.6
-0.0436	0.0232	0.0352	0.0232	-19.5
-0.0713	0.0225	0.0292	0.0217	-19.7
-0.0878	0.0202	0.0217	0.021	-19.5
-0.0893	0.0187	0.018	0.0187	-19.6
-0.078	0.012	0.0157	0.0142	-19.7
-0.0533	0.0082	0.0157	0.0105	-19.5
-0.042	0.0052	0.0142	0.006	-19.6
-0.024	0.0015	0.0127	0.0045	-19.6
-0.0008	0	0.0142	0.003	-19.7
0.0015	-0.0015	0.0127	0.0015	-19.7
0.0097	-0.0038	0.0082	-0.0015	-19.6
0.0172	-0.0068	0.0015	-0.0068	-19.6
0.036	-0.0091	0.0015	-0.0105	-19.7
0.0652	-0.0105	0.006	-0.0143	-19.7
0.0555	-0.0158	0.009	-0.0181	-19.6
0.024	-0.015	0.0105	-0.0181	-19.6
-0.0098	-0.0135	0.0075	-0.0165	-19.7
-0.0143	-0.0143	0.0037	-0.0218	-19.6
-0.0015	-0.0143	0.0015	-0.0233	-19.6
0.0045	-0.0158	0.0007	-0.0225	-19.7
0.0045	-0.012	0.0067	-0.0188	-19.7
0.003	-0.0075	0.012	-0.0128	-19.7
-0.0128	0.0015	0.012	0.0007	-19.7
-0.0338	0.0127	0.009	0.0165	-19.7
-0.0383	0.024	0.003	0.0285	-19.7
-0.0285	0.03	-0.0023	0.033	-19.5
-0.0091	0.0292	-0.0046	0.0315	-19.8
0.0135	0.0277	-0.0083	0.03	-19.7
0.033	0.0225	-0.0075	0.0225	-19.8
0.012	0.015	-0.0053	0.015	-19.6
-0.0338	0.009	-0.0068	0.0097	-19.9
-0.0578	0.003	-0.003	0.0045	-19.7
-0.0503	0	-0.0053	-0.0008	-19.7
-0.0091	-0.0068	-0.0008	-0.0068	-19.8
0.0097	-0.012	0.0037	-0.0105	-19.7
0.0202	-0.015	0.0007	-0.0165	-19.8
0.0262	-0.0188	0.0037	-0.021	-19.8
0.0202	-0.0165	0.0052	-0.0173	-19.9
0.033	-0.0143	0.003	-0.0165	-19.6
0.0307	-0.0105	0.003	-0.0128	-19.8
0.0277	-0.0053	0.0045	-0.0068	-19.7
0.0172	0.0015	0.0075	-0.0015	-19.8
0.0082	0.0045	0.009	-0.0015	-19.7
-0.0038	0.0037	0.0075	-0.0015	-19.7
-0.0181	0.0052	0.0015	0.0022	-19.8
-0.006	0.0067	-0.0068	0.0067	-19.7
-0.0225	0.0045	-0.0128	0.0075	-19.8
-0.0346	0.0037	-0.012	0.0045	-19.8
-0.0203	-0.0008	-0.0105	0.0007	-19.9
-0.0158	-0.0046	-0.0158	-0.0015	-19.7
-0.0203	-0.0008	-0.0203	0.0037	-19.8
-0.0181	0.0045	-0.024	0.0082	-19.9
-0.003	0.0067	-0.0293	0.0112	-19.9
-0.0083	0.009	-0.0308	0.0097	-19.8
-0.0143	0.0082	-0.0308	0.009	-19.8
-0.003	0.0067	-0.03	0.0082	-19.9
0.0112	0.0045	-0.0256	0.0052	-19.8
0.0127	0.0045	-0.024	0.0067	-20.1
-0.0008	0.003	-0.0248	0.0067	-19.8
-0.0098	0.0015	-0.024	0.003	-19.8
-0.0068	-0.0015	-0.0256	0.0015	-19.8
0.0315	-0.0038	-0.0308	-0.0008	-20
0.081	-0.0053	-0.0346	-0.0046	-19.7
0.0712	-0.006	-0.0285	-0.0046	-19.8
0.033	-0.0068	-0.0218	-0.0075	-19.8
0.0142	-0.0083	-0.0158	-0.012	-19.7
0.018	-0.0091	-0.0113	-0.0128	-19.8
0.0397	-0.0098	-0.0083	-0.0158	-19.6
0.0502	-0.012	-0.006	-0.0165	-19.9
0.0315	-0.0143	-0.0068	-0.0203	-19.8
0.042	-0.0158	-0.0068	-0.0256	-19.8
0.054	-0.0158	-0.0015	-0.0256	-19.6
0.0442	-0.0128	0.0067	-0.024	-19.9
0.042	-0.0068	0.0037	-0.0143	-19.7
0.0202	0.0045	0	0.0015	-19.9
-0.006	0.0157	-0.0046	0.018	-19.6
-0.027	0.0247	-0.0053	0.0277	-19.9
-0.039	0.0277	-0.0083	0.0292	-19.8
-0.0585	0.027	-0.0091	0.0315	-19.8
-0.0773	0.0217	-0.0083	0.0277	-19.7
-0.0728	0.0157	-0.0083	0.0195	-19.7
-0.063	0.0082	-0.003	0.0142	-19.7
-0.0308	0.0015	-0.0015	0.0082	-19.7
-0.0046	-0.0008	-0.0008	0.003	-19.7
0.009	-0.0008	-0.0008	-0.0008	-19.8
0.0225	-0.0008	0.0007	-0.0023	-19.7
0.0232	-0.0015	0.0037	-0.0015	-19.6
0.027	-0.0015	0.0067	-0.0023	-19.7
0.0255	-0.0015	0.0097	-0.0023	-19.7
0.0105	-0.003	0.0105	-0.0015	-19.7
0.009	-0.0038	0.0082	-0.0038	-19.7
0.0202	-0.0053	0.0067	-0.0068	-19.5
0.018	-0.0068	0.0082	-0.0105	-19.8
0.0232	-0.0083	0.0105	-0.0128	-19.7
0.018	-0.012	0.0097	-0.015	-19.9
0.0045	-0.0128	0.012	-0.0143	-19.7
0	-0.0105	0.0157	-0.012	-19.6
-0.0203	-0.0075	0.0195	-0.0091	-19.7
-0.0143	-0.0053	0.018	-0.0068	-19.5
0.018	-0.0046	0.0142	-0.0091	-19.6
0.0225	-0.003	0.0142	-0.0091	-19.7
0.0157	-0.0015	0.0165	-0.0046	-19.7
0.0067	0.0015	0.018	-0.003	-19.6
0.003	0.003	0.0165	-0.0008	-19.7
0.0007	0.0052	0.0165	0.003	-19.5
-0.015	0.0097	0.0157	0.0082	-19.6
-0.0218	0.0127	0.0157	0.0127	-19.6
-0.0308	0.012	0.0142	0.0127	-19.6
-0.033	0.0105	0.012	0.0157	-19.5
-0.0181	0.0097	0.0075	0.015	-19.6
-0.0113	0.009	0.003	0.0127	-19.5
-0.0128	0.0075	0.0007	0.0097	-19.6
-0.0165	0.0015	0.0015	0.0045	-19.4
-0.0315	-0.003	0.003	0.003	-19.6
-0.0578	-0.0053	0.003	-0.0015	-19.5
-0.057	-0.0075	0.0045	-0.006	-19.5
-0.0368	-0.0083	0.003	-0.0068	-19.7
-0.0158	-0.0068	0.0052	-0.0083	-19.5
0.0157	-0.0046	0.009	-0.0068	-19.7
0.0427	-0.003	0.0105	-0.0083	-19.4
0.0465	-0.0046	0.009	-0.0053	-19.6
0.0045	-0.0023	0.009	-0.0023	-19.4
