File Name: 9Amar.log
Channel 1: 'Recto femoral', 32080 values, engineering units: mV, no filters.
Channel 2: 'Biceps Femoral', 32080 values, engineering units: mV, no filters.
Channel 3: 'Vasto Medial', 32080 values, engineering units: mV, no filters.
Channel 4: 'Semitendinoso', 32080 values, engineering units: mV, no filters.
Channel 5: 'Flexo', 32080 values, engineering units: deg, no filters.
Digitals combined (event=16, d=8, c=4, b=2, a=1): 32080 values, .

0.0022	0.0007	-0.0068	-0.0015	-1.4	31
-0.0405	-0.0068	-0.021	-0.003	-1.5	31
-0.0256	-0.0091	-0.012	-0.003	-1.1	31
0.0097	-0.0023	-0.0046	-0.0046	-1.4	31
0.015	-0.0105	0.006	-0.006	-1.6	31
-0.0008	-0.027	0.021	-0.0068	-1.1	31
-0.0083	-0.021	0.0262	-0.0053	-1.5	31
-0.0046	-0.0068	0.0345	-0.0046	-1.4	31
0.0015	0.0045	0.0367	-0.0046	-1.3	31
0.0015	0.0067	0.0277	-0.0038	-1.4	31
0.0022	-0.0046	0.018	-0.0053	-1.4	31
0.0007	0.0015	0.0067	-0.0046	-1.3	31
-0.0015	-0.0008	-0.0053	-0.0015	-1.5	31
-0.0015	-0.003	-0.0105	-0.0046	-1.4	31
-0.0008	0.0007	-0.0053	-0.0046	-1.5	31
0	-0.0038	-0.0038	-0.0038	-1.6	31
-0.0015	-0.003	-0.0053	-0.0038	-1.3	31
-0.0015	-0.0015	-0.0015	-0.0053	-1.3	31
-0.0008	-0.0008	-0.0046	-0.0046	-1.5	31
0.0007	0.0007	-0.0075	-0.0046	-1.3	31
0.0022	-0.0008	-0.0083	-0.0046	-1.6	31
0.0022	-0.0015	-0.0105	-0.0015	-1.3	31
0.0022	-0.0008	-0.0105	-0.0015	-1.2	31
0.003	0.0015	-0.0091	-0.0015	-1.6	31
0.0045	0.0007	-0.0083	-0.0015	-1.2	31
0.0052	0.003	-0.0083	-0.0015	-1.5	31
0.0015	0	-0.0068	0.0007	-1.2	31
0.0007	-0.003	-0.0075	0	-1.4	31
0	-0.0046	-0.0068	0.0015	-1.4	31
-0.0015	-0.0046	-0.0053	0.0022	-1.4	31
-0.003	-0.003	-0.0068	0.0022	-1.4	31
-0.0038	-0.0023	-0.0053	0.003	-1.3	31
-0.0015	-0.0038	-0.0046	0.0007	-1.4	31
-0.0008	-0.003	-0.0046	0.0015	-1.4	31
0.0007	0.0007	-0.0053	0	-1.5	31
0.0007	0.0015	-0.006	-0.0015	-1.1	31
0.0037	0.0022	-0.0068	-0.0008	-1.6	31
0.0052	0.003	-0.0068	0	-1.1	31
0.0045	0.006	-0.0046	0.0007	-1.6	31
0.003	0.0045	-0.003	0	-1.2	31
0.003	0.0007	-0.0023	-0.0008	-1.5	31
0.003	0	-0.0015	0.0007	-1.2	31
-0.0008	-0.0015	-0.0008	0.0015	-1.3	31
-0.0015	-0.0083	0.0007	0.0007	-1.4	31
-0.003	-0.0158	0.0022	0.0007	-1.4	31
-0.0046	-0.0128	0.0007	0.0022	-1.3	31
-0.0038	-0.006	0.0007	0.0022	-1.1	31
-0.0023	-0.0053	-0.0008	0.0022	-1.3	31
-0.0023	-0.0038	-0.0015	0.0015	-1.2	31
-0.0008	-0.0046	0	0.0007	-1.4	31
0.0037	-0.003	-0.0008	-0.0015	-1	31
0.0067	-0.0015	-0.0008	-0.003	-1.1	31
0.0067	-0.0008	0.0015	-0.0046	-0.9	31
0.0067	-0.0008	-0.0008	-0.0023	-1	31
0.0052	-0.0038	0	-0.0015	-1.1	31
0.003	-0.003	0.0015	-0.0038	-0.8	31
0.0007	-0.0015	0	-0.0008	-0.9	31
-0.0015	0.003	-0.0008	0	-0.5	31
-0.0098	0.0045	0.0007	0.0015	-1.1	31
-0.0233	0.0022	-0.0008	0.0007	-0.7	31
-0.0181	0.0007	-0.0015	-0.0008	-0.7	31
-0.0008	-0.0015	-0.003	0.0007	-0.9	31
-0.0015	-0.0038	-0.003	0.0015	-0.8	31
0.0007	-0.0105	-0.0023	0.0015	-0.5	31
0.0037	-0.0181	-0.003	0.0007	-0.8	31
0.0007	-0.012	0.0015	0.0015	-0.5	31
0.0015	-0.0015	0.0045	0.0045	-0.7	31
0.0067	0.0037	0.0045	0.0045	-0.7	31
0.0112	-0.003	0.0067	0.003	-0.5	31
0.0052	-0.0158	0.0067	0.0015	-0.8	31
-0.0015	-0.0105	0.0052	0.0015	-0.5	31
-0.0008	-0.0038	0.0052	0.0007	-0.6	31
0.0015	-0.0015	0.003	0.0007	-0.6	31
0.0022	0.0015	0.0015	0.0022	-0.4	31
0.0007	0.0052	0.0015	0.0022	-0.6	31
0.0022	0.0142	-0.0015	0.0022	-0.2	31
0.0022	0.0135	-0.0083	0.003	-0.4	31
0.0015	0.0082	-0.015	0.0015	-0.3	31
-0.0008	0.003	-0.0173	0.0007	-0.4	31
-0.0008	-0.0015	-0.0113	-0.0008	-0.2	31
-0.0015	-0.0046	-0.006	0.0007	-0.5	31
-0.003	-0.0038	0.0007	0	0	31
-0.003	-0.0015	0.009	-0.0008	-0.5	31
-0.0038	-0.003	0.0157	0	-0.2	31
-0.0053	-0.006	0.021	-0.0015	-0.4	31
-0.0046	-0.0083	0.021	-0.0015	-0.2	31
-0.0023	-0.0075	0.0142	-0.0008	-0.2	31
0	-0.003	0.0067	0.0007	-0.5	31
0.0007	0.0022	0.0007	0	0	31
-0.0008	0.0082	-0.0083	0	-0.4	31
-0.0023	0.009	-0.0128	0	-0.1	31
-0.0008	0.0045	-0.0105	0.0022	-0.2	31
0.0045	0.009	-0.0113	0.0015	0	31
0.0105	0.015	-0.012	0.0015	-0.2	31
0.0135	0.0135	-0.0105	0.003	0	31
0.0082	-0.0046	-0.0068	0	0	31
0.0022	-0.024	-0.003	-0.003	0.1	31
-0.0075	-0.0181	0.0015	-0.0053	0	31
-0.0143	-0.0128	0.0045	-0.006	0	31
-0.0128	-0.0105	0.0067	-0.0046	0.3	31
-0.0053	-0.0068	0.003	-0.0023	-0.1	31
-0.0015	-0.0128	-0.0008	-0.0015	0.3	31
0.0007	-0.012	0	-0.0015	0	31
0.0015	-0.0023	-0.0015	0	0.3	31
0.0022	0	-0.0008	0	0.2	31
0.0015	-0.0015	0.0007	-0.0008	0.3	31
-0.003	-0.0008	0.0052	0	0.3	31
-0.0008	0.003	0.0052	0.003	0.4	31
0.0037	0.0052	0	0.003	0.4	31
0.0037	0.0052	-0.0053	0.0015	0.4	31
0.0037	0.0052	-0.006	0.003	0.2	31
0.0037	0.003	-0.0046	0.0007	0.2	31
0.0007	-0.0008	-0.0068	-0.0015	0.6	31
-0.0015	-0.0008	-0.0068	-0.0023	0.3	31
-0.003	-0.0023	-0.0068	-0.003	0.7	31
-0.0053	0	-0.0068	-0.0015	0.4	31
-0.0128	0.0007	-0.0075	-0.0015	0.4	31
-0.0293	-0.0015	-0.0068	-0.0023	0.4	31
-0.0225	-0.0023	-0.0068	-0.0023	0.4	31
-0.003	-0.0053	-0.0068	-0.0008	0.6	31
-0.0015	-0.003	-0.0068	0.0007	0.4	31
0	-0.0008	-0.0038	0.0015	0.7	31
0	-0.0023	-0.0008	0.003	0.5	31
-0.0015	-0.0046	-0.0023	0.0007	0.6	31
0.0015	-0.0053	-0.0023	0.0007	0.5	31
0.0022	-0.0046	-0.0023	0.0015	0.6	31
0.003	-0.0053	-0.0015	0.0015	0.6	31
0.0015	-0.006	-0.0015	0	0.6	31
0.0022	-0.0046	-0.0023	-0.0008	0.6	31
0.0015	-0.0023	-0.0015	0.0007	0.4	31
0	-0.003	-0.0023	0.0007	0.7	31
0.0015	-0.0015	-0.0038	-0.0008	0.5	31
0.003	-0.0023	-0.0015	-0.0023	0.7	31
0.0022	-0.003	-0.0008	-0.003	0.3	31
0.0007	-0.0023	-0.0023	-0.0015	0.5	31
0.0007	-0.0015	-0.0015	-0.0015	0.4	31
0	0.0007	-0.0008	-0.0008	0.5	31
0.0015	0	-0.0008	-0.0008	0.5	31
0.0037	0	-0.0008	0.0007	0.4	31
0.003	0.0007	0.0007	-0.0008	0.6	31
0.0015	-0.0008	-0.0015	0.0007	0.7	31
0	-0.0015	-0.0015	0.0015	0.5	31
0.0015	-0.0038	0.0015	0.0007	0.8	31
0.0015	-0.0023	-0.0015	0.0022	0.7	31
0	-0.0015	-0.0008	0.0015	0.6	31
0	-0.0046	0.0007	0.0022	0.9	31
0.0007	-0.0038	0	-0.0008	0.7	31
0.0007	-0.0023	0	-0.0008	0.7	31
0.0007	0.0015	-0.0008	-0.0008	0.7	31
0	0.0007	0.0007	-0.0008	0.6	31
0	-0.003	-0.0008	-0.0015	0.8	31
0.0015	-0.0038	-0.0008	-0.0015	0.5	31
0.0015	-0.006	0.0007	-0.0015	0.9	31
0.0022	-0.0091	0.0007	-0.003	0.5	31
0.0015	-0.0091	0.0007	-0.0015	0.9	31
0.0015	-0.0083	0.0007	-0.003	0.8	31
0.0015	-0.003	0.003	-0.003	0.9	31
0.0007	-0.0008	0.0015	-0.0008	0.9	31
0.003	-0.0015	0.0022	-0.0023	0.9	31
0.003	0.0007	0.003	-0.0008	0.7	31
0.0007	0.0015	0.0037	0.0015	1	31
-0.003	0.0007	0.0045	-0.0008	0.9	31
-0.0046	-0.0015	0.0022	0.0007	0.9	31
-0.0053	-0.0008	0.0015	0	0.9	31
-0.0046	-0.0015	0.0007	-0.0008	0.7	31
-0.0038	-0.0015	-0.0008	-0.0008	0.9	31
-0.0038	-0.0015	-0.0015	-0.0008	0.8	31
-0.0008	-0.003	0.0007	-0.0008	0.9	31
-0.0008	-0.0023	0.0007	-0.0015	1	31
-0.0008	-0.0015	-0.0008	-0.003	0.9	31
0.0007	0	0.0007	-0.0008	1.1	31
0.0015	-0.0008	-0.0008	-0.0008	1	31
0.0015	-0.0008	0	0	1.1	31
-0.0008	0.0007	-0.0008	0.0015	1.1	31
-0.0015	-0.0015	-0.0015	0.0015	1	31
-0.0008	-0.003	-0.0015	0.003	1	31
-0.0015	-0.003	-0.0008	0.003	1.3	31
-0.003	-0.0038	-0.0008	0.0015	0.9	31
-0.0038	-0.0046	-0.0015	0.0015	1.5	31
-0.0046	-0.0023	-0.0015	0.0015	1.1	31
-0.0046	-0.0015	-0.0015	0	1.3	31
-0.0015	-0.003	-0.0008	-0.0008	1.2	31
-0.0023	-0.0046	0.0007	0.0007	1.2	31
-0.0038	-0.0046	0.0007	-0.0015	1.4	31
-0.003	-0.0023	0	-0.0015	1.3	31
-0.0023	-0.003	-0.0008	-0.0023	1.6	31
-0.0008	-0.0038	-0.003	-0.0015	1.1	31
0.0015	-0.003	-0.003	-0.0015	1.5	31
0.0015	-0.0015	-0.0015	-0.0015	1.5	31
-0.0008	-0.0008	-0.0015	-0.0015	1.4	31
-0.0008	-0.003	-0.0015	-0.0023	1.5	31
-0.0023	-0.003	-0.0015	-0.0015	1.7	31
-0.0023	-0.0015	0.0015	-0.0023	1.4	31
-0.0008	-0.0038	0.0022	-0.0038	1.8	31
-0.0038	-0.0038	-0.0008	-0.0015	1.5	31
-0.003	-0.0008	0	-0.0008	1.6	31
-0.0008	-0.0008	-0.0008	0.0007	1.8	31
0	-0.0015	0	-0.0015	1.5	31
0	-0.0008	-0.0008	-0.0015	1.9	31
0.0015	0	-0.0008	-0.0015	1.5	31
0.0007	-0.0008	0.0007	-0.0046	2	31
0	0	-0.0008	-0.0023	1.5	31
0	-0.0008	-0.0015	-0.003	1.8	31
-0.0008	-0.0015	-0.0023	-0.0023	1.8	31
0	-0.003	-0.0008	-0.0015	1.9	31
0.0007	-0.003	0	0	1.8	31
0.0007	-0.0046	-0.0015	0.0015	1.8	31
0.0015	-0.003	-0.0008	-0.0015	2	31
0.0007	-0.0046	-0.0008	-0.0008	1.8	31
-0.0015	-0.006	0	-0.0008	2	31
-0.0015	-0.0046	-0.0015	0.0007	1.8	31
-0.0008	-0.0091	-0.0008	0.0007	2.3	31
0.0007	-0.0105	-0.0008	0.0007	1.7	31
0	-0.0105	-0.0023	0.0007	2.1	31
0.0007	-0.0075	-0.0015	-0.0008	2	31
0.0015	-0.0038	-0.0015	0	2.1	31
0.0007	-0.003	-0.0023	-0.0008	1.9	31
0.0007	0.003	-0.0008	-0.0015	1.9	31
-0.0008	0.0082	-0.0008	-0.0015	2.2	31
-0.0015	0.0067	0	-0.0015	2.1	31
0.0007	0.0045	0	-0.0008	2	31
-0.0008	0.0015	0.0007	-0.0008	2.2	31
-0.0008	-0.0023	-0.0015	-0.0015	2.2	31
0	-0.0023	-0.003	-0.0008	2.1	31
-0.0015	-0.003	-0.003	0	2.4	31
-0.0015	-0.0046	-0.0015	-0.0015	2.3	31
-0.0015	-0.0046	0.0015	-0.0023	2.2	31
-0.0046	-0.003	0.0007	0.0007	2.4	31
-0.0046	-0.0053	0.0007	-0.0008	2.3	31
-0.003	-0.006	0	-0.0008	2.6	31
-0.003	-0.0038	-0.0008	0.0007	2.2	31
-0.003	-0.003	0	0.0007	2.6	31
-0.0015	0.0007	-0.0008	0.0022	2.1	31
-0.0008	0	-0.0008	0.0015	2.4	31
0	-0.0015	-0.0015	0.0015	2.4	31
-0.0008	-0.0015	-0.0015	0.0015	2.2	31
0	-0.0008	-0.0015	0.0015	2.4	31
0.0007	-0.0015	-0.0015	0.0037	2.4	31
0.0007	-0.0008	-0.0008	0	2.3	31
0.0015	-0.0015	-0.0008	-0.0008	2.4	31
0	-0.0008	0	-0.0008	2.4	31
0.0007	-0.0008	-0.0008	-0.0046	2.3	31
0.0007	-0.0008	-0.003	-0.0046	2.5	31
0.0007	0.0015	-0.0015	-0.0023	2.2	31
0.0007	0	-0.0008	-0.0038	2.6	31
-0.0008	-0.0008	-0.0015	-0.003	2.4	31
-0.0008	-0.0008	-0.0008	-0.0046	2.3	31
0	-0.003	-0.003	-0.003	2.5	31
0	-0.0053	-0.0015	-0.0008	2.2	31
-0.0015	-0.0046	-0.003	0.0007	2.7	31
0	-0.0046	-0.0038	0.0007	2.2	31
0.0015	-0.0038	-0.0008	-0.0008	2.3	31
0.0007	-0.003	-0.0023	0	2.4	31
0.0022	-0.003	-0.0023	-0.0008	2.5	31
0.0015	-0.0015	-0.003	-0.0008	2.2	31
0.0015	0	-0.003	-0.0008	2.7	31
0.0015	0.0007	-0.0008	0.0007	2.3	31
0	-0.0008	0.0007	0	2.7	31
0.0007	-0.0008	0.003	0.0007	2.4	31
-0.0008	-0.0008	0.0037	0.0015	2.4	31
-0.0008	0	0.003	0.0015	2.7	31
0.0007	0.0045	0.0015	0.0007	2.3	31
0.0007	0.0052	0.0007	0.0015	2.6	31
0.0015	0.0045	-0.0008	0	2.4	31
0.0015	-0.0015	-0.0023	0	2.5	31
0.0015	-0.0053	-0.0046	0.0007	2.4	31
0.0022	-0.0075	-0.0046	0.0007	2.4	31
0.0015	-0.0105	-0.003	0.0007	2.5	31
0.0007	-0.012	-0.0015	0	2.5	31
-0.0008	-0.0128	0	-0.0008	2.6	31
0.0007	-0.0098	-0.0008	0	2.6	31
0.0015	-0.0046	-0.0015	0.003	2.4	31
0.0045	-0.003	0.0007	0.0052	2.4	31
0.0015	0.0007	0.0015	0.0067	2.6	31
-0.0015	0.0022	0.0022	0.0067	2.2	31
0	0.0015	0.003	0.003	2.7	31
0.0015	-0.0008	0.003	0.0015	2.3	31
-0.0015	-0.0038	0.0007	0.0015	2.6	31
-0.0023	-0.0015	0	0.003	2.3	31
0.0015	-0.0008	-0.0008	0.0022	2.4	31
0.0022	-0.0008	-0.0015	0.0007	2.4	31
0.0022	0.0007	-0.003	0.0015	2.4	31
0.0045	0.0007	-0.0053	0.0007	2.4	31
0.0045	0.0007	-0.003	0.0015	2.5	31
0.003	0.0022	-0.0023	0.0015	2.4	31
-0.0091	0.0015	-0.0046	-0.0008	2.2	31
-0.0218	-0.0015	-0.003	-0.0008	2.6	31
-0.0128	-0.0008	-0.0038	-0.0015	2.2	31
-0.0053	-0.0008	-0.0046	-0.0023	2.6	31
-0.0083	0.0007	-0.0023	-0.003	2.3	31
-0.0046	0.0015	-0.0015	-0.003	2.4	31
-0.0015	0.0015	-0.003	-0.003	2.4	31
0.003	0.0015	-0.0046	-0.003	2.3	31
0.0022	0.0007	-0.0038	-0.0053	2.5	31
0.0007	0.0045	-0.0038	-0.0046	2.1	31
0.003	0.0082	-0.003	-0.0015	2.6	31
0.003	0.0067	-0.0038	-0.003	2.1	31
0.006	-0.0091	-0.0038	-0.0023	2.4	31
0.003	-0.0263	-0.0008	-0.0015	2.2	31
0.0037	-0.024	-0.0015	0.0015	2.1	31
0.0045	-0.012	-0.0008	0.003	2.2	31
-0.0008	-0.0046	0.003	-0.0015	2.2	31
-0.0015	-0.0023	0.0052	-0.0023	2.1	31
-0.0015	-0.003	0.0082	-0.0023	2.1	31
0.0007	-0.0046	0.0105	-0.0053	2.4	31
0	-0.0038	0.006	-0.0053	1.9	31
-0.0008	-0.0008	0.003	-0.0046	2.3	31
-0.0008	0.0007	0.0015	-0.0053	1.9	31
-0.0008	0.0007	-0.0008	-0.0038	2.2	31
-0.0008	-0.0015	-0.0015	-0.0015	2.1	31
-0.0015	-0.0008	-0.0015	-0.0008	2	31
-0.0015	0	-0.0038	0.0022	2.2	31
-0.0015	-0.0038	-0.006	0.0067	1.8	31
-0.0015	-0.003	-0.0068	0.0052	2.2	31
0	-0.0008	-0.0046	-0.0008	1.9	31
-0.0008	0.0015	-0.0023	-0.0023	2	31
-0.0008	0.0052	-0.0015	-0.003	1.8	31
0.0007	0.003	-0.0015	-0.003	1.8	31
0.0015	0.0015	-0.0015	-0.003	1.8	31
0.0015	0.0015	-0.003	-0.003	2	31
0.0015	-0.0008	-0.0053	0.0015	1.8	31
0.0015	-0.003	-0.006	0.0052	1.8	31
0.0007	-0.003	-0.0053	0.0067	1.9	31
0.0015	-0.0015	-0.0046	0.0052	1.6	31
-0.0008	0	-0.003	0.0052	2	31
-0.0008	-0.0015	-0.0008	0.0037	1.5	31
-0.0008	-0.003	-0.0023	0.003	1.8	31
-0.0008	-0.0015	-0.003	0.0022	1.6	31
-0.0015	-0.0015	0.0007	0	1.8	31
-0.0038	-0.0023	-0.0008	0	1.7	31
-0.0015	-0.0008	-0.0008	-0.0015	1.5	31
-0.0023	-0.0008	0.0007	-0.003	1.5	31
-0.0008	-0.0008	0.0007	-0.0015	1.6	31
0	0	0.0007	-0.0038	1.4	31
-0.0008	0.0007	0.0015	-0.003	1.6	31
0.0007	-0.0008	0.0015	-0.003	1.4	31
0.0007	-0.0008	0.0007	-0.0015	1.3	31
0.0007	-0.0015	-0.0008	-0.0015	1.5	31
0.0022	-0.0023	0.0007	-0.0015	1.3	31
0	-0.0023	0.0022	0.0007	1.3	31
-0.0008	-0.0015	0.0015	0.0007	1.3	31
0.0007	-0.0015	0.0015	0.0007	1.2	31
0.0007	0.0007	-0.0008	0.0022	1.3	31
-0.0008	0	-0.0008	0.0022	1.2	31
-0.0015	-0.0046	0	0.0052	1.3	31
-0.0038	-0.0053	-0.0008	0.0045	0.9	31
-0.0046	-0.0053	-0.003	0.0015	0.9	31
-0.003	-0.0046	-0.003	0.0015	0.9	31
-0.003	-0.0046	-0.0008	0.0007	0.9	31
-0.0023	-0.0053	-0.0008	0.0007	0.9	31
-0.0008	-0.0053	0.0015	-0.0015	1.1	31
-0.003	-0.003	0.0015	-0.003	0.7	31
0	-0.0015	-0.0015	-0.0015	1	31
0.0007	-0.0023	-0.003	-0.0015	0.6	31
-0.0008	-0.003	-0.0015	-0.0015	1	31
-0.0008	-0.0023	-0.0008	-0.0008	0.7	31
-0.0008	-0.0015	-0.0008	0	0.7	31
0	-0.0015	-0.0008	-0.0008	0.8	31
-0.0008	-0.0015	-0.0008	0	0.4	31
-0.0008	0.0007	-0.003	-0.0008	0.6	31
-0.0023	0.003	-0.0008	0	0.6	31
-0.0023	0.003	0.0015	0.0007	0.5	31
-0.0015	0.0015	0.0022	-0.0008	0.4	31
-0.0023	0.0007	0.003	-0.0008	0.4	31
-0.0015	-0.0023	0.0015	0.0007	0.3	31
-0.0008	-0.0053	-0.0008	-0.0008	0.1	31
0.0015	-0.0046	-0.0015	-0.0015	0	31
0.0022	-0.0053	-0.0015	-0.0008	0.1	31
0.0007	-0.0075	-0.003	-0.0015	-0.1	31
0.0015	-0.0083	-0.0038	-0.0008	0	31
-0.0008	-0.006	-0.003	0	-0.1	31
0.0007	-0.0015	-0.0038	-0.0008	-0.2	31
-0.0008	-0.0015	-0.003	-0.0008	0.1	31
0.0007	-0.0008	0.0007	-0.0008	-0.5	31
0.0007	0.0007	0.0015	-0.0015	-0.2	31
0.0007	-0.0008	0.0022	-0.003	-0.5	31
0.003	-0.0015	0.0022	-0.0015	-0.2	31
0.0045	-0.0038	0.0045	-0.0015	-0.5	31
0.0052	-0.006	0.0007	-0.0023	-0.5	31
0.0052	-0.0068	-0.0023	-0.0008	-0.7	31
0.0075	-0.0091	0.0015	-0.0015	-0.6	31
0.0082	-0.0068	-0.0008	-0.0015	-0.7	31
0.0067	0	-0.0008	-0.0015	-0.9	31
0.0052	0.0045	-0.003	-0.0015	-0.8	31
0.0015	0.0052	-0.0046	-0.0015	-1.1	31
0	0.0037	-0.003	-0.003	-0.9	31
-0.0098	0.003	-0.003	-0.003	-1.3	31
-0.0218	-0.0015	-0.003	-0.0046	-1	31
-0.0181	-0.0053	-0.0046	-0.0053	-1.5	31
-0.0091	-0.0053	-0.003	-0.0038	-1.4	31
-0.0098	-0.0008	-0.0046	-0.003	-1.2	31
-0.006	0.0015	-0.0046	-0.0008	-1.5	31
-0.0038	0.0015	-0.0023	0.0007	-1.3	31
-0.0046	0.0052	-0.0015	0.0007	-1.7	31
-0.0038	0.0015	0.0015	-0.0015	-1.6	31
-0.0046	0	0	-0.0023	-1.7	31
-0.0038	0.0015	-0.003	-0.0015	-1.9	31
0.0015	0.0037	-0.0053	-0.0008	-2	31
0.0045	0.0052	-0.0046	-0.0023	-1.9	31
0.0037	0.0075	0.0007	-0.0008	-2	31
0.0082	0.009	0.006	-0.0008	-2.3	31
0.0142	0.0097	0.0045	-0.0008	-2.1	31
0.0165	0.0097	0.0045	0.0007	-2.3	31
0.0165	0.003	0.0052	-0.0015	-2.3	31
0.009	-0.0105	0.0067	-0.0015	-2.7	31
-0.0015	-0.0233	0.0097	-0.0015	-2.4	31
-0.0105	-0.024	0.0105	-0.003	-2.7	31
-0.0105	-0.021	0.0105	-0.0038	-2.5	31
-0.0091	-0.0158	0.0105	-0.0008	-2.9	31
-0.0091	-0.0091	0.0067	-0.0008	-2.8	31
-0.0046	-0.006	-0.0008	-0.0008	-2.9	31
-0.003	-0.0038	-0.0091	-0.0015	-3.1	31
-0.0023	-0.003	-0.0105	-0.0015	-3.2	31
-0.0023	-0.0008	-0.0105	-0.0015	-3	31
-0.0023	-0.0023	-0.0098	-0.003	-3.4	31
-0.0008	-0.0023	-0.0105	-0.0015	-3.4	31
-0.0008	-0.0008	-0.0105	-0.0008	-3.3	31
0	-0.0008	-0.0091	-0.0008	-3.7	31
0.0007	0	-0.0098	-0.0015	-3.5	31
0.003	0	-0.0068	-0.0008	-3.8	31
0.003	0.0007	-0.0068	-0.0008	-3.6	31
0.0022	0.0015	-0.006	-0.0023	-3.8	31
0.0022	-0.0008	-0.0015	-0.003	-4	31
0.0007	-0.0023	-0.0015	-0.0023	-3.6	31
0.0022	-0.0023	-0.0008	-0.0008	-4.1	31
0.0022	0.0007	-0.0008	0.0007	-4	31
0.0007	0.0022	-0.0015	0.0022	-4.3	31
0.0015	0.003	-0.0015	0.0015	-4.3	31
-0.0008	0.0045	-0.0015	-0.0008	-4.5	31
-0.0008	0.003	-0.0008	0.0015	-4.4	31
0.0007	-0.0015	0	-0.0008	-4.8	31
-0.0008	-0.0046	0.0015	-0.0008	-4.5	31
-0.0008	-0.0105	0.0007	0	-4.9	31
-0.0008	-0.0128	0	-0.0008	-4.8	31
-0.0008	-0.0128	0	-0.0008	-5.1	31
-0.0015	-0.012	-0.0008	-0.0008	-5	31
-0.0008	-0.0068	-0.0008	0.0015	-5.1	31
0.0007	-0.0038	-0.0008	0.0007	-5.3	31
0.0015	-0.0046	-0.0008	0.0015	-5.1	31
0.0015	-0.0015	-0.0008	0.003	-5.4	31
0.0015	-0.0023	-0.0008	0.0052	-5.2	31
0.003	-0.003	-0.0008	0.006	-5.4	31
0.0037	-0.0015	0.0007	0.0045	-5.5	31
0.0045	-0.0023	0.0007	0.0037	-5.5	31
0.0045	-0.0023	-0.0008	0.0022	-5.7	31
0.003	-0.0015	-0.0008	0.0007	-5.8	31
0.0015	-0.0046	-0.0015	0.0007	-5.7	31
-0.0008	-0.0068	-0.0015	-0.0008	-6.1	31
-0.0023	-0.0046	-0.0015	-0.006	-6.2	31
-0.0053	-0.0023	0.0007	-0.0091	-6.1	31
-0.0158	-0.0008	0.0007	-0.003	-6.4	31
-0.0233	-0.0023	-0.0008	0.0127	-6	31
-0.015	-0.003	0	0.0232	-6.6	31
-0.003	-0.0046	-0.0015	0.0105	-6.3	31
-0.003	-0.0008	0.0007	-0.0015	-6.7	31
0.0007	0.006	-0.0015	-0.003	-6.7	31
0.0075	0.0097	-0.003	-0.0008	-6.7	31
0.009	0.0067	-0.003	0.0015	-7	31
0.0052	0.0022	-0.0038	-0.0008	-6.9	31
0.0015	0.0015	-0.0053	0.0007	-6.9	31
0.0022	-0.0023	-0.0128	0.0015	-7	31
0.0015	-0.0053	-0.012	-0.0053	-7.3	31
0.0067	-0.0008	-0.0053	-0.0158	-7.2	31
0.012	0.0045	-0.0046	-0.0165	-7.6	31
0.012	0.003	0.003	-0.006	-7.5	31
0.009	-0.0015	0.0097	0.0165	-7.8	31
-0.0091	-0.0091	0.0135	0.0277	-7.7	31
-0.0383	-0.0143	0.0172	0.006	-8	31
-0.0383	-0.0075	0.0172	-0.0083	-8	31
-0.012	-0.0053	0.0157	-0.0015	-8.1	31
0	-0.0046	0.0112	-0.0046	-8.5	31
0.0022	-0.0023	0.0052	-0.0091	-8.2	31
0.006	-0.0015	-0.0008	-0.0046	-8.8	31
0.003	0	-0.0046	-0.0015	-8.6	31
0.0015	-0.0015	-0.0075	0	-8.8	31
-0.0015	-0.0015	-0.0091	0.0022	-8.9	31
-0.0053	-0.0038	-0.012	0	-8.9	31
-0.0068	-0.0038	-0.0143	-0.0046	-9	31
-0.0023	-0.0008	-0.0188	-0.0015	-9.1	31
0.0007	-0.0015	-0.0195	-0.0046	-9.4	31
0.003	-0.0015	-0.0158	-0.0038	-9.5	31
0.0082	-0.0015	-0.0105	0.0022	-9.9	31
0.006	-0.0008	-0.0053	0.012	-9.6	31
0.0045	-0.0015	0.0007	0.0202	-10.1	31
0.0067	-0.003	0.0067	0.012	-9.9	31
0.0105	-0.003	0.0112	-0.003	-10.3	31
0.0157	-0.0046	0.0127	-0.0075	-10.3	31
0.0172	-0.0075	0.012	-0.0015	-10.4	31
0.0127	-0.0091	0.006	-0.012	-10.6	31
0.006	-0.0015	0.003	-0.0165	-10.6	31
0.003	0.0022	-0.0023	-0.0105	-10.9	31
-0.0015	-0.0015	-0.0098	-0.006	-10.9	31
-0.0046	-0.0068	-0.0195	0.003	-11	31
-0.0023	-0.0068	-0.0256	0.0015	-11.2	31
0.0007	-0.0008	-0.0233	0.0052	-11.5	31
0.0052	-0.0015	-0.0158	0.0127	-11.6	31
0.0082	-0.0053	-0.006	0.0045	-11.8	31
0.0082	-0.0053	-0.003	-0.0046	-11.9	31
0.0082	-0.0068	-0.0008	-0.0023	-12.1	31
0.009	-0.012	0.0052	-0.0015	-12.2	31
0.0037	-0.0083	0.018	-0.0046	-12.4	31
-0.0091	-0.003	0.0307	-0.0046	-12.6	31
-0.0353	0.0015	0.0345	-0.0068	-12.6	31
-0.0443	0.0082	0.0382	-0.0091	-13.1	31
-0.027	0.0082	0.039	-0.0105	-12.9	31
-0.0158	0.0052	0.0285	-0.0046	-13.4	31
-0.0105	-0.0008	0.0082	0.0022	-13.3	31
-0.0068	-0.0046	-0.0053	0.0045	-13.6	31
-0.0038	-0.003	-0.0075	0.0007	-13.8	31
-0.0008	-0.0038	-0.0091	-0.0008	-14.1	31
-0.0008	0	-0.0128	0.0015	-13.9	31
0.0015	0.0007	-0.0135	0.0015	-14.6	31
0.0015	-0.0008	-0.0165	-0.0083	-14.5	31
0.0022	-0.0008	-0.0225	-0.021	-14.9	31
0.0037	0.0007	-0.0218	-0.015	-15.1	31
0.0045	-0.0008	-0.0181	-0.0083	-15.2	31
0.0052	-0.0023	-0.0158	-0.0165	-15.6	31
0.0075	0.0007	-0.0105	-0.0083	-15.5	31
0.0082	0.0015	-0.0046	0.0105	-16	31
0.009	0.0045	-0.0008	0.018	-16	31
0.0097	0.0105	0.0007	0.0195	-16.2	31
0.0105	0.0097	0.0022	0.0262	-16.7	31
0.006	0.0045	0.0045	0.0307	-16.7	31
0.003	0.0007	0.0082	0.0277	-16.9	31
0.0007	-0.0038	0.0075	0.0337	-17.2	31
0	-0.0068	-0.0023	0.0202	-17.2	31
0.0015	-0.0053	-0.0143	-0.0075	-17.6	31
-0.0008	-0.0068	-0.027	-0.0165	-17.6	31
-0.0015	-0.0053	-0.033	-0.0135	-18.1	31
-0.0008	-0.0053	-0.0308	-0.0113	-18.4	31
0.0037	-0.0091	-0.027	-0.003	-18.4	31
0.009	-0.0091	-0.0158	0.012	-19.1	31
0.0082	-0.0053	-0.006	0.0195	-18.8	31
0.0045	-0.0008	0.0045	0.0195	-19.5	31
-0.006	-0.0023	0.0165	-0.0046	-19.5	31
-0.027	0	0.0232	-0.0195	-19.9	31
-0.0346	-0.0015	0.0277	-0.0083	-20.1	31
-0.0091	-0.003	0.027	-0.0083	-20.2	31
0.0097	-0.0015	0.018	-0.0053	-20.4	31
0.0067	-0.0053	0.0082	-0.0091	-20.6	31
0.0052	-0.006	-0.0008	-0.0128	-20.7	31
0.0067	0	-0.0098	-0.0098	-20.8	31
0.0082	0.0082	-0.0165	-0.0143	-21.4	31
0.0067	0.006	-0.0181	-0.012	-21.3	31
-0.0008	0.0007	-0.0158	-0.0068	-21.7	31
-0.0143	-0.0008	-0.0128	-0.0068	-21.7	31
-0.0165	-0.0068	-0.0068	-0.012	-22.4	31
-0.0053	-0.0158	-0.0023	-0.0075	-22.3	31
-0.0053	-0.0188	-0.0023	-0.0038	-22.7	31
0	-0.0105	0	0.0007	-22.8	31
0.0015	-0.006	0.0007	0	-22.9	31
-0.0008	-0.0068	-0.0008	-0.012	-23.5	31
0.003	-0.0068	-0.003	-0.0135	-23.3	31
0.0015	-0.0046	-0.0046	-0.0143	-23.9	31
0.0015	0.0007	-0.003	-0.0143	-24	31
0.0015	0.0007	-0.0008	-0.0008	-24.2	31
0.003	0.0007	0.0015	0.0172	-24.3	31
0.0022	-0.0008	0.0022	0.0217	-24.8	31
0.0022	-0.003	0.0045	0.0127	-24.8	31
0.003	-0.0015	0.0052	0.009	-25.2	31
0.0015	0.0015	0.0052	0.0015	-25.4	31
0.0007	0.003	0.0067	0	-25.5	31
0	-0.0015	0.0067	-0.0046	-25.9	31
-0.0008	-0.0008	0.0075	-0.0143	-26	31
-0.0023	-0.0046	0.0067	-0.0195	-26.4	31
-0.0038	-0.0068	0.0052	-0.0263	-26.2	31
-0.0015	-0.003	0.0045	-0.0263	-27	31
0.0015	-0.003	0.0067	-0.0038	-26.8	31
0.0022	-0.0008	0.0052	0.0322	-27.1	31
0.0015	-0.003	0.0007	0.0667	-27.2	31
0.0007	-0.006	0	0.0697	-27.6	31
0.0007	-0.0046	-0.0008	0.0322	-27.7	31
0.0007	-0.003	0.0015	0.0127	-27.9	31
0.0015	-0.003	0	0.0045	-28	31
0.0022	-0.003	-0.0015	-0.0105	-28.3	31
0.0015	-0.0015	-0.003	-0.03	-28.6	31
-0.0008	-0.0015	-0.0038	-0.0368	-28.5	31
0	-0.0008	-0.0008	-0.015	-29.1	31
0.0015	-0.0015	-0.0038	-0.0248	-29	31
0.0015	0.0015	-0.0023	-0.021	-29.4	31
0.0015	0.0037	0.0007	0.0105	-29.6	31
0.0015	0.0015	0.0007	0.03	-29.8	31
0.0015	-0.0008	0.0007	0.0405	-30.2	31
-0.0008	-0.0015	0.0015	0.0232	-30.1	31
-0.0015	-0.0053	0.003	0.0127	-30.6	31
-0.0008	-0.0068	0.003	0.0217	-30.4	31
-0.0008	-0.003	0.0022	0.0157	-30.8	31
-0.0015	-0.0038	0.0007	-0.0053	-30.8	31
-0.0008	-0.0038	0.0007	-0.0158	-31.1	31
0.0007	0.0022	0.003	-0.0188	-31.1	31
0	0.0067	0.003	-0.0173	-31.7	31
-0.0008	0.0022	0.0015	0.003	-31.5	31
-0.0015	-0.0015	0.0007	0.0202	-32	31
-0.003	-0.003	0.0007	0.012	-32	31
-0.0053	-0.0015	0.0007	-0.003	-32.4	31
-0.0053	-0.0015	-0.0008	-0.003	-32.6	31
-0.0046	-0.0015	-0.0015	-0.0008	-32.7	31
-0.003	-0.0015	-0.0015	0.0015	-33	31
-0.0008	-0.0053	-0.003	-0.0008	-33	31
0.0007	-0.0053	-0.0008	-0.006	-33.5	31
0.0007	-0.0015	0	-0.0113	-33.4	31
0.0007	0.0007	0	-0.0135	-33.6	31
0.0007	0.0015	0	-0.006	-33.9	31
0.0007	0.0007	0	-0.0053	-34	31
0.0007	0	-0.0008	-0.0075	-34.1	31
0.0007	-0.0015	0.0007	-0.012	-34.3	31
0.0015	-0.0008	0.0007	-0.0083	-34.2	31
-0.0008	-0.0008	0.0022	-0.0008	-34.3	31
-0.0015	-0.0015	0.0015	-0.0023	-34.7	31
-0.0008	-0.0053	0.0022	-0.0015	-34.6	31
-0.0023	-0.0046	0.003	-0.0023	-35.1	31
-0.0023	-0.0038	0.0015	-0.0091	-34.8	31
-0.003	0.0007	0.0015	-0.021	-35.5	31
-0.0023	0.0052	0.0007	-0.0165	-35.2	31
-0.003	0.003	-0.0008	-0.0083	-35.7	31
-0.0023	0.0022	0.0007	-0.0068	-35.7	31
0	0.003	0.0015	0.0022	-35.8	31
0.0007	0.0015	0.003	0.0142	-36	31
0.0015	0	0.0045	0.0367	-36	31
0.0015	-0.003	0.0015	0.039	-36.1	31
0.0015	-0.0008	0.0037	0.0195	-36.4	31
0.0007	0	0.0082	0.0037	-36.6	31
0.0022	-0.0015	0.0067	-0.0068	-36.3	31
0.003	-0.0023	0.0052	-0.0053	-36.9	31
0	-0.0015	0.0015	-0.0023	-36.6	31
0.0007	-0.0015	-0.0015	-0.0046	-36.9	31
0	-0.0023	-0.0046	-0.0195	-36.9	31
-0.0015	-0.0015	-0.006	-0.0428	-37.4	31
0.0007	0.0007	-0.0046	-0.0503	-37.1	31
-0.0008	-0.0008	-0.0038	-0.0293	-37.3	31
-0.003	-0.0068	-0.0068	0.0082	-37.5	31
-0.006	-0.0105	-0.0083	0.0262	-37.4	31
-0.006	-0.0128	-0.0068	0.0472	-37.8	31
-0.003	-0.0091	-0.003	0.0705	-37.6	31
-0.0015	-0.0053	0.0015	0.0382	-37.6	31
-0.003	-0.0038	0.0007	0.0052	-37.6	31
-0.0015	-0.0083	-0.0038	0.0007	-37.8	31
0.0007	-0.0113	-0.0068	-0.0083	-37.8	31
0.0007	-0.0075	-0.0083	-0.0143	-38.1	31
-0.0008	-0.0053	-0.0068	-0.0203	-37.9	31
-0.0015	-0.003	-0.0068	-0.0008	-38.1	31
-0.0008	0.0037	-0.0046	0.0315	-38.1	31
-0.0008	0.0097	-0.003	0.0142	-38.2	31
-0.0008	0.0075	-0.0053	-0.0053	-38.4	31
0	0.0037	-0.0075	0.003	-38.1	31
-0.0008	0.003	-0.006	-0.0188	-38.7	31
-0.0008	0.0015	-0.0053	-0.033	-38.4	31
-0.0015	-0.0008	-0.0038	-0.0256	-38.7	31
0	-0.0015	-0.003	-0.024	-38.5	31
0.0007	0.0037	-0.0046	-0.0181	-38.9	31
0.0007	0.0015	-0.0053	-0.021	-39	31
0.0007	-0.003	-0.0038	-0.003	-38.9	31
0.003	-0.0091	-0.0046	0.0165	-39.1	31
0.0045	-0.012	-0.0046	0.0255	-39.3	31
0.0037	-0.0113	-0.0038	0.0142	-39.2	31
0.0037	-0.012	-0.003	-0.0091	-39.5	31
0.0015	-0.0083	-0.0015	0.0007	-39.4	31
0.0007	-0.0068	-0.0023	0.009	-39.4	31
0	-0.0075	-0.0038	-0.0015	-39.7	31
-0.0023	-0.0091	-0.0046	-0.0098	-39.5	31
-0.0046	-0.0075	-0.0015	-0.0158	-39.7	31
-0.0038	-0.0068	-0.003	-0.0143	-39.8	31
-0.003	-0.006	-0.0038	0.0105	-39.9	31
-0.0023	-0.003	-0.0015	0.0367	-40	31
-0.0023	-0.0046	-0.0008	0.0097	-40.1	31
-0.0023	-0.0075	0.0015	-0.0195	-40.4	31
-0.003	-0.006	0.003	-0.024	-40.4	31
-0.0015	-0.003	0.003	-0.0346	-40.5	31
0	-0.0023	0.003	-0.0158	-40.6	31
0	-0.0015	0.0037	0.0022	-40.7	31
0	0	0.003	0.0022	-40.5	31
0.0007	-0.0008	0.0015	-0.006	-40.9	31
0	-0.0083	0.0007	-0.024	-40.7	31
0	-0.0091	0.0007	0.0037	-41.1	31
-0.0008	-0.0046	0.0015	0.0367	-40.8	31
0.0007	0.0052	0.0015	0.033	-41.3	31
-0.0008	0.0045	0.0007	0.003	-40.8	31
-0.0015	-0.0075	0.0007	-0.0143	-40.9	31
-0.0008	-0.003	0.0007	-0.0346	-41.3	31
-0.0008	-0.003	0.0015	-0.045	-41.1	31
-0.0023	-0.0015	0.003	-0.0143	-41.5	31
-0.003	-0.0015	0.0015	0.0037	-41.4	31
0	-0.0023	0.0007	0.018	-41.3	31
0.0007	0.0022	0.0007	0.024	-41.5	31
0.0007	0.0045	0.0007	0.0097	-41.8	31
0.0015	0.0082	0	-0.006	-41.4	31
0.0015	0.0045	0.0015	0.0045	-41.6	31
0.0007	0.006	0.0015	0.0045	-41.4	31
-0.0015	0.0082	-0.0008	-0.0105	-41.7	31
-0.0015	0.0052	0	-0.0046	-41.7	31
-0.003	0.0037	0.0022	0.0052	-41.5	31
-0.003	0.0052	0.0015	0.0007	-41.8	31
-0.0015	0.0082	0.0007	-0.0083	-41.5	31
-0.003	0.0007	-0.0023	0.0007	-41.9	31
-0.003	-0.0008	-0.003	0.0307	-41.7	31
-0.0015	0.0075	-0.0008	0.0502	-41.9	31
-0.0015	0.009	-0.003	0.033	-41.9	31
-0.0015	0.009	-0.0023	0.0157	-41.8	31
-0.0008	0.0105	0.0007	0.0105	-41.9	31
-0.0008	0.0127	0.0015	-0.0008	-41.9	31
-0.0008	0.0105	-0.0023	0.0015	-41.9	31
-0.0008	0.0052	-0.0046	-0.0046	-42	31
-0.0008	0.0022	-0.0015	-0.0173	-42	31
-0.0023	-0.0023	-0.0015	-0.012	-41.8	31
-0.0023	-0.0023	-0.0015	-0.0083	-42	31
0	-0.0008	0	-0.0128	-41.7	31
0	-0.003	-0.0008	-0.0315	-42.2	31
0.0007	-0.0023	0.0007	-0.0361	-41.8	31
-0.0008	-0.006	-0.0008	0.0045	-42.1	31
-0.0008	-0.0075	-0.0008	0.0345	-41.9	31
-0.0008	-0.0046	-0.0015	0.0082	-41.9	31
-0.003	-0.0046	-0.003	-0.0428	-42.1	31
-0.003	-0.0046	-0.0015	-0.042	-41.7	31
-0.003	-0.003	-0.0008	-0.0038	-42	31
-0.003	-0.0023	-0.0015	0.018	-41.9	31
-0.0015	-0.0038	-0.0023	0.0007	-42	31
-0.0023	-0.0046	-0.0015	-0.024	-42.2	31
-0.0015	-0.0046	-0.0023	-0.012	-42	31
-0.0008	-0.0075	-0.003	0.0007	-42	31
0	-0.0091	-0.0023	0.0082	-42.1	31
0	-0.0128	-0.003	0.0015	-42.1	31
0.0007	-0.0128	-0.0023	-0.0075	-42	31
0.0015	-0.0075	-0.0008	0.0105	-42.1	31
0.0007	0.0045	0.0007	0.0097	-41.9	31
0.0007	0.0015	-0.0008	-0.0203	-42.2	31
0	-0.0091	-0.0015	-0.0308	-41.9	31
-0.0008	-0.0068	-0.0008	-0.0181	-42.3	31
-0.0015	-0.0091	0	0.0187	-41.9	31
-0.0023	-0.0053	0.0007	0.0112	-42.1	31
-0.0023	-0.0015	0	-0.0338	-42.1	31
-0.0015	-0.0008	0.0007	0.0187	-42.1	31
-0.0008	-0.0008	0.0015	0.048	-42.2	31
-0.0008	-0.0068	0	0.003	-42.3	31
-0.0015	-0.0053	0	0.0075	-42.1	31
-0.0015	-0.006	0.0007	0.0045	-42.3	31
-0.0015	-0.0046	0.0022	0.0007	-42.1	31
-0.0008	-0.0015	0.003	0.015	-42.1	31
-0.0008	0.0007	0.0015	-0.0023	-42.4	31
-0.0015	-0.003	0.0022	-0.0098	-42	31
-0.0015	-0.0046	0.0022	-0.0158	-42.1	31
-0.0015	-0.0008	0.003	-0.012	-42.1	31
-0.0008	-0.0015	0.0022	-0.006	-42	31
-0.003	0.0022	0	0.0195	-42.2	31
-0.0046	0	0.0015	0.027	-42	31
-0.003	-0.003	0.0015	-0.0015	-42.3	31
-0.003	-0.0015	0.0007	0.0052	-42.1	31
-0.0023	0	0.0007	-0.0023	-41.9	31
-0.0015	-0.0015	-0.0023	-0.0248	-41.9	31
0.0007	-0.0046	-0.0023	-0.0323	-41.9	31
0.0022	-0.003	-0.003	-0.0023	-41.6	31
0.0037	-0.006	-0.0053	0.0502	-41.9	31
0.003	-0.0075	-0.0053	0.0352	-41.6	31
0.0045	-0.0083	-0.003	0.0105	-41.9	31
0.006	-0.0075	-0.0023	0.012	-41.3	31
0.0052	-0.006	-0.0046	-0.0075	-41.5	31
0.0052	-0.0015	-0.0038	-0.0233	-41.5	31
0.0037	0.0007	-0.003	-0.0256	-41.4	31
0.003	0.0015	-0.0038	0.012	-41.2	31
0.0037	-0.0015	-0.0053	0.0292	-41	31
0.0045	-0.0046	-0.0046	-0.0015	-41.1	31
0.003	-0.0046	-0.0015	-0.0233	-41	31
0.003	-0.0046	-0.0023	-0.0053	-40.8	31
0.0037	0.0015	-0.0015	0.0465	-40.7	31
0.003	0.006	-0.003	0.033	-40.8	31
0.006	0.0067	-0.003	-0.0098	-40.5	31
0.006	0.0007	-0.0053	-0.0428	-40.7	31
0.0045	0.0007	-0.0038	-0.042	-40.3	31
0.0052	0.0007	0	0.012	-40.3	31
0.0037	-0.0083	-0.0008	0.0255	-40.3	31
0.0015	-0.0105	-0.0008	0.003	-40	31
0.0022	-0.0068	-0.0015	-0.003	-40.3	31
0.0015	-0.0046	-0.003	-0.0105	-39.7	31
-0.0008	-0.003	-0.0046	-0.0488	-40.1	31
-0.0015	-0.0008	-0.0038	-0.048	-39.5	31
-0.0015	0	-0.0015	0.0067	-39.7	31
-0.0023	0.0015	-0.0015	0.054	-39.5	31
-0.003	0.0015	0	0.0405	-39.4	31
-0.0038	-0.0008	-0.003	0.0037	-39.2	31
-0.003	-0.0008	-0.0023	-0.0015	-39.2	31
-0.003	-0.0046	-0.0008	0.0015	-39.2	31
-0.003	-0.0046	-0.0008	0.0067	-38.9	31
-0.003	-0.0038	0.0007	0.0187	-39.1	31
-0.0015	-0.0075	-0.0023	0.0225	-38.7	31
-0.003	-0.006	-0.0015	0.003	-38.9	31
-0.0023	-0.003	-0.0008	-0.0158	-38.4	31
-0.0008	-0.0038	0	-0.0315	-38.6	31
0.0007	-0.0023	0.0022	-0.0165	-38.3	31
0	-0.003	0.0022	-0.0218	-38.2	31
-0.0008	-0.0046	0.0015	-0.042	-38.2	31
-0.0015	-0.003	0.003	-0.0015	-38	31
0	-0.0053	0.0045	0.0307	-37.9	31
-0.0008	-0.0008	0.0037	0.0255	-37.5	31
-0.0015	-0.0015	0.0037	-0.0015	-37.7	31
-0.0015	-0.0038	0.003	-0.0068	-37.6	31
-0.0015	-0.003	0.003	-0.0068	-37.6	31
-0.003	-0.0053	0.003	-0.0053	-37.4	31
-0.003	-0.0075	0.0007	0.0105	-37.4	31
-0.0008	-0.0046	0.0007	0.0315	-37.2	31
-0.0008	-0.0038	0.0007	0.06	-37	31
-0.0008	-0.0053	-0.0008	0.0382	-37.2	31
0.0007	-0.0046	0.0015	-0.0113	-36.9	31
0.0007	-0.0015	0.0015	-0.0436	-37.1	31
0.0022	0	-0.0008	-0.0105	-36.5	31
0.0015	-0.0008	0.0007	0.0045	-36.8	31
0.0007	0	0.0007	-0.03	-36.5	31
0.0015	-0.0008	0.0022	-0.0083	-36.6	31
-0.0008	-0.0038	0.0022	-0.0091	-36.4	31
-0.0015	-0.0015	0.0037	-0.0188	-36.3	31
-0.0008	-0.003	0.003	-0.0173	-36.3	31
-0.0008	-0.0053	-0.0008	-0.0098	-36.3	31
-0.0023	-0.003	-0.0008	0.0315	-36	31
-0.003	-0.0053	-0.003	0.0427	-36	31
-0.003	-0.0053	-0.003	0.0352	-35.9	31
-0.0015	-0.0046	-0.0046	0.0255	-35.8	31
-0.0008	-0.0046	-0.003	-0.0046	-35.8	31
-0.0023	-0.003	-0.0008	-0.0405	-35.6	31
-0.0015	-0.0023	-0.0015	-0.0473	-35.7	31
-0.0008	-0.0038	-0.0008	-0.0443	-35.5	31
-0.0015	-0.003	-0.0008	-0.078	-35.5	31
-0.0015	-0.003	-0.0008	-0.09	-35.6	31
-0.0023	-0.0008	0.0007	0.0045	-35.1	31
-0.0015	0	0.0007	0.0922	-35.2	31
0.0007	0.0007	0	0.0832	-34.8	31
0.0007	0.0007	-0.0015	0.0862	-35.1	31
0	0.0007	-0.0038	0.0412	-34.7	31
0.0015	0.0007	-0.003	-0.003	-34.7	31
0.0015	-0.0008	-0.0038	0.0007	-34.6	31
0.0015	-0.0015	-0.0046	-0.0091	-34.5	31
0.0015	-0.003	-0.0038	0.0307	-34.3	31
0.0015	-0.0015	-0.0015	0.0127	-34.6	31
0.0007	-0.0015	-0.0015	-0.024	-34.3	31
-0.0008	-0.003	-0.0023	-0.0128	-34.2	31
-0.0008	-0.003	-0.0015	-0.0091	-34.3	31
-0.003	-0.0046	-0.003	-0.0128	-34	31
-0.0046	-0.0046	-0.0038	-0.0195	-34	31
-0.0053	-0.0046	-0.0046	0.0045	-33.8	31
-0.006	-0.0008	-0.0038	0.0427	-33.7	31
-0.0068	0.0007	-0.0038	0	-33.8	31
-0.0083	0.003	-0.003	-0.0518	-33.5	31
-0.0091	0.0045	-0.0008	-0.0083	-33.7	31
-0.012	0.0007	0	-0.0158	-33.4	31
-0.012	-0.0038	-0.0015	-0.0218	-33.2	31
-0.0046	-0.0046	-0.0015	-0.0015	-33.3	31
-0.0008	-0.0068	-0.0015	-0.0248	-33.2	31
-0.0008	-0.0083	-0.0068	-0.0135	-33	31
0.0007	-0.0068	-0.006	-0.0113	-33.2	31
0.0007	-0.006	-0.0068	0.0045	-32.6	31
-0.0008	-0.003	-0.0083	0.0157	-33	31
0.0007	-0.0008	-0.0068	0.003	-32.7	31
0.003	-0.0008	-0.0046	0.0007	-32.9	31
0.0045	0.003	-0.0046	-0.0091	-32.6	31
0.0037	0.006	-0.006	-0.0075	-32.5	31
0.003	0.0045	-0.003	-0.0053	-32.6	31
0.0037	0.0015	-0.0023	-0.003	-32.2	31
0.0045	-0.0015	-0.003	-0.0015	-32.4	31
0.0045	-0.0053	-0.003	-0.0015	-32.1	31
0.003	-0.003	-0.003	-0.0015	-32	31
0.0045	-0.0008	-0.0046	-0.0023	-32	31
0.0045	0.0007	-0.0046	-0.012	-32	31
0.0045	-0.0008	-0.003	-0.0225	-31.9	31
0.0045	-0.0015	-0.0023	-0.0053	-31.9	31
0.0022	0.0067	-0.0008	-0.0015	-31.6	31
0.0007	0.0067	-0.0008	-0.048	-31.6	31
-0.0008	0.0045	0.0007	-0.0256	-31.7	31
-0.0008	-0.0046	0.0022	0.0607	-31.4	31
-0.0015	-0.0128	0.0007	0.0457	-31.5	31
-0.0008	-0.0105	0.0015	0.024	-31.1	31
-0.0008	-0.012	-0.0008	0.0742	-31.4	31
-0.0023	-0.0128	-0.0023	0.0892	-30.9	31
-0.0015	-0.0113	0.003	0.0495	-31.2	31
-0.0015	-0.0083	0.0082	-0.0833	-30.8	31
0.0007	-0.0053	0.0075	-0.1508	-31	31
0.0007	0	0.0022	-0.0195	-30.7	31
-0.0008	0.0037	-0.0008	0.0562	-30.8	31
-0.0015	0.0015	-0.003	0.0082	-30.5	31
-0.0023	0.0007	-0.0053	-0.0015	-30.6	31
-0.0015	-0.0015	-0.0083	0.015	-30.5	31
-0.0015	-0.0015	-0.012	0.0105	-30.2	31
-0.0038	-0.0008	-0.0173	-0.0128	-30.5	31
-0.0083	0.0007	-0.0195	-0.0436	-30.1	31
-0.0068	-0.0008	-0.0158	-0.0765	-30.4	31
-0.0015	0.0015	-0.012	-0.0638	-30	31
0.0007	0.003	-0.0083	-0.0068	-30	31
-0.0008	0.0037	-0.0008	-0.0225	-30	31
0.0007	0.009	0.0052	0.0172	-29.7	31
-0.0008	0.009	0.0105	0.0877	-29.8	31
-0.003	0.0067	0.0142	0.0577	-29.6	31
-0.003	0.003	0.0142	0.024	-29.7	31
-0.0038	0.0007	0.015	0.0157	-29.4	31
-0.0046	0.0015	0.0127	0.0112	-29.5	31
-0.0091	0.0015	0.012	0.0037	-29.4	31
-0.0128	-0.0008	0.009	0.0015	-29.3	31
-0.0068	-0.0046	-0.0015	-0.0135	-29.1	31
-0.0015	-0.0105	-0.0075	-0.0195	-29.1	31
-0.0008	-0.0173	-0.012	-0.0143	-29.1	31
0.0037	-0.0218	-0.0165	0.0142	-28.9	31
0.009	-0.0181	-0.0173	0.0255	-29.2	31
0.0105	-0.012	-0.0143	0.0007	-28.7	31
0.0082	-0.0098	-0.0128	0.003	-29	31
0.003	-0.0098	-0.0135	-0.015	-28.5	31
0.0022	-0.0068	-0.0105	-0.0165	-28.7	31
0.0052	-0.0046	-0.0083	-0.0105	-28.5	31
0.0015	0.0022	-0.0068	-0.0315	-28.4	31
0	0.0112	0.0007	-0.0143	-28.5	31
0.0037	0.0112	0.0127	0.0435	-28.4	31
0.0052	0.0067	0.0232	0.0615	-28.3	31
0.0067	0.0045	0.0277	0.0105	-28.1	31
0.0097	0.0075	0.024	0.0067	-27.9	31
0.006	0.0082	0.0232	-0.0075	-27.9	31
-0.0053	-0.0053	0.0285	-0.0436	-27.9	31
-0.0158	-0.0135	0.0315	-0.039	-27.7	31
-0.0203	-0.0143	0.0285	-0.057	-27.9	31
-0.0165	-0.0128	0.0142	-0.0263	-27.5	31
-0.0105	-0.0113	-0.0015	0.0622	-27.7	31
-0.0083	-0.0135	-0.0158	0.0787	-27.5	31
-0.003	-0.006	-0.0293	0.0472	-27.4	31
0.0022	0.003	-0.033	0.021	-27.6	31
0.0045	0.012	-0.027	-0.0195	-27.1	31
0.0045	0.018	-0.0203	-0.0263	-27.4	31
0.0067	0.009	-0.0128	-0.0143	-26.9	31
0.012	-0.003	-0.0046	-0.0233	-26.9	31
0.0112	-0.0083	0.0007	-0.0863	-26.9	31
0.0105	-0.0083	0.003	-0.093	-26.8	31
0.009	-0.012	0.0105	0.0405	-26.4	31
0.006	-0.0113	0.0172	0.1627	-26.7	31
0	-0.0083	0.0172	0.066	-26.3	31
-0.0008	-0.0053	0.0052	-0.0428	-26.4	31
0.0045	-0.0046	-0.0113	-0.0203	-26.3	31
0.0045	-0.0023	-0.0203	-0.0638	-26.1	31
0.006	0.0067	-0.0218	-0.0368	-26	31
0.0105	0.0142	-0.0233	0.0157	-25.7	31
0.0105	0.015	-0.0203	0.1012	-25.9	31
0.0045	0.0097	-0.0165	0.0787	-25.7	31
-0.0075	0.0067	-0.0068	-0.0263	-25.6	31
-0.0158	0.0105	0.0052	-0.0518	-25.6	31
-0.0128	0.0135	0.0127	-0.063	-25.4	31
-0.0091	0.0157	0.0187	-0.0008	-25.4	31
-0.0068	0.0135	0.0157	-0.003	-25.1	31
-0.0038	0.0097	0.0135	0.0465	-25.1	31
-0.0113	0.0015	0.0105	0.027	-25.2	31
-0.0173	-0.0091	0.0052	-0.0293	-24.9	31
-0.0143	-0.0256	0.0007	-0.048	-24.8	31
-0.0143	-0.033	-0.0023	-0.0871	-24.8	31
-0.0165	-0.0203	-0.0008	-0.0555	-24.3	31
-0.0075	0.0015	0.0007	0.0315	-24.5	31
-0.0008	0.015	-0.003	0.081	-24.2	31
-0.0023	0.009	-0.0105	0.012	-24.5	31
0.0015	-0.0046	-0.0158	0.0007	-24.2	31
0.0045	-0.0165	-0.0195	-0.015	-24.2	31
0.0127	-0.0158	-0.0256	0.0007	-24.1	31
0.024	-0.0046	-0.0293	0.042	-23.9	31
0.0307	0.0007	-0.021	0.039	-23.9	31
0.0277	-0.0068	-0.0128	0.0435	-23.7	31
0.0127	-0.0218	-0.0083	-0.0046	-23.5	31
-0.0008	-0.0308	0.0007	-0.0143	-23.6	31
-0.0128	-0.0285	0.012	-0.0075	-23.5	31
-0.0195	-0.0218	0.0157	-0.0525	-23.1	31
-0.0083	-0.0053	0.0067	-0.0158	-23.4	31
0.0075	0.0105	-0.0083	-0.0008	-23.1	31
0.0135	0.0217	-0.0195	-0.0615	-23	31
0.0105	0.0315	-0.0203	-0.0518	-23	31
0.0045	0.0382	-0.0098	-0.0518	-22.7	31
0.0097	0.0262	-0.003	-0.0511	-23	31
0.0195	-0.003	-0.0008	-0.0143	-22.5	31
0.009	-0.027	0.0052	0.0855	-22.7	31
-0.0113	-0.0428	0.018	0.1125	-22.2	31
-0.0158	-0.0293	0.027	0.0255	-22.3	31
-0.0113	-0.0128	0.0352	0.0315	-22.3	31
-0.0105	-0.0143	0.0472	0.012	-22.2	31
-0.0098	-0.0143	0.039	-0.0278	-22.1	31
-0.0083	0.0045	0.0262	0.0015	-22.1	31
0.0007	0.0225	0.0172	0.039	-22	31
0.0022	0.018	-0.0091	-0.0413	-21.8	31
-0.003	0.0232	-0.0323	-0.099	-22	31
0.0037	0.024	-0.0488	0.0067	-21.6	31
-0.0008	0.0127	-0.054	0.0997	-21.9	31
-0.0008	0.0052	-0.0368	0.0802	-21.4	31
-0.0091	-0.0038	-0.0015	0.0112	-21.6	31
-0.03	-0.0158	0.0225	-0.0105	-21.6	31
-0.0233	-0.0091	0.0195	-0.0638	-21.3	31
-0.0173	0.0052	0.0195	-0.0405	-21.5	31
-0.0195	0.006	0.0232	-0.0188	-21	31
-0.0218	-0.0053	0.0412	-0.039	-21.5	31
-0.0225	-0.0173	0.069	0.0667	-20.9	31
-0.0083	-0.0023	0.0652	0.1275	-21.1	31
0.0142	-0.0023	0.0382	0.039	-21	31
0.0292	-0.003	0.0195	-0.0165	-20.8	31
0.0322	0.0082	-0.0015	-0.0758	-20.7	31
0.0345	-0.0008	-0.0158	-0.1223	-20.7	31
0.0277	-0.0008	-0.0128	0.0472	-20.5	31
0.021	0.0052	-0.0075	0.0862	-20.3	31
0.0277	0.018	-0.0091	0.0105	-20.4	31
0.033	-0.0015	-0.024	-0.0068	-20	31
0.045	-0.0293	-0.0458	-0.0383	-20.4	31
0.045	-0.0308	-0.0533	-0.0165	-19.9	31
0.0217	-0.0203	-0.045	-0.0023	-20.1	31
0	0.0022	-0.0353	-0.003	-19.9	31
-0.0203	0.0195	-0.0256	-0.0518	-19.8	31
-0.024	0.0277	-0.0181	-0.0803	-19.9	31
-0.024	0.0187	-0.0113	-0.0863	-19.5	31
-0.0285	-0.0015	-0.021	-0.0706	-19.6	31
-0.0465	-0.0218	-0.03	0.0322	-19.3	31
-0.0915	-0.0361	-0.0203	0.1575	-19.2	31
-0.108	-0.0555	-0.0091	0.156	-19.3	31
-0.075	-0.0503	0.0015	-0.0413	-19.2	31
-0.0165	-0.0091	-0.0105	-0.0848	-18.8	31
0.0112	-0.0015	-0.0143	-0.0143	-19	31
0.0127	-0.0053	-0.0075	-0.0623	-18.6	31
0.0195	-0.0105	-0.0135	-0.0706	-18.5	31
0.015	-0.012	-0.0105	-0.06	-18.3	31
0.0217	-0.0046	-0.0278	0.0315	-18.2	31
0.0127	-0.0143	-0.0353	0.1065	-18.2	31
0.006	-0.0195	-0.0075	0.063	-17.9	31
0.0165	-0.0278	0.0225	0.0097	-18.1	31
0.0135	-0.0256	0.0495	0.057	-17.6	31
0.0195	-0.0068	0.0802	0.0082	-17.8	31
0.021	0.0217	0.1042	-0.1575	-17.6	31
0.0127	0.0352	0.0892	-0.0653	-17.3	31
0.0007	0.0202	0.0405	0.0165	-17.3	31
0.0075	0.021	0.0067	0.0262	-17.2	31
0.0345	0.0315	-0.0135	0.0577	-16.7	31
0.0367	0.0277	-0.0248	0.012	-16.8	31
0.0262	0.027	-0.0173	0.033	-16.2	31
0.024	0.0255	-0.0128	0.018	-16.5	31
0.0195	0.0202	0.0015	-0.0203	-16.1	31
0.009	0.0082	0.0142	-0.0165	-16	31
0.0067	-0.0038	0.039	0.018	-15.8	31
0.0015	0.0022	0.0652	0.12	-15.6	31
-0.0046	0.003	0.0487	0.0885	-15.6	31
-0.006	-0.0165	0.0075	0.0315	-15.3	31
-0.0195	-0.033	-0.0323	-0.0053	-15.3	31
-0.0375	-0.0218	-0.0458	-0.06	-15.2	31
-0.042	-0.021	-0.0593	-0.0436	-15	31
-0.0165	-0.0135	-0.0645	-0.06	-14.7	31
0.0007	0.0105	-0.06	0.015	-14.7	31
-0.0015	0.0217	-0.0525	0.0315	-14.4	31
0.0015	0.0367	-0.0256	-0.0053	-14.5	31
-0.0068	0.048	-0.003	0.0097	-14	31
-0.0105	0.0427	0.0202	-0.0248	-14.1	31
0.0105	0.018	0.0307	-0.0015	-13.8	31
0.0382	-0.003	0.0292	-0.0143	-13.7	31
0.0352	-0.0233	0.0195	0	-13.7	31
0.0232	-0.0413	0.0075	0	-13.1	31
0.0142	-0.0518	-0.006	-0.0091	-13.3	31
0.0015	-0.0698	-0.0293	0.0067	-12.8	31
0.0052	-0.0593	-0.0353	-0.0038	-13	31
-0.003	-0.0053	-0.0413	0.0007	-12.6	31
-0.0173	0.0375	-0.0413	-0.0143	-12.4	31
-0.0428	0.0412	-0.039	-0.0046	-12.5	31
-0.0691	0.0367	-0.0503	-0.0173	-12.2	31
-0.0503	0.0015	-0.0555	-0.0158	-12	31
-0.0083	-0.0398	-0.0645	0.018	-11.8	31
0.0202	-0.0263	-0.0533	0.0187	-12	31
0.0157	-0.0128	-0.0135	-0.0008	-11.5	31
0.0082	-0.0225	0.0247	-0.0083	-11.7	31
-0.0053	-0.0195	0.0525	-0.0113	-11.3	31
-0.012	0.0225	0.066	-0.0091	-11.3	31
0.0022	0.0517	0.0465	0.0007	-11	31
-0.0046	0.069	0.0255	-0.0023	-10.9	31
-0.0008	0.0637	0.0345	-0.0015	-10.8	31
0.0112	0.0157	0.0247	-0.0068	-10.6	31
0.0052	0.0015	0.0307	-0.003	-10.6	31
-0.0053	-0.0233	0.0862	-0.0068	-10.3	31
-0.0165	-0.0465	0.123	-0.0105	-10.5	31
-0.0158	-0.0593	0.123	-0.0083	-10.3	31
-0.0128	-0.0878	0.0892	-0.012	-10.2	31
-0.0195	-0.0833	0.0307	-0.012	-10.2	31
-0.012	-0.057	-0.0203	-0.0091	-10.2	31
0.0075	-0.0278	-0.0458	-0.0015	-9.9	31
0.0157	-0.012	-0.0548	0.0015	-10	31
0.0255	0.012	-0.0653	0.0052	-9.6	31
0.0247	0.0232	-0.0615	0.0052	-9.7	31
0.015	0.0307	-0.0473	0.0045	-9.8	31
0.0105	0.0322	-0.0293	0.0037	-9.4	31
0.0112	0.0142	-0.0233	0.003	-9.7	31
0.0127	0.0082	-0.0181	0.0045	-9.3	31
0.006	0.0052	-0.0128	0.0037	-9.5	31
0.015	0.0127	-0.0225	0.0045	-9.2	31
0.0247	0.0165	-0.024	0.0037	-9.5	31
0.027	0.0105	-0.021	0.006	-9.4	31
0.0247	-0.0015	-0.0248	0.0075	-9.3	31
0.0082	-0.0008	-0.0383	0.0082	-9.3	31
-0.0046	0.0105	-0.0346	0.0082	-9.2	31
-0.0413	0.0015	-0.0128	0.003	-8.9	31
-0.078	-0.015	0.0022	0.0007	-9.1	31
-0.06	-0.0263	0.018	-0.0008	-9	31
-0.027	-0.0218	0.0217	0	-8.9	31
-0.0158	-0.0046	0.018	0.003	-8.9	31
-0.0038	0.0105	0.003	0.0015	-8.9	31
-0.0046	0.006	-0.0008	-0.0008	-8.9	31
-0.0023	-0.0023	0.0075	-0.0046	-8.6	31
0.0142	0.0097	-0.0068	-0.003	-8.9	31
0.0187	0.0292	-0.0143	-0.0046	-8.6	31
0.021	0.0277	-0.0091	-0.006	-8.6	31
0.012	0.018	-0.0053	-0.003	-8.6	31
0.0127	0.0187	-0.0068	0.0067	-8.5	31
0.0202	0.0142	-0.0038	0.0142	-8.6	31
0.0202	0.003	0.0045	0.0067	-8.5	31
0.0142	-0.0308	0.0052	0.0015	-8.4	31
0.0007	-0.0436	0.0105	0.0007	-8.1	31
0.0015	-0.012	0.0157	0.0037	-8.4	31
0.0015	0.006	0.0105	0.0022	-8	31
-0.0046	0.006	0.0067	-0.003	-8.3	31
-0.0091	0.003	0.0037	-0.003	-7.8	31
-0.0015	-0.0015	0.003	-0.003	-8.2	31
0.0127	-0.0015	-0.0015	0.0007	-7.8	31
0.0225	-0.012	-0.0038	-0.0008	-8	31
0.0315	-0.0315	-0.0023	-0.0015	-7.7	31
0.0375	-0.0533	-0.0008	-0.0008	-7.5	31
0.0345	-0.0488	-0.0053	-0.0015	-7.7	31
0.0135	-0.024	-0.0083	-0.0023	-7.4	31
-0.0091	-0.0105	-0.0128	-0.0053	-7.4	31
-0.0181	0.0195	-0.024	-0.0046	-7.2	31
-0.0181	0.0487	-0.0203	-0.0053	-7.4	31
-0.0256	0.06	-0.0143	-0.0038	-7.1	31
-0.0458	0.0532	-0.003	-0.0008	-7.2	31
-0.0465	0.0247	0.0202	-0.0038	-7	31
-0.0181	0.0135	0.042	-0.0053	-7	31
-0.0203	0.0142	0.0532	-0.006	-6.8	31
-0.0203	0.0045	0.0442	-0.003	-6.7	31
-0.0008	-0.0113	0.0202	-0.0046	-7	31
-0.0105	-0.0346	-0.003	-0.0038	-6.6	31
0.0007	-0.0308	-0.012	-0.0008	-6.9	31
0.0112	-0.012	-0.003	0.0015	-6.6	31
0.009	-0.003	0.009	0.003	-7	31
0.0067	0.0045	0.018	0.0015	-6.7	31
0.0045	0.0045	0.0165	-0.0008	-7	31
0.0172	0.0045	0.012	-0.0008	-6.8	31
0.024	0.0052	0.018	0.0015	-6.9	31
0.0277	-0.0053	0.0217	0.0015	-6.8	31
0.0202	-0.0315	0.0195	0.0037	-7.1	31
0.0067	-0.039	0.0037	0.0007	-7.1	31
0.0022	-0.0233	-0.0195	-0.003	-7	31
0.0052	-0.0181	-0.024	-0.0023	-7.5	31
0.009	-0.0195	-0.0278	-0.003	-7.1	31
0.009	-0.0293	-0.033	0.0015	-7.6	31
0.0022	-0.033	-0.0203	0.003	-7.3	31
-0.0113	-0.0128	-0.0128	0	-7.7	31
-0.0128	0.0195	-0.0165	-0.0008	-7.7	31
-0.003	0.0277	-0.0278	0.0007	-7.9	31
-0.0008	0.0195	-0.042	0.0015	-7.9	31
-0.0203	0.0232	-0.0383	0.0015	-7.7	31
-0.0615	0.0255	-0.024	-0.0015	-8.1	31
-0.0615	0.0142	-0.0105	-0.0015	-7.8	31
-0.0113	-0.012	-0.0091	0.003	-8	31
0.0202	-0.0113	-0.0143	0.0037	-7.9	31
0.033	0.0052	-0.0008	0.0007	-7.9	31
0.0195	0.0112	0.0157	-0.003	-8	31
-0.0008	0.0045	0.0367	-0.0046	-7.9	31
-0.003	-0.0068	0.0645	-0.0046	-7.9	31
-0.006	-0.0008	0.0682	-0.0046	-7.8	31
-0.003	-0.0143	0.0577	-0.0046	-7.8	31
-0.0068	-0.0218	0.0532	-0.003	-7.5	31
-0.0015	-0.0225	0.0472	-0.0015	-7.8	31
0.006	-0.0181	0.018	0	-7.3	31
0.009	-0.0053	-0.012	0.0007	-7.4	31
0.012	-0.0158	-0.0203	0	-6.8	31
0.0105	-0.0188	-0.027	0.003	-7.1	31
0.0082	-0.0128	-0.0278	0.0015	-6.9	31
0	-0.0083	-0.0203	0.0007	-6.8	31
-0.0046	-0.003	-0.0218	0	-6.3	31
-0.003	0.0082	-0.0203	0.0007	-6.4	31
0.0015	0.006	-0.0203	0.003	-6.2	31
0.0052	-0.0015	-0.021	0.0015	-6.3	31
0.003	0.0015	-0.021	0	-6	31
0.003	-0.0008	-0.0203	0	-5.8	31
0.003	0.0022	-0.0173	0.0015	-5.8	31
0.0015	0.003	-0.0173	0.0007	-5.4	31
0.0007	0.0052	-0.0128	0.0015	-5.4	31
0.0015	0.0075	-0.0105	0.003	-5.2	31
0.0007	0.0067	-0.0098	0.003	-5.1	31
0.0015	0.0082	-0.0098	0.0015	-5.1	31
0.0015	0.0045	-0.0075	0.0015	-4.5	31
0.0022	0.003	-0.0068	0.003	-4.8	31
0.0022	0.0015	-0.0053	-0.0068	-4.3	31
0.0022	0.0037	-0.0038	-0.0285	-4.5	31
0.0022	0.0045	-0.0038	-0.0398	-4.3	31
-0.0008	0.0067	-0.0046	-0.0195	-4.1	31
-0.0015	0.0052	-0.0046	0.027	-3.9	31
-0.0008	0.003	-0.0023	0.0532	-4.2	31
0.0015	0.0037	0	0.0285	-3.6	31
0.0015	0	0.0022	0.0007	-3.8	31
0.0022	0	0.003	-0.015	-3.4	31
0.0015	-0.0068	0.0037	-0.0256	-3.4	31
0.0007	-0.0105	0.0037	-0.0083	-3.5	31
0.0007	-0.0046	0.0052	0.0232	-3.3	31
0.003	0.0015	0.006	0.0322	-3.5	31
0.0037	0.003	0.0052	0.0165	-3.1	31
0.0015	0.0007	0.0045	0.0015	-3.2	31
0.0015	0	0.006	-0.0091	-3.2	31
0.0015	0.0007	0.0052	-0.0098	-3.1	31
-0.0008	-0.0008	0.0052	-0.0083	-3	31
0	0	0.006	-0.0083	-3.2	31
-0.0008	0.0007	0.006	-0.0053	-3.1	31
0.0007	-0.0023	0.0067	-0.0075	-3.2	31
-0.0008	-0.0015	0.006	-0.003	-3.2	31
-0.0015	-0.0015	0.0045	-0.0015	-3	31
-0.0023	-0.0015	0.0045	-0.0015	-3.2	31
-0.0038	-0.0008	0.0052	-0.006	-3	31
-0.0008	-0.003	0.0052	-0.0128	-3.5	31
0	-0.0008	0.0045	-0.024	-3.1	31
-0.0008	-0.0015	0.003	-0.027	-3.4	31
-0.0008	-0.0023	0.0015	-0.0158	-3.2	31
-0.0023	-0.0015	0	-0.006	-3.2	31
-0.0015	-0.0015	0.0007	0.0067	-3.3	31
-0.0015	0.0007	0.0015	0.0052	-3.2	31
-0.0015	-0.0008	0.0022	-0.0015	-3.6	31
-0.0015	0.0007	0.003	0.0045	-3.4	31
-0.0008	0.0015	0.0022	0.0015	-3.5	31
-0.0015	0.003	0.0015	0.0007	-3.4	31
-0.003	0.0037	0.0007	0.0015	-3.6	31
-0.003	0.0015	0.0007	0.0045	-3.5	31
-0.003	-0.0038	-0.0015	0.015	-3.7	31
-0.0015	-0.0098	-0.0015	0.009	-3.4	31
-0.0038	-0.0098	-0.0008	-0.0046	-3.5	31
-0.006	-0.0113	-0.0015	-0.0218	-3.8	31
-0.006	-0.0098	-0.0015	-0.0195	-3.4	31
-0.0038	-0.003	-0.0015	-0.0053	-3.7	31
0.003	-0.0015	-0.0023	-0.003	-3.2	31
0.0097	-0.0023	-0.0023	0.0142	-3.6	31
0.0157	-0.0008	-0.003	0.0127	-3.2	31
0.0195	0.0015	-0.003	-0.0015	-3.4	31
0.0157	0.0015	-0.0023	0.0007	-3.4	31
0.0105	0.0037	-0.0046	-0.003	-3.2	31
0.0075	0.0067	-0.012	0	-3.1	31
0	0.012	-0.0181	-0.0015	-3.1	31
-0.0068	0.003	-0.0195	-0.0015	-3.1	31
-0.0195	-0.024	-0.0203	0.0037	-2.7	31
-0.0428	-0.0285	-0.0105	0.003	-3.1	31
-0.0518	-0.0068	0.0015	0.0045	-2.7	31
-0.0338	0.012	0.0127	0.0007	-3	31
-0.0091	0.0082	0.0217	0.0007	-2.5	31
-0.0038	0	0.0225	-0.0008	-2.7	31
-0.0038	-0.0046	0.0232	-0.003	-2.5	31
0.0007	-0.0068	0.0165	0	-2.3	31
0.0007	-0.0046	0.0052	0.0022	-2.4	31
0.0007	-0.0023	-0.003	0.003	-2.1	31
-0.003	0.0007	-0.012	0.003	-2.2	31
0.0015	0.003	-0.0181	0.0022	-2	31
0.0067	0.0075	-0.0181	0.0015	-2.2	31
0.0052	0.0075	-0.012	0.0015	-2.1	31
0.0105	-0.0068	-0.0091	0.0015	-1.8	31
0.0067	-0.0173	-0.0105	0.0007	-1.8	31
0.0052	-0.0098	-0.0068	0.0022	-1.9	31
0.0045	-0.0068	-0.0008	0.0037	-1.9	31
0.0007	-0.0128	-0.0008	0.0037	-1.7	31
0.0015	-0.0188	0	0.0037	-1.8	31
-0.0008	-0.0218	-0.003	0.003	-1.6	31
-0.003	-0.0143	-0.0068	0.003	-1.8	31
-0.0015	-0.0091	-0.0053	0.003	-1.4	31
-0.0015	-0.003	-0.0053	0.003	-1.8	31
0	-0.0015	-0.0075	0.0045	-1.4	31
0.0007	-0.0015	-0.0091	0.0045	-1.6	31
0.0015	-0.0008	-0.0068	0.003	-1.5	31
0	-0.0008	-0.0046	0.0037	-1.3	31
0	0.003	-0.0038	0.0015	-1.3	31
0.0015	0.0045	-0.0053	0.0007	-1.2	31
0.0007	0.0022	-0.006	0.0015	-1.4	31
0.0015	0.0015	-0.003	0.0007	-1.4	31
0.003	0.0007	-0.003	0	-1.3	31
0.0045	-0.0015	-0.003	0.0007	-1.4	31
0.0007	-0.0023	-0.0015	0.0007	-1.4	31
-0.0008	-0.0015	-0.0015	-0.0008	-1.2	31
-0.0046	0.0007	-0.0008	-0.0008	-1.5	31
-0.0053	0.0045	-0.0015	0.0007	-1.2	31
-0.003	0.009	-0.0015	0.0015	-1.3	31
-0.0046	0.0135	-0.0083	0.0022	-1.3	31
-0.0053	0.0105	-0.0218	0.0015	-1.1	31
-0.0053	0.0022	-0.0256	0.0007	-1.3	31
0	-0.0158	-0.021	-0.0008	-1	31
0.0112	-0.0346	-0.0143	-0.0015	-1.2	31
0.0225	-0.0308	-0.0015	-0.0008	-1	31
0.0165	-0.0181	0.006	0	-1	31
0	-0.0188	0.009	-0.003	-0.9	31
-0.0091	-0.0143	0.0157	-0.0046	-0.9	31
-0.0091	-0.0075	0.0187	-0.0053	-0.7	31
-0.0053	-0.003	0.0262	-0.0053	-1	31
-0.0068	-0.0015	0.0352	-0.0053	-0.6	31
-0.0053	-0.0008	0.0375	-0.003	-0.9	31
-0.0053	0	0.0382	-0.0015	-0.7	31
-0.0023	0	0.03	-0.0008	-0.7	31
0.003	0	0.0187	0.003	-0.8	31
0.0015	-0.0046	0.0127	0.0045	-0.5	31
0.003	0.0015	0.0045	0.0015	-0.7	31
0.0075	0.0082	-0.0053	-0.0046	-0.5	31
0.0082	0.0067	-0.0091	-0.0083	-0.7	31
0.003	0.0007	-0.0105	-0.0053	-0.6	31
0.0015	0.0007	-0.0128	0.0015	-0.5	31
0.0052	0.006	-0.0091	0.0015	-0.5	31
-0.0105	0.003	-0.0053	0.0022	-0.4	31
-0.0233	0.0022	-0.0053	-0.0008	-0.2	31
-0.015	0.0007	-0.003	-0.0038	-0.5	31
-0.0158	0.003	-0.0015	-0.0046	-0.2	31
-0.0075	0.0052	0.0007	-0.006	-0.3	31
0.0007	0.0045	0.0022	-0.0053	-0.3	31
-0.0023	0.0037	0.0015	-0.0091	0	31
-0.0015	-0.003	-0.0015	-0.0068	-0.3	31
-0.006	-0.0046	-0.0053	-0.0008	0.3	31
-0.0038	-0.0046	-0.0053	0.0112	-0.2	31
-0.0015	-0.003	-0.0068	0.0097	0.3	31
-0.0008	-0.0015	-0.0068	-0.0046	0	31
0.0007	-0.0046	-0.0053	-0.0008	0.2	31
0	-0.0023	-0.0053	-0.003	0.2	31
0.0045	-0.0023	-0.006	0.0007	0.2	31
0.0037	-0.003	-0.0046	0.012	0.3	31
0.0045	-0.003	-0.0023	0.0067	0.3	31
0.0037	-0.0023	-0.003	0.0007	0.4	31
0.0022	-0.0023	-0.003	-0.0046	0.1	31
0.0052	-0.0046	-0.003	-0.0068	0.5	31
0.0052	-0.0046	-0.0023	-0.0023	0.3	31
0.006	-0.0038	-0.0038	0.0067	0.6	31
0.006	-0.003	-0.003	0.0105	0.2	31
0.0052	-0.0038	-0.0015	0.0007	0.8	31
0.0045	-0.003	-0.0008	-0.0083	0.6	31
0.003	0	-0.0015	-0.0083	0.5	31
0.003	-0.0008	-0.0015	-0.0046	0.7	31
0	0.0007	-0.0015	-0.0008	0.5	31
-0.0015	0.0015	-0.003	-0.0015	0.9	31
-0.0038	0.0015	-0.0008	-0.006	0.8	31
-0.0046	-0.0008	0.0007	-0.0128	0.9	31
-0.0046	-0.0008	-0.0008	-0.0128	0.9	31
-0.006	0.0015	-0.0008	-0.003	0.9	31
-0.003	0.0015	0	0.012	0.9	31
-0.0015	0.0022	0.0015	0.018	1.1	31
-0.003	0.0067	-0.0015	0.0075	1.1	31
0.0007	0.009	-0.0083	0.003	1	31
0.003	0.0097	-0.0195	0.0007	1.3	31
0.0052	0.0052	-0.024	0.0015	1	31
0.0105	-0.0015	-0.0203	0.0022	1.3	31
0.0142	-0.0008	-0.015	-0.0008	1.2	31
0.0135	0.0045	-0.0046	-0.0023	1.5	31
0.0105	0.0015	0.0045	-0.0091	1.3	31
0.003	-0.0053	0.0135	-0.0143	1.5	31
-0.0008	-0.0143	0.0195	-0.0158	1.5	31
0.0007	-0.024	0.0165	-0.0008	1.4	31
-0.0068	-0.0233	0.0142	0.0202	1.5	31
-0.0285	-0.0195	0.0097	0.0067	1.7	31
-0.0503	-0.0256	0.0022	-0.0091	1.7	31
-0.0278	-0.0195	-0.0008	-0.0113	1.6	31
0.003	-0.0091	-0.0015	-0.0158	1.9	31
-0.0008	-0.006	0.0007	0.0075	1.7	31
-0.0008	-0.0008	0.0015	0.021	1.8	31
0.009	0	-0.006	0.0067	1.8	31
0.0217	0.0037	-0.0091	0.0015	1.8	31
0.0232	0.0075	-0.0075	0.0045	2	31
0.0082	0.0075	-0.0083	-0.0008	1.8	31
0.006	0.006	-0.0105	-0.0015	1.9	31
0.0015	0.0015	-0.0098	-0.0008	1.8	31
-0.0008	0.0022	-0.006	-0.0015	2.2	31
0	0.003	-0.0053	-0.0015	1.9	31
-0.0038	0.0075	-0.0046	-0.0015	2	31
-0.0173	0.009	-0.0046	-0.0008	2	31
-0.0278	0.0045	0	-0.0023	2.1	31
-0.0135	0.003	0.006	-0.006	2.2	31
-0.0053	0.0007	0.009	-0.0075	2.4	31
-0.0046	-0.0015	0.0135	-0.0046	1.8	31
-0.0015	-0.0038	0.0142	-0.0038	2.4	31
-0.0053	-0.0083	0.015	-0.0023	2.1	31
-0.003	-0.0098	0.012	0	2.2	31
-0.0008	-0.0098	0.003	0	2.3	31
0.0015	-0.0068	0	0.0007	2.1	31
0.0037	-0.0023	-0.003	0.0015	2.4	31
0.0037	0.0022	-0.0068	0.0022	2.1	31
0.003	0.009	-0.0068	0.003	2.3	31
0	0.0127	-0.0075	0.0015	2.4	31
0.0007	0.0127	-0.0075	-0.0008	2.4	31
0	0.0105	-0.0083	-0.0008	2.4	31
-0.0008	0.0052	-0.0053	0.0007	2.2	31
0.0007	-0.0008	-0.0053	0.003	2.4	31
0.0022	0	-0.0053	0.0022	2.5	31
0.0045	-0.003	-0.0068	0.0015	2.5	31
0.0067	-0.0068	-0.0068	0.0022	2.2	31
0.0067	-0.006	-0.0068	0.0015	2.7	31
0.0037	-0.0053	-0.0053	0.003	2.3	31
-0.0008	-0.0046	-0.0015	0.0015	2.6	31
-0.003	-0.0068	-0.0008	-0.0008	2.3	31
-0.0015	-0.0046	-0.0015	0.0015	2.5	31
-0.0008	-0.003	-0.0023	0.0015	2.4	31
0.0007	-0.0046	-0.003	-0.0008	2.4	31
0.0007	-0.0053	-0.0008	-0.0008	2.6	31
-0.0015	-0.0083	0.0015	-0.0008	2.4	31
0.0007	-0.0075	0.003	-0.0015	2.7	31
0.0022	-0.0046	0.003	-0.0008	2.5	31
0.003	-0.003	0.0015	-0.0008	2.6	31
0.0022	-0.0046	0.0015	-0.0015	2.5	31
-0.0015	-0.0083	0.0007	-0.0015	2.6	31
-0.003	-0.0068	0	-0.0008	2.4	31
-0.0038	-0.0083	0.0015	-0.0008	2.7	31
-0.0023	-0.0068	0.003	-0.0046	2.7	31
0	-0.0008	0.0037	-0.0075	2.6	31
-0.0008	-0.0008	0.0037	-0.0091	2.7	31
-0.0015	-0.0008	0.0015	-0.0091	2.6	31
0	0.003	-0.0008	0.0052	3	31
0.0007	0.0067	-0.003	0.0195	2.5	31
0.0022	0.006	-0.0046	0.0105	3	31
0.0007	-0.0046	-0.0098	0.0015	2.6	31
-0.0046	-0.0181	-0.0188	0.0045	2.7	31
-0.003	-0.012	-0.0165	0.0007	2.7	31
0.0022	0.003	-0.012	-0.003	2.8	31
0.0037	0.0022	-0.0053	-0.0015	2.7	31
0	0.0015	0.003	-0.0023	2.7	31
-0.0015	-0.0008	0.012	-0.0008	2.7	31
-0.0015	-0.006	0.0187	-0.0015	2.7	31
0.0022	-0.0091	0.0217	0.0007	3	31
0.0015	-0.0263	0.0195	0	2.7	31
-0.006	-0.0436	0.018	-0.0023	3	31
-0.0046	-0.0218	0.0195	-0.0008	2.7	31
0.0007	0.003	0.009	-0.0015	3	31
0.003	0.0052	-0.0038	-0.0008	2.9	31
0.0022	0.003	-0.0128	0	2.9	31
0	0.0015	-0.0225	0.0007	3.1	31
0.0067	0.003	-0.0218	0.0007	2.7	31
0.0112	-0.0008	-0.0165	-0.0008	3.1	31
0.009	0.0007	-0.0091	0	2.9	31
0.006	0.0007	0.0007	0	3	31
0.0015	-0.0015	0.0067	-0.0008	3	31
0.0015	0.0015	0.0142	0	3	31
0.003	0.0015	0.015	-0.0008	2.9	31
0.0007	0.003	0.0105	0.0015	3.1	31
-0.003	0.0022	0.0067	0.003	3	31
-0.0091	-0.0008	0.0037	0.0007	3.1	31
-0.0233	-0.0008	-0.003	0	3.2	31
-0.0278	0.0037	-0.0181	-0.0023	2.9	31
-0.0083	0.0082	-0.0293	-0.0015	3.2	31
0.0037	0.0112	-0.024	-0.0015	2.8	31
0.0022	0.0052	-0.0158	-0.0023	3.2	31
0	0	-0.0113	-0.0008	2.9	31
0.0007	0.0015	-0.0015	-0.0015	3.1	31
0.006	0.003	0.0052	0.0007	2.9	31
0.0052	0.0007	0.0142	0.0007	2.9	31
0.0007	-0.0015	0.0202	-0.0015	3	31
-0.0023	-0.0046	0.0165	-0.0015	3	31
-0.003	-0.0068	0.0142	-0.0008	3	31
-0.0053	-0.0068	0.009	-0.0008	3.1	31
-0.0038	-0.003	0.0037	0.0015	3	31
-0.0008	0.0022	-0.0008	0.0022	2.8	31
-0.0008	0.0007	-0.0091	0.0007	3.1	31
-0.0015	0.0007	-0.012	-0.0008	2.8	31
0	0.003	-0.0098	-0.0015	3.1	31
0.0007	0.0037	-0.0083	-0.0008	2.9	31
0.006	0.003	-0.0053	0.0007	2.9	31
0.0142	0.0045	-0.0068	0.0015	3.1	31
0.018	0.009	-0.006	-0.0008	2.8	31
0.0172	-0.0015	-0.0053	-0.0015	3.2	31
0.009	-0.0128	-0.0053	-0.0015	2.7	31
0.0007	-0.015	-0.0023	-0.0008	3	31
0.0007	-0.0075	-0.003	0.0007	3.2	31
-0.003	-0.0023	-0.0015	0.0007	3	31
-0.0158	-0.012	-0.003	-0.0015	2.8	31
-0.042	-0.0165	-0.0038	-0.0015	3.1	31
-0.0503	-0.0091	-0.0046	0.0007	2.7	31
-0.012	-0.0008	-0.0046	0.0015	3.3	31
0.0075	0.0022	-0.0008	0.003	2.8	31
0	0.0045	0.0052	0.0045	3	31
0.0007	-0.0046	0.0052	-0.0008	3	31
-0.0053	-0.0143	0.0045	-0.0105	3	31
-0.0015	-0.0105	0.0067	-0.0158	3.2	31
-0.0008	-0.0046	0.0052	-0.0053	3	31
-0.0008	-0.003	0.0067	0.006	3.2	31
0.0037	-0.003	0.0082	-0.0015	3	31
0.0022	-0.0023	0.0045	-0.0158	3.1	31
0.0052	-0.0015	0.0015	-0.0256	3.1	31
0.003	-0.0015	-0.0008	-0.0128	3	31
0.0045	-0.0008	-0.0023	0.0165	3.1	31
0.0067	-0.0008	-0.0015	0.0195	3.1	31
0.0052	-0.003	-0.003	0.0082	3	31
0.0052	-0.0038	-0.003	0.0217	3.1	31
0.003	-0.0023	-0.0023	0.0202	3.3	31
0.003	-0.0008	-0.0053	0.0007	3.1	31
0.0022	-0.0015	-0.0046	-0.0158	3.4	31
0.0015	0	-0.0023	-0.027	3.1	31
0.0015	0.0045	-0.0015	-0.0128	3.6	31
0	0.0052	-0.0023	0.0285	3	31
0.0015	0.0045	-0.0038	0.0337	3.4	31
0.0022	0.003	-0.0046	0.0022	3.2	31
0.003	0.0015	-0.0046	-0.0015	3.4	31
0.0037	0.003	-0.0038	-0.0105	3.3	31
0.0015	-0.0083	-0.0038	-0.015	3	31
0.0015	-0.015	-0.0023	-0.0046	3.2	31
0.003	-0.0098	-0.0015	0.012	3.2	31
0.0015	-0.0046	0.0007	0.027	3.3	31
0	-0.0008	0.0022	0.0097	3.3	31
-0.0015	0.0015	0.0007	-0.0091	3.5	31
-0.0015	0.0015	-0.0008	-0.0181	3.1	31
-0.0008	0.003	-0.0008	-0.012	3.6	31
-0.0023	0.0022	0	-0.0068	3.3	31
-0.0015	0.0015	0.0007	-0.0091	3.6	31
-0.0023	0.0022	0.0007	-0.0068	3.3	31
-0.0015	0.0007	0	-0.0015	3.6	31
0.003	0.003	-0.0023	0.0052	3.6	31
0.0045	0.0045	-0.003	-0.0008	3.3	31
0.0015	0.0067	-0.0008	-0.0068	3.7	31
0.0015	0.0045	-0.0008	-0.0053	3.3	31
0.0015	-0.0053	-0.0015	-0.0038	3.6	31
0	-0.0068	-0.0008	-0.0038	3.6	31
-0.0023	-0.0068	0.0007	-0.0023	3.4	31
-0.0038	-0.0091	0.0015	-0.003	3.6	31
-0.003	-0.0075	0.0007	-0.0023	3.7	31
-0.0015	-0.0075	0	-0.003	3.5	31
-0.0015	-0.0075	-0.0015	-0.0046	3.7	31
-0.003	-0.0046	-0.003	0	3.6	31
-0.0023	-0.0053	-0.003	0.0037	3.6	31
-0.0015	-0.0053	-0.0046	0.0052	3.9	31
-0.003	-0.0053	-0.0046	0.0015	3.6	31
-0.0015	-0.003	-0.0038	0.003	3.9	31
-0.0015	-0.0015	-0.0046	0.003	3.6	31
-0.003	-0.003	-0.0015	0.0022	4	31
-0.0023	-0.003	-0.0008	0.003	3.6	31
0.0007	-0.003	-0.0015	0.0007	3.9	31
0.0045	-0.0023	-0.0015	0.0015	3.9	31
0.0075	-0.003	0.0007	0.0015	3.8	31
0.0067	-0.0075	0.0007	-0.0008	3.8	31
0.0082	-0.0105	-0.0023	-0.0023	3.9	31
0.006	-0.0068	-0.003	-0.0015	3.6	31
0.0015	-0.003	-0.003	-0.0023	4	31
-0.0008	-0.0046	-0.0046	-0.003	3.7	31
-0.003	0	-0.0046	-0.0015	4	31
-0.0083	0.0112	-0.0046	0	4	31
-0.0165	0.0172	-0.0046	0	3.8	31
-0.0256	0.0142	-0.0046	-0.0023	4.1	31
-0.0135	0.0052	-0.0046	-0.0015	3.7	31
-0.0015	0.0007	-0.0038	-0.0008	4	31
-0.0015	-0.003	0.0007	-0.0008	3.9	31
0.0015	-0.0068	0.0045	0.0007	3.9	31
0.0007	-0.003	0.0022	0.0015	4	31
0	0.0007	0	0.0007	3.9	31
0.0007	0.0037	-0.0015	0.0015	4	31
-0.0008	0.003	-0.0015	0.0007	4	31
0.0007	-0.0023	0	0	4	31
0.0007	-0.0046	-0.0008	0.0015	4	31
0.0007	-0.0068	-0.0038	0.0007	4	31
0.0022	-0.0068	-0.0053	0.0007	3.8	31
0.0052	-0.0098	-0.0053	0.0015	4.2	31
0.0015	-0.0128	-0.0008	0.0007	3.8	31
-0.0008	-0.0046	0.0007	0	4.3	31
0	-0.0008	-0.0008	-0.0008	3.9	31
0	-0.0008	0	-0.0015	4.1	31
0.0022	0.0007	0.003	0.0007	3.9	31
-0.003	-0.0046	0.0052	0	4.1	31
-0.006	-0.0068	0.0045	-0.0008	4.1	31
-0.0046	-0.0046	0.003	-0.0008	4	31
0.0007	-0.0038	-0.0008	-0.0008	4.1	31
0.0082	-0.0091	-0.0015	0	4	31
0.009	-0.012	-0.0023	0.0007	4	31
0.0052	-0.0053	-0.0053	0.0007	4.1	31
0	-0.0008	-0.012	-0.0023	4	31
-0.0015	-0.003	-0.0203	-0.003	4	31
-0.0053	-0.0023	-0.0165	-0.003	4.1	31
-0.0046	0.0037	-0.0068	-0.003	4	31
0.0022	0.006	0.0015	0	4.2	31
-0.0015	0.0037	0.0165	-0.0008	4.1	31
-0.0053	0.0007	0.0217	-0.003	4.1	31
-0.003	-0.0008	0.0247	-0.003	4.4	31
-0.0015	-0.003	0.024	-0.003	4.1	31
0.0037	-0.0068	0.0172	-0.0008	4.3	31
0.0105	0.0007	0.0105	-0.0008	4	31
0.0105	0.018	0.003	-0.003	4.3	31
0.0112	0.024	-0.0008	-0.0015	4.3	31
0.0127	0.0195	-0.0098	-0.0015	4.3	31
0.0097	0.012	-0.0135	-0.0015	4.1	31
0.003	-0.0068	-0.0091	-0.0046	4.3	31
-0.0046	-0.0256	-0.0068	-0.0046	4.4	31
-0.0091	-0.0346	-0.0038	-0.0038	4.1	31
-0.0083	-0.0383	-0.0015	-0.003	4.5	31
-0.0091	-0.027	0	-0.0008	4.1	31
-0.0135	-0.0091	0.0015	0.0007	4.5	31
-0.015	0.003	0.0015	0.0007	4.1	31
-0.0105	0.006	0.0007	0.0007	4.5	31
-0.0083	0.0007	0.0007	0.0007	4.2	31
-0.0046	-0.0008	0	0.0007	4.4	31
0.0015	0.0007	-0.0023	0.0007	4.3	31
0.0045	0.0015	-0.0023	0.0007	4.3	31
0.0052	0.0022	-0.003	0.0015	4.5	31
0.0052	0.003	-0.0038	0.0037	4.4	31
0.0045	0.003	-0.003	0.003	4.3	31
0.003	0.0015	-0.0038	0.003	4.5	31
0.0045	0.0037	-0.003	0.0045	4.4	31
0.0052	0.003	-0.003	0.0015	4.4	31
-0.003	0	-0.0023	0.0015	4.5	31
-0.0158	-0.0008	-0.0015	0.0015	4.2	31
-0.0195	0	-0.003	0.0015	4.5	31
-0.0075	0.0015	-0.0015	-0.0008	4.5	31
0.0022	-0.0008	-0.0023	-0.0015	4.5	31
0.003	0	-0.0008	-0.0015	4.5	31
0.0045	-0.003	-0.0015	-0.0015	4.4	31
0.0007	-0.0038	-0.003	-0.0008	4.6	31
0.003	-0.003	-0.0023	-0.003	4.3	31
0.0037	-0.006	-0.0015	-0.0015	4.7	31
0.0022	-0.003	0.0007	-0.0008	4.3	31
0.0022	0.0015	0.0007	-0.003	4.5	31
-0.0008	0.0022	-0.0008	-0.0015	4.6	31
-0.0008	-0.0008	-0.0008	0	4.5	31
-0.0015	-0.0046	-0.0015	-0.0015	4.5	31
-0.0008	-0.0068	-0.003	-0.0023	4.8	31
0.0045	-0.0128	-0.0023	-0.0015	4.5	31
0.0052	-0.015	-0.0038	-0.0015	4.6	31
0.0037	-0.0158	-0.0038	0	4.6	31
0.0022	-0.0135	0	-0.0008	4.5	31
0.0022	-0.003	-0.0015	-0.0015	4.7	31
0.0015	0.006	-0.003	-0.0015	4.5	31
0.0022	0.012	-0.003	-0.0023	4.8	31
0.0007	0.0127	-0.0023	-0.0023	4.6	31
-0.0008	0.0082	-0.003	-0.0053	4.7	31
-0.0008	0.0015	-0.0053	-0.003	4.7	31
-0.0008	-0.0038	-0.0068	-0.0023	4.6	31
-0.0008	-0.0053	-0.0075	-0.0015	4.7	31
-0.0015	-0.0083	-0.0068	0.0015	4.7	31
0	-0.0053	-0.0046	0.0007	4.8	31
-0.0023	0.0007	-0.0015	0.0015	4.8	31
-0.003	0.0052	0.003	0.0022	4.7	31
0	0.012	0.0082	0.0015	4.7	31
-0.0008	0.0082	0.012	0	4.9	31
-0.003	-0.0015	0.0105	-0.003	4.6	31
-0.0015	-0.0083	0.006	-0.003	4.9	31
-0.003	-0.0091	0.0022	-0.0015	4.7	31
-0.0053	-0.0068	0.0007	-0.0015	4.8	31
-0.0046	-0.0015	-0.0008	0.0007	4.6	31
-0.003	-0.003	-0.0015	0.003	4.9	31
-0.003	-0.0105	-0.0046	0.0015	4.8	31
-0.0015	-0.0091	-0.0053	0.003	4.9	31
0.0015	-0.0053	-0.0046	0.0037	5	31
0.0067	-0.0015	-0.0023	0.003	4.9	31
0.0105	0	-0.003	0.0022	4.9	31
0.0112	-0.0008	-0.0075	0.0015	4.9	31
0.009	-0.0015	-0.0128	0.003	5	31
0.0045	-0.0038	-0.0128	0.003	4.7	31
-0.003	-0.0046	-0.0098	0.0015	5.1	31
0.0015	-0.0015	-0.0091	0.0015	4.7	31
0.0105	0.0007	-0.0038	0.0015	5.1	31
0.0165	0.0022	0.0037	0.0015	4.9	31
-0.0046	0.0022	0.012	0.0015	5	31
-0.0443	0.0015	0.0165	-0.0008	5	31
-0.045	-0.0075	0.0142	-0.0015	4.9	31
-0.0083	-0.0091	0.012	-0.0023	5.1	31
0.003	-0.0023	0.0067	-0.0008	4.9	31
-0.0008	-0.0098	0.0007	0	5.2	31
-0.0008	-0.0165	-0.003	-0.0015	4.9	31
-0.0046	-0.0143	-0.006	-0.0015	5	31
-0.0008	-0.0083	-0.0083	-0.0008	5	31
0	-0.0015	-0.0053	-0.0015	5.1	31
0.0015	0.003	0	-0.0023	5	31
0.003	0.0037	0	-0.0038	5.2	31
0.0015	0.0022	-0.0008	-0.003	5.2	31
0.0045	0.0007	0.003	-0.0015	4.9	31
0.0022	-0.0008	0.003	-0.0008	5.2	31
0.0015	0	0.0045	-0.0015	5	31
-0.0008	-0.0015	0.0037	-0.0015	5.2	31
0.003	-0.0008	0.0007	-0.0015	4.9	31
0.0082	-0.0038	-0.0023	-0.0008	5.2	31
0.0067	-0.0068	-0.006	-0.0015	4.9	31
0.0082	-0.0015	-0.0053	-0.0015	5.3	31
0.0067	-0.0008	-0.003	0.0007	5	31
0.0052	-0.0046	-0.003	0	5	31
0.0037	-0.0023	-0.0015	-0.0008	5.2	31
0.003	-0.0015	-0.0008	0.0007	5.1	31
0.0022	-0.0038	-0.0008	0.0015	5.1	31
-0.0023	-0.0053	-0.0015	0.0007	5.3	31
-0.0165	-0.0053	-0.003	0.0007	5.3	31
-0.0256	-0.0023	-0.0046	0.0015	5.1	31
-0.0128	0	-0.0046	0.0022	5.2	31
-0.0008	0.0022	-0.0015	0.0007	5	31
-0.0015	0.0007	-0.0008	0	5.3	31
0	-0.0008	-0.0008	-0.0023	5.3	31
0.0007	0.0015	-0.0015	-0.0015	5.3	31
0.0022	-0.0008	-0.0008	-0.0015	5.3	31
0.0015	-0.0015	-0.0023	-0.003	5.2	31
0.0022	0.0007	-0.003	-0.0008	5.4	31
0.0037	0.0022	-0.0023	-0.0015	5.1	31
0.003	0.0037	-0.0023	-0.0015	5.5	31
0.0037	0.003	-0.0008	-0.0015	5.2	31
0.003	-0.0015	0.0007	-0.0015	5.3	31
0	-0.0046	0	-0.0008	5.3	31
0.0015	-0.006	-0.0008	-0.0008	5.2	31
0.003	-0.003	-0.0008	0	5.1	31
0.0015	-0.0008	-0.003	0	5.6	31
0.0015	-0.0015	-0.0023	0	5	31
0.0015	-0.0023	-0.0015	-0.0008	5.5	31
0.0007	-0.0015	-0.003	0.0007	5.2	31
0	-0.0015	-0.003	0.0015	5.4	31
-0.0023	-0.003	-0.003	-0.0008	5.4	31
-0.003	-0.006	-0.0015	-0.0008	5.3	31
-0.0015	-0.0083	-0.0008	-0.0008	5.6	31
-0.0015	-0.0083	-0.0008	-0.0008	5.3	31
-0.003	-0.0068	-0.0015	-0.0008	5.3	31
-0.003	-0.0038	-0.0015	-0.0008	5.3	31
-0.0015	0.0045	-0.0023	0.0007	5.4	31
0	0.012	-0.003	-0.0008	5.3	31
-0.0008	0.012	-0.0015	0	5.4	31
-0.003	0.0045	-0.0015	-0.0008	5.5	31
-0.003	-0.0015	-0.0015	-0.0015	5.6	31
-0.0023	-0.0053	-0.0015	0	5.3	31
0.0007	-0.0053	-0.0008	0.0015	5.4	31
0.0015	-0.003	0.0015	0.0007	5.6	31
-0.0008	-0.0038	0.0022	-0.0008	5.3	31
-0.0023	-0.0015	0.0007	0	5.7	31
-0.0038	0.0007	0.0015	-0.0008	5.3	31
-0.003	0.0007	0	-0.0023	5.8	31
0.003	0.003	-0.0053	-0.0008	5.3	31
0.0067	0.0007	-0.0053	0.0015	5.7	31
0.015	0.0007	-0.0053	0.0022	5.4	31
0.015	0.0015	-0.003	0.003	5.4	31
0.003	-0.0083	0	0.0015	5.7	31
-0.0015	-0.0173	0	0.0015	5.5	31
-0.0008	-0.0158	0.0007	-0.0008	5.6	31
-0.0008	-0.0075	0.0007	-0.0008	5.6	31
-0.0008	-0.003	0.0007	0.0007	5.8	31
-0.0023	-0.003	0.0007	0.003	5.4	31
-0.003	-0.0046	0.0007	0.003	5.8	31
0.003	-0.0015	-0.0015	0.003	5.5	31
0.003	0.003	-0.0015	0.0037	5.8	31
-0.003	0.0022	0.0015	0.0015	5.4	31
-0.0128	0	0.0015	-0.0015	5.6	31
-0.027	-0.003	0	-0.0015	5.6	31
-0.024	-0.0015	-0.0015	-0.0008	5.6	31
-0.0068	0.0015	-0.0015	0	5.7	31
-0.0008	0	0.0007	0.0015	5.5	31
0.0015	0.0022	0.0015	0.0007	5.8	31
0.0037	0.0037	0.0007	0.0007	5.6	31
-0.0015	0.0052	-0.003	-0.0008	5.6	31
0.0015	0.006	-0.003	-0.0015	5.8	31
0.0045	0.0015	-0.003	-0.0008	5.8	31
0.009	-0.0083	-0.0046	-0.0023	5.6	31
0.0105	-0.003	-0.0046	-0.0015	5.6	31
0.0037	0.003	-0.0015	-0.0015	5.8	31
0.0015	-0.0098	0.0007	-0.0023	5.6	31
-0.0008	-0.012	0.0007	-0.0015	5.8	31
-0.003	-0.0188	0.0022	-0.0015	5.5	31
-0.0023	-0.021	0.0015	-0.0015	5.8	31
-0.0008	-0.0068	0.0015	-0.0038	5.6	31
-0.0015	-0.0046	0.0015	-0.003	5.8	31
-0.003	-0.0053	0.0015	-0.003	5.5	31
-0.0038	-0.0038	0.0007	-0.0015	5.8	31
-0.0038	-0.003	0.0007	-0.0015	5.7	31
-0.0015	-0.0023	0	-0.0015	5.6	31
-0.0008	-0.0008	-0.003	0.0007	5.9	31
0.0015	-0.0015	-0.0038	0	5.7	31
0.0015	-0.0008	-0.003	-0.0008	5.6	31
0.0007	-0.0015	0.0007	-0.0015	5.8	31
-0.0008	-0.0008	-0.0023	-0.0023	5.9	31
-0.0008	0.0015	-0.0053	-0.0023	5.7	31
-0.0015	0.003	-0.0046	-0.0015	5.8	31
-0.0008	0.0067	-0.0038	-0.0015	5.6	31
-0.0008	0.0082	-0.0008	-0.0008	5.9	31
-0.0015	0.006	-0.0008	-0.0015	5.7	31
-0.0015	0	-0.0023	-0.0046	5.8	31
-0.0008	-0.0053	0	-0.0015	5.8	31
0.0022	-0.0128	0.0015	0.0007	5.6	31
0.0007	-0.0188	0.003	0.0015	6	31
-0.0008	-0.0173	0.0015	0.0015	5.6	31
0.0037	-0.0083	-0.0015	0.0007	5.8	31
0.0112	0.0052	-0.0046	0.0007	5.8	31
0.0082	0.0105	-0.0008	0	5.9	31
0.0007	0.0142	0.0015	0.0007	5.8	31
0.0015	0.009	0.0007	0.0007	5.9	31
0.0007	0.0045	0.0007	0.0015	5.6	31
-0.0038	0.0007	0.0015	0.0007	6.2	31
-0.0046	-0.003	0.0022	0.0022	5.7	31
-0.0053	0.0015	0.0022	0.003	6.1	31
-0.0083	0	0.0037	0.0007	5.8	31
-0.0091	-0.0053	0.003	0.0007	5.8	31
-0.006	-0.0053	0.0015	0.0007	6	31
-0.0046	-0.0053	0.0007	0.0015	5.8	31
-0.003	-0.0068	0.0007	0.0015	6	31
-0.0008	-0.0068	-0.0015	0.0007	5.8	31
0.0007	-0.0068	-0.0046	-0.0008	5.8	31
0.0015	-0.006	-0.0053	-0.0008	5.8	31
-0.0008	-0.0046	-0.0068	-0.0015	6	31
-0.0015	-0.0015	-0.0046	-0.003	5.9	31
-0.0008	-0.0008	-0.0053	-0.0008	6.1	31
-0.0015	-0.0015	-0.0053	-0.0015	5.7	31
0.0007	-0.0008	-0.0038	-0.003	5.9	31
0.003	-0.0023	-0.0038	-0.0023	5.9	31
0.0037	-0.003	-0.0053	-0.0008	6	31
0.0045	-0.003	-0.0023	-0.0023	6	31
0.0082	-0.0015	-0.0015	-0.0015	5.8	31
0.0082	-0.0015	-0.0038	-0.0008	6	31
0.0045	-0.0023	-0.0038	-0.0015	5.8	31
0.009	-0.0015	-0.006	0.0007	6.2	31
0.0082	0.0007	-0.0053	0.0007	5.8	31
-0.0046	0.003	-0.003	0.0007	6.1	31
-0.021	0.0045	-0.0008	-0.0008	6.1	31
-0.03	0.0045	0	-0.0015	6	31
-0.0173	0.003	0.0015	-0.0015	6	31
-0.0083	0.003	0.0022	-0.0023	5.9	31
-0.0068	0.0007	-0.0015	-0.0008	6	31
0	-0.0008	-0.0083	-0.0008	5.9	31
0.0052	0.0015	-0.0135	0.0007	6.1	31
0.0112	0.0052	-0.012	0.0007	5.8	31
0.015	0.0075	-0.0105	0	6.2	31
0.0187	-0.0015	-0.0038	0.0015	5.9	31
0.0105	-0.0203	0.0112	-0.0008	6.1	31
-0.0038	-0.0278	0.0187	-0.0008	5.9	31
-0.0068	-0.0195	0.0195	0.0007	6	31
-0.0053	-0.0105	0.0187	0.0015	6	31
-0.0008	-0.0075	0.0165	0.0015	6	31
-0.0008	-0.003	0.009	0.0007	6.2	31
-0.003	-0.0015	0.0015	0.0007	5.8	31
-0.0008	0.0022	-0.003	-0.0008	5.9	31
0.0022	0.0067	-0.0083	0	6.1	31
0.0045	0.006	-0.0113	0.003	6	31
0.0015	-0.0038	-0.0128	-0.0008	6.1	31
0	-0.0083	-0.0105	-0.0008	6.1	31
0.0007	-0.0008	-0.0053	0.0007	5.9	31
0.0052	-0.003	-0.0038	-0.0008	6.2	31
0.0082	-0.0098	-0.0023	-0.0015	6	31
0.0082	-0.0008	-0.0015	-0.0015	6.3	31
0.0045	0.009	0	-0.0008	6.2	31
0.0007	0.003	0.0015	-0.0008	5.9	31
0.0015	-0.0038	0.0022	-0.0008	6.3	31
-0.0015	-0.003	0.0067	-0.0015	5.9	31
-0.0038	-0.0015	0.0105	-0.0008	6.3	31
-0.003	-0.0008	0.009	0.0007	5.9	31
-0.0015	-0.0053	0.003	-0.0008	6.2	31
-0.0015	-0.0068	-0.0015	-0.0015	6.2	31
-0.003	-0.0015	-0.003	-0.0015	6.2	31
-0.0015	0.0007	-0.0046	-0.0023	6.1	31
-0.0023	0.0015	-0.0053	-0.0015	6.2	31
-0.0023	0.003	-0.0038	-0.0008	6.1	31
-0.0015	0.0007	-0.0038	-0.0015	6.3	31
-0.0015	0.0007	-0.0023	-0.0008	6	31
-0.0038	-0.0008	-0.0015	0.0015	6.1	31
-0.0046	0	-0.0015	0.0015	6.1	31
-0.0046	-0.003	0.0007	0.003	6.1	31
-0.0023	-0.0023	-0.0008	0.0022	6.2	31
0.0007	-0.0008	-0.0015	0.0015	6	31
-0.0008	-0.0015	-0.0015	0.0007	6.2	31
-0.0015	0.0007	-0.0008	0.0015	6.1	31
-0.0008	-0.0008	-0.003	0.0007	6.2	31
-0.0023	-0.0015	-0.0053	-0.0008	6.2	31
-0.0015	-0.0046	-0.0046	-0.0015	6.2	31
-0.0038	-0.006	-0.003	0.0007	6.1	31
-0.003	-0.0053	-0.0038	0.0015	6.1	31
-0.0038	-0.0053	-0.0046	0.0007	5.9	31
-0.003	-0.003	-0.0008	-0.0015	6.2	31
-0.0015	-0.0008	0.0007	-0.0015	6.1	31
-0.0015	0.003	0.0007	-0.0008	6.1	31
-0.0015	0.0007	0	-0.0008	6.5	31
-0.0015	-0.0008	-0.0008	0.0015	5.9	31
-0.0008	-0.0008	0.0022	0.003	6.4	31
-0.0008	-0.0008	0.0015	0.0022	6.2	31
0.0007	-0.0008	0	0	6.3	31
0.0015	-0.0053	-0.0015	-0.0015	6.1	31
0.0052	-0.0091	-0.0023	0.0007	6.2	31
0.009	-0.0046	-0.0038	0.0022	6.3	31
0.0082	0.0045	-0.0046	0.0022	6.1	31
0.0082	0.0015	-0.0053	0.0007	6.3	31
0.0067	-0.0008	-0.0068	-0.0008	6.2	31
0.0022	-0.0015	-0.0053	-0.0008	6.2	31
0.0022	0.0067	-0.0046	-0.0023	6.1	31
-0.0015	0.0127	0	-0.003	6.3	31
-0.0158	0.0052	0.0052	-0.0046	6	31
-0.0263	-0.0053	0.0067	-0.0046	6.3	31
-0.0165	-0.0113	0.0045	-0.0038	6.1	31
-0.0053	-0.015	0.0015	-0.0046	6.3	31
-0.0053	-0.015	0.0022	-0.003	6.3	31
0.0015	-0.0098	-0.0015	-0.0008	6.1	31
0.006	-0.0038	-0.0023	0.0007	6.4	31
0.0112	0.006	0.0007	0.003	5.9	31
0.0142	0.0067	0.0007	0.0007	6.4	31
0.0067	0.0007	0.0015	-0.0008	6	31
0.0045	-0.0053	0.0045	-0.0023	6.2	31
-0.0008	-0.0158	0.0045	-0.0038	6.1	31
-0.0053	-0.0143	0.003	-0.0023	6.3	31
-0.0053	-0.0083	0.0007	-0.0038	6.1	31
-0.0083	-0.0091	-0.0023	-0.0046	6.1	31
-0.0068	-0.0091	-0.003	-0.003	6.2	31
-0.0053	-0.0053	-0.0015	-0.003	6	31
-0.003	-0.0053	-0.0038	-0.0008	6.3	31
0	-0.0038	-0.0038	0.0007	6	31
0.0015	-0.0046	-0.003	-0.0008	6.3	31
0.0022	-0.0015	-0.0053	0.0007	6.1	31
-0.0008	0.0007	-0.003	0.0007	6.3	31
-0.0008	0.0015	-0.0008	0.0007	6.1	31
0.0045	0.003	0.0007	0.0007	6.2	31
0.0067	0.0022	0.0007	-0.0015	6.2	31
0.0082	0.0015	0	-0.0008	6.1	31
0.0052	0.0015	0	0.0015	6.3	31
0.0045	0	-0.0008	0.0015	6.1	31
0.003	-0.0023	-0.003	-0.0015	6.2	31
-0.0008	-0.0046	-0.0023	-0.003	6	31
0.0007	-0.0015	0.0015	-0.0023	6.2	31
-0.0008	-0.0008	0.0037	-0.0008	5.9	31
-0.003	0.0015	0.0007	0	6.2	31
-0.0046	0.0007	-0.0015	-0.0015	6.2	31
-0.0046	-0.0008	-0.0023	0	6.2	31
-0.0046	0	-0.0015	-0.0008	6.1	31
-0.003	-0.0008	-0.0015	0	5.9	31
-0.0015	0	-0.0038	0	6.3	31
-0.0008	-0.0008	-0.003	-0.0008	5.9	31
0.0007	0.0022	-0.0023	0.0007	6.2	31
0.0015	0.0007	-0.0053	0.0007	5.9	31
0.0037	0.0045	-0.0105	0.0015	6.2	31
0.0067	0.0105	-0.0165	0.0015	6	31
0.003	0.0105	-0.0173	0.0007	6.1	31
-0.0015	0.0097	-0.012	0.0007	6.2	31
-0.0038	0.0015	-0.0068	-0.0008	6.1	31
-0.0053	-0.0083	0.0007	-0.0015	6.1	31
-0.0046	-0.0098	0.0082	-0.0015	6.2	31
-0.003	-0.0091	0.0165	-0.0008	6.2	31
0.0007	-0.0158	0.0217	-0.0008	6	31
0.0007	-0.0233	0.0217	-0.0023	6.3	31
-0.0008	-0.0248	0.0165	-0.0008	5.9	31
-0.0023	-0.0233	0.0082	0.0022	6.3	31
-0.0015	-0.0128	0.003	0.0022	6	31
0.003	-0.0038	-0.0023	0.0015	6	31
0.009	0.0022	-0.0068	0.0015	6.2	31
0.0112	0.0082	-0.0075	0.0015	6	31
0.0052	0.012	-0.0038	-0.0008	6.3	31
0.0037	0.0157	-0.0046	-0.0008	6.2	31
0.003	0.0105	-0.0038	-0.0008	6.1	31
0.006	0.0097	-0.0053	-0.0008	5.9	31
0.0105	0.0052	-0.0091	-0.0015	6.1	31
0.0075	-0.0015	-0.0075	-0.0023	5.8	31
-0.0053	-0.0046	-0.0075	-0.0008	6.2	31
-0.0181	-0.0068	-0.006	0.0015	5.9	31
-0.0091	-0.012	-0.0053	-0.0008	6.3	31
0.0022	-0.0105	-0.0068	0	5.9	31
-0.0008	-0.0053	-0.0046	0.0015	6.2	31
-0.015	-0.006	-0.003	0.0007	6.2	31
-0.048	-0.0068	-0.0015	-0.0015	6.1	31
-0.0465	-0.0046	-0.0015	-0.0023	6.1	31
-0.0083	-0.003	-0.0008	0	6	31
0.0007	-0.0015	-0.0008	0.0007	6.1	31
0.003	-0.0046	-0.0008	0.0007	5.9	31
0.0067	-0.0046	-0.003	-0.0008	6	31
0.003	-0.006	-0.0023	0	6.1	31
0.0067	-0.0053	0.0007	0.003	6	31
0.0052	-0.0015	0.0007	0.0007	6	31
0.0045	-0.0015	0.0007	-0.0008	6.2	31
0.0052	0.0015	-0.0015	0.0007	5.9	31
0.0067	0.0015	-0.003	-0.0008	6.2	31
0.006	0.0007	-0.0053	-0.0015	5.9	31
0.0052	0.003	-0.006	-0.0015	6.3	31
0.0067	0.0067	-0.0053	0	6	31
0.009	0.0067	-0.0015	0	6.2	31
0.009	0.009	0.0015	0	6.1	31
0.0097	0.012	0.0022	0.0015	5.9	31
0.0105	0.0075	0.0037	0.003	6.3	31
0.0045	-0.0075	0.0037	0	5.9	31
0	-0.0218	0.003	-0.0023	6.3	31
0.0015	-0.0181	0.0007	-0.003	6.1	31
-0.003	-0.0128	-0.0015	-0.0075	6	31
-0.0068	-0.012	-0.0008	-0.0105	6	31
-0.0046	-0.0105	0.0015	-0.0098	6.2	31
-0.0038	-0.0083	0.0007	-0.0083	5.9	31
-0.0046	-0.003	0.0007	-0.0015	6.2	31
-0.0038	0.0067	0.0015	0.015	6	31
0.0007	0.0202	0.0015	0.0225	5.9	31
0.006	0.012	0.0007	0.006	6.2	31
0.0082	0.006	-0.0038	0	5.9	31
0.009	0.0075	-0.0181	0.0037	6.2	31
0.0052	0.0007	-0.03	-0.0015	5.7	31
-0.0008	-0.003	-0.0233	-0.003	6.1	31
-0.0008	-0.0158	-0.0143	-0.0046	5.8	31
0.0015	-0.0188	0.0015	-0.0023	6.2	31
0.0007	-0.021	0.018	-0.0008	5.9	31
-0.0015	-0.0181	0.0292	-0.0023	6.1	31
0.0022	-0.006	0.036	-0.003	6.2	31
-0.0091	-0.0015	0.0345	-0.0046	6.1	31
-0.0278	0.0037	0.0337	-0.0038	6.1	31
-0.0203	0.0052	0.0232	-0.0046	6.1	31
-0.012	0.0045	0.012	-0.003	5.9	31
-0.0075	0.009	0.0007	-0.0008	6.1	31
0.0037	0.0195	-0.015	0.0007	6	31
0.012	0.015	-0.0203	-0.0008	5.9	31
0.0142	0	-0.0256	0.0007	6.1	31
0.0105	-0.0165	-0.0248	0	5.8	31
0.0082	-0.015	-0.021	-0.0008	6.2	31
0.0067	0.0015	-0.0181	0	5.9	31
0.0067	0.0045	-0.0165	0	5.9	31
0.012	0.0135	-0.0098	0.0022	6	31
0.0105	0.0202	-0.0008	0.0045	5.9	31
-0.0053	0.0127	0.0075	0.003	6	31
-0.0353	-0.0023	0.018	-0.0015	6	31
-0.054	-0.0173	0.0195	-0.003	5.9	31
-0.0233	-0.0293	0.0187	-0.0008	6.1	31
0.0022	-0.0256	0.0142	0.0007	5.9	31
-0.0008	-0.0105	0.0105	0	5.8	31
0.0045	-0.0143	0.0105	0	6.2	31
-0.0008	-0.0083	0.0052	0.0015	5.8	31
0.0015	-0.0023	0.0015	0.0007	6.2	31
0.0052	-0.0038	-0.003	0.0007	5.8	31
0.0045	0.0015	-0.0068	0	6.1	31
0.0067	-0.0015	-0.0083	-0.0015	5.8	31
0.0052	-0.0015	-0.0105	-0.0008	5.9	31
0.0075	-0.003	-0.0105	-0.0015	5.9	31
0.0052	0.0015	-0.0075	0.0015	5.9	31
0.006	0.0037	-0.0053	0.0022	6	31
0.0045	0.0015	-0.0053	-0.0008	5.9	31
-0.0008	0.0015	-0.006	-0.0015	5.9	31
0	0.003	-0.0046	0.0007	5.9	31
0.0007	0.0045	-0.0046	-0.0015	5.8	31
0.0015	-0.0008	-0.0046	-0.0008	5.8	31
0.0007	-0.0015	-0.0038	0	6.2	31
0.0007	-0.0015	-0.0068	-0.0015	5.6	31
0.0015	-0.0015	-0.0091	-0.0015	6	31
0.0015	-0.0008	-0.0068	-0.003	5.7	31
0	0.0015	-0.0053	-0.0015	6	31
0	0.0015	-0.006	-0.0015	5.9	31
0.0015	0	-0.003	0.0007	5.8	31
-0.0008	0.0007	-0.0015	0.0015	6	31
0	0.0007	-0.0015	0.0015	5.8	31
0.0007	0.0007	-0.0008	0.0015	6.1	31
0.0022	0.0015	-0.003	0.0015	5.8	31
0.0045	0.0015	-0.0023	0.003	5.9	31
0.0007	-0.0038	0.0015	0.003	5.8	31
-0.0023	-0.0091	0.0007	0.0022	5.9	31
-0.003	-0.0068	0.0007	0.0007	5.8	31
-0.0053	-0.006	0.0022	0.0015	6.2	31
-0.0046	-0.0023	0.0015	0.0007	5.8	31
-0.003	0	0.0015	-0.0023	5.7	31
-0.003	0.0007	-0.0008	-0.003	5.9	31
-0.0023	0.0015	-0.003	-0.003	5.8	31
-0.003	0.0045	-0.0008	-0.0015	6.1	31
0.003	0.0052	-0.003	0.0007	5.7	31
0.0075	0.003	-0.0068	0	6.1	31
0.0112	-0.0015	-0.0091	-0.0015	5.7	31
0.0105	-0.0083	-0.0083	-0.003	5.9	31
0.009	-0.0113	-0.006	-0.0015	5.8	31
0.0067	-0.0248	-0.0015	-0.0038	5.8	31
0	-0.0346	0.003	-0.0053	5.8	31
-0.003	-0.0165	0.0045	-0.0015	5.8	31
-0.0113	-0.0015	0.006	-0.0008	5.7	31
-0.0181	0.0082	0.0067	0	6	31
-0.0165	0.018	0.0075	0.0015	5.8	31
-0.0015	0.015	0.009	0.0015	5.9	31
0.0067	0.0127	0.0127	0.0007	5.9	31
-0.003	0.0105	0.0127	-0.0008	5.8	31
-0.0091	0.0097	0.0097	-0.0008	5.9	31
-0.0068	-0.0008	0.0045	-0.0023	5.6	31
-0.003	-0.0158	-0.0015	-0.003	5.9	31
-0.0008	-0.0188	-0.003	-0.0015	5.6	31
-0.0008	-0.0195	-0.0083	-0.0008	5.9	31
0.0007	-0.0203	-0.0165	-0.0008	5.8	31
0.0007	-0.0203	-0.0203	-0.0008	5.8	31
0	-0.0105	-0.024	0.0007	5.9	31
0	-0.0046	-0.0263	-0.0015	5.8	31
0	-0.0038	-0.0158	-0.0015	5.8	31
0.0052	0.0045	-0.0053	0.0015	5.9	31
0.0105	0.0082	0.0052	0.0015	5.8	31
0.0052	0.0067	0.0247	0.0007	5.8	31
-0.0046	0.003	0.0337	0	5.9	31
-0.0105	0	0.0345	-0.0023	5.6	31
-0.0068	0.0015	0.0307	-0.003	6	31
-0.0015	0.0067	0.0217	-0.0008	5.5	31
0	0.0067	0.0127	-0.0008	5.9	31
-0.0008	-0.0023	0.003	0.0015	5.5	31
0.0007	-0.0091	-0.003	0.0015	5.7	31
0.0067	-0.0038	-0.0091	0.0015	5.7	31
0.0142	0.0015	-0.0181	-0.0046	5.6	31
0.0127	-0.0015	-0.0248	-0.0158	5.8	31
0.0082	-0.0128	-0.024	-0.0203	5.5	31
0.006	-0.027	-0.0181	-0.0158	5.7	31
0.0067	-0.0188	-0.012	0.0127	5.8	31
0.0067	-0.0075	-0.003	0.0292	5.7	31
-0.0046	-0.0053	0.009	0.0127	5.6	31
-0.0315	0	0.0195	0.006	6.1	31
-0.057	-0.0046	0.0202	0.0022	5.5	31
-0.0338	-0.0075	0.0172	-0.0015	5.9	31
-0.0008	-0.0038	0.0097	-0.0008	5.6	31
-0.003	0.0015	0.0007	-0.0015	5.7	31
0.003	0.009	-0.0015	0.0015	5.7	31
0.003	0.0082	-0.0083	0	5.6	31
0	0.0045	-0.0135	-0.0015	5.6	31
0.0052	0.0015	-0.0128	-0.0023	5.3	31
0.0052	0.0045	-0.0105	-0.0008	5.8	31
0.0097	0.0052	-0.0098	0.0015	5.3	31
0.006	0.0052	-0.0098	-0.0038	5.6	31
0.0037	0.003	-0.0068	-0.0181	5.6	31
0.0015	0.0007	-0.0068	-0.0218	5.6	31
0.0007	0.003	-0.0068	-0.0091	5.5	31
0.0037	0.0007	-0.0068	0.0082	5.6	31
0.0015	-0.0015	-0.0053	0.0142	5.6	31
0.0022	-0.0046	-0.0046	0.009	5.5	31
0.003	-0.006	-0.003	0.0097	5.6	31
0.0015	-0.0098	-0.003	0.003	5.4	31
0.0007	-0.0091	-0.0015	-0.0046	5.8	31
0.0045	0.003	0.0007	-0.0015	5.4	31
0.0045	0.015	0.0015	-0.0046	5.7	31
0.0015	0.006	0.003	-0.0008	5.4	31
0.0022	0.0007	-0.0008	0.0112	5.6	31
0.0037	0.0045	-0.0015	0.0052	5.4	31
0	-0.0015	-0.0015	-0.0158	5.5	31
-0.0023	0.0007	-0.003	-0.0143	5.6	31
0.0007	-0.0008	-0.0046	-0.0023	5.4	31
-0.003	-0.0008	-0.0038	0.0052	5.4	31
-0.003	-0.0008	-0.003	0	5.5	31
-0.0023	-0.0038	-0.003	-0.0181	5.4	31
-0.003	-0.0046	-0.0015	-0.0128	5.4	31
-0.0038	-0.0091	-0.003	0.0255	5.5	31
-0.0023	-0.006	-0.003	0.0442	5.2	31
-0.0015	0	-0.0023	0.0285	5.5	31
-0.0015	-0.0008	0	0.0112	5.3	31
-0.0008	-0.0038	0.0022	-0.0135	5.4	31
-0.0015	-0.0015	0.0007	-0.0143	5.6	31
-0.0008	0.0045	0.0007	0.006	5.3	31
-0.0008	0.0037	-0.0015	0.0015	5.4	31
-0.0008	-0.0046	-0.0038	-0.0098	5.3	31
0.0007	-0.0075	-0.0046	-0.0008	5.6	31
-0.0008	-0.006	-0.0038	0.012	5.3	31
-0.0023	-0.0075	-0.003	0.009	5.3	31
-0.003	-0.0038	-0.0015	-0.0046	5.4	31
-0.0015	-0.0046	-0.0023	-0.0165	5.3	31
-0.0015	-0.003	-0.0008	-0.027	5.3	31
-0.0015	0.0007	-0.0008	-0.03	5.6	31
0	-0.0015	0	0.003	5.2	31
-0.0015	-0.0068	0.0015	0.009	5.5	31
0.0007	-0.0068	0.0045	-0.0053	5.3	31
0.0052	-0.0053	0.003	0.012	5.3	31
0.0082	-0.0046	0.003	0.021	5.3	31
0.0075	0.003	0.0015	0.012	5.2	31
0.003	0.006	0	0.0015	5.3	31
0.0015	0.0045	0.0007	-0.0098	5.2	31
0.0022	0.003	-0.0015	-0.0173	5.3	31
0.0052	0.0067	-0.0046	-0.0113	5.3	31
0.0067	0.0045	-0.0083	0.003	5.2	31
0	-0.0015	-0.0091	0.0217	5.3	31
-0.0091	0.0007	-0.0091	0.027	5.3	31
-0.0195	0.0045	-0.0083	0.0142	5.3	31
-0.0143	0.0015	-0.0038	-0.0023	5.3	31
0.0037	-0.0038	-0.0008	-0.0105	5.2	31
0.006	-0.0083	0.0007	-0.012	5.3	31
0.0015	-0.0188	0.0045	-0.0165	5.2	31
0	-0.0263	0.0075	-0.0091	5.1	31
-0.0038	-0.0225	0.0082	0.0015	5.3	31
-0.0038	-0.021	0.009	0.0037	5	31
-0.006	-0.0113	0.0105	0.0007	5.5	31
-0.0038	-0.0053	0.0067	-0.0075	5	31
-0.0015	-0.0038	0.0022	-0.0188	5.3	31
0.0007	0.0037	-0.0023	-0.0338	4.9	31
0.0007	0.0007	-0.0046	-0.0353	5.1	31
-0.003	-0.0008	-0.006	-0.0188	5.2	31
-0.0015	0.0015	-0.006	0.0127	5	31
0.0022	0.0052	-0.0038	0.0502	5	31
0.003	-0.0008	-0.0038	0.0465	5	31
-0.0008	-0.0098	-0.0023	-0.0105	5.1	31
-0.0008	-0.0046	-0.0008	-0.0465	4.9	31
0.003	-0.003	0.0007	-0.0436	5.2	31
0.006	-0.0015	0.0015	-0.0143	4.8	31
0.0045	0.0015	0.0015	0.0502	5.3	31
-0.0008	0.0022	0.0007	0.0712	5	31
-0.0008	0.003	0.0007	0.0405	4.9	31
0.0007	0.0007	0.0007	0.0172	4.9	31
0.0015	0.0015	-0.0008	-0.0008	4.9	31
0.0015	0.0007	-0.003	-0.0188	5	31
-0.0008	-0.003	-0.0038	-0.042	4.7	31
0.0007	-0.003	-0.0023	-0.057	5	31
0.0015	-0.0046	-0.0008	-0.03	4.9	31
-0.0008	-0.0046	0.0007	0.0532	5	31
-0.0008	-0.003	0.0015	0.0817	4.9	31
-0.0008	-0.0015	0.0015	0.0225	4.9	31
0	0	0.0015	-0.0158	4.7	31
-0.0015	-0.003	-0.0008	-0.0278	4.9	31
-0.0023	-0.003	-0.0008	-0.0181	4.7	31
-0.0023	-0.0015	0.0022	-0.0091	4.9	31
-0.0015	-0.0015	0.003	-0.0091	4.8	31
-0.0008	-0.0008	0.0045	-0.0053	4.7	31
-0.0015	-0.0015	0.0037	-0.0075	5	31
-0.0023	-0.0008	0.0022	-0.0135	4.5	31
-0.0023	-0.0008	-0.0008	-0.033	4.7	31
-0.003	-0.0038	-0.0023	-0.0083	4.5	31
-0.0015	-0.0015	-0.0015	0.0202	4.9	31
-0.0015	-0.0015	-0.003	0.0105	4.3	31
-0.0008	-0.0046	-0.0053	-0.0135	4.5	31
-0.0008	-0.0015	-0.0038	-0.0428	4.6	31
-0.0015	-0.0015	-0.0038	-0.0503	4.5	31
-0.0008	-0.0015	-0.0046	-0.0728	4.7	31
-0.0008	0.0007	-0.0083	-0.0495	4.6	31
0	0.0007	-0.0091	0.0862	4.5	31
-0.0008	-0.0015	-0.0046	0.1755	4.5	31
0	0.0007	0	0.0982	4.5	31
0.0022	0.0007	-0.0015	0.0217	4.4	31
0.0015	-0.0023	-0.0038	-0.0046	4.5	31
0.0015	-0.003	0.0007	-0.0188	4.3	31
0.0015	-0.0015	0.0045	-0.0128	4.4	31
0.0007	0.0007	0.0015	-0.0428	4.3	31
0.0007	0.0015	-0.0038	-0.0443	4.1	31
-0.0023	0	-0.0053	-0.0608	4.4	31
-0.0015	-0.003	-0.006	-0.0068	4.1	31
-0.0008	-0.0053	-0.0068	0.1012	4.3	31
-0.0015	-0.0098	-0.0075	0.0915	4.1	31
-0.0023	-0.0098	-0.0015	-0.0128	4.1	31
-0.0015	-0.0075	0.009	-0.0893	4.1	31
-0.0008	-0.0046	0.009	-0.0735	4	31
0.0007	0.0045	0.003	-0.0293	3.9	31
0	0.009	-0.0008	-0.0023	4.1	31
-0.0015	0.003	-0.0046	-0.027	3.7	31
-0.0015	0	-0.0046	-0.0218	4.1	31
-0.0008	0	-0.003	-0.0323	3.7	31
0	-0.0015	-0.0015	-0.0158	4	31
-0.0023	-0.0008	0.0015	0.1095	3.9	31
-0.0015	0	0.0052	0.159	3.7	31
-0.0008	0	0.003	0.0562	3.9	31
-0.0008	-0.0023	-0.0008	-0.057	3.7	31
0.0007	0.0015	-0.0015	-0.0645	3.9	31
-0.0008	0.0007	-0.0068	-0.0383	3.8	31
-0.0008	-0.0023	-0.0075	-0.0046	3.6	31
0.0007	-0.0046	-0.003	-0.0046	3.7	31
0.0007	-0.003	0.0037	0.0172	3.7	31
0.0015	0.0015	0.0075	0.0165	3.3	31
0.0015	0.003	0.006	-0.0308	3.7	31
0.0007	0.0037	0.0007	-0.0465	3.4	31
0.0007	-0.0008	-0.0053	-0.0743	3.6	31
0	-0.0038	-0.0091	-0.0691	3.3	31
0	-0.0046	-0.0068	-0.0203	3.4	31
0	-0.0023	0.0007	0.0705	3.5	31
0	-0.003	0.0022	0.1012	3.2	31
0	-0.0046	0.0037	0.0615	3.3	31
0	-0.0023	0.003	0.042	3.1	31
0	-0.003	0.0007	0.0367	3.3	31
0	-0.0046	0.0007	-0.0015	3	31
-0.0015	-0.0053	-0.0046	-0.0158	3	31
-0.0023	-0.0068	-0.0083	0.0292	3.1	31
-0.003	-0.0091	-0.0083	0.033	3	31
-0.0023	-0.0098	-0.0091	0.003	2.9	31
-0.0023	-0.0091	-0.0053	-0.0525	3	31
-0.0015	-0.0068	-0.0015	-0.0638	2.8	31
-0.0008	-0.0046	-0.0008	-0.027	2.7	31
-0.0015	-0.0068	-0.003	0.0187	2.7	31
0.0007	-0.0075	-0.0046	0.048	2.5	31
0.0007	-0.0068	-0.003	-0.0375	2.8	31
0	-0.0023	-0.0015	-0.0653	2.4	31
0.0015	-0.0046	-0.0008	0.0202	2.7	31
0.0007	-0.012	0.0007	-0.0083	2.2	31
-0.0008	-0.0038	0.0082	-0.057	2.3	31
-0.0008	0.0127	0.0097	-0.0405	2.2	31
0.0007	0.009	0.0022	-0.0285	2.3	31
-0.0008	0.0075	0.0007	-0.0293	2.2	31
-0.0008	0.018	0.0007	-0.0263	2	31
-0.0008	0.012	-0.0015	-0.0128	2	31
-0.0008	0.0007	0	0.0262	2	31
0	0.0015	-0.0015	0.066	1.9	31
0.0007	-0.0068	-0.0105	0.0315	1.7	31
0.0007	-0.012	-0.012	0.0112	1.8	31
0.0007	-0.0091	-0.0083	0.0682	1.4	31
0.0007	-0.0075	-0.0046	0.063	1.6	31
0.0015	-0.0053	0	-0.012	1.3	31
0	-0.003	0.003	-0.0728	1.5	31
0	-0.0008	0.0037	-0.0975	1.2	31
0.0007	0.0007	-0.0008	-0.048	1.2	31
-0.0023	0.0022	-0.003	0.0165	1.2	31
-0.0046	-0.0023	-0.003	0.066	0.9	31
-0.0053	-0.0053	-0.0046	0.0742	1.2	31
-0.0046	-0.0083	-0.0015	0.0427	0.9	31
0.0007	-0.003	0.0022	-0.0068	0.7	31
0	-0.0015	0.003	-0.0256	0.6	31
-0.0008	-0.0046	0.0022	-0.012	0.5	31
0	-0.0038	0.0007	-0.0188	0.3	31
0.0007	-0.006	-0.0008	-0.0105	0.6	31
0.0007	-0.0075	-0.0008	-0.0083	0.2	31
-0.0023	-0.0068	-0.003	-0.0225	0.6	31
-0.003	-0.0038	-0.0008	-0.024	0	31
0	-0.003	-0.0008	0	0.3	31
0.0007	-0.0038	-0.003	0.003	0	31
0.0007	-0.0023	-0.0008	-0.0346	0	31
-0.0008	-0.0038	0.0007	-0.021	-0.1	31
-0.0008	-0.003	0.003	0.0405	-0.2	31
-0.0008	0.0007	0	0.072	0	31
-0.0015	-0.003	-0.0053	0.06	-0.4	31
-0.0015	-0.0008	-0.0046	0.0427	-0.5	31
-0.003	0.0015	-0.0015	0.0045	-0.5	31
-0.003	-0.0053	-0.0015	-0.0338	-0.7	31
-0.0015	-0.0105	-0.0015	0.0015	-0.7	31
-0.0015	-0.003	0.0022	0.003	-0.5	31
-0.0015	0.003	0.006	0.0052	-1	31
-0.0008	0.0022	0.0022	0.0052	-0.9	31
-0.0015	0	0	-0.0361	-1.3	31
-0.0008	-0.0015	-0.0023	-0.0503	-1.2	31
-0.0008	-0.0038	-0.0046	-0.057	-1.3	31
0	0.0007	-0.0046	0.0037	-1.4	31
0	0.0082	-0.0008	0.0607	-1.1	31
-0.0008	0.0052	-0.0015	0.0412	-1.7	31
0	0.0015	-0.003	0.0247	-1.3	31
-0.0008	0	0.0007	0.0112	-1.9	31
-0.0015	-0.006	0.0007	-0.006	-1.6	31
-0.0015	-0.0046	0.0015	0.006	-1.8	31
-0.0015	0	0.0015	0.0105	-1.9	31
-0.0008	-0.0053	0.0007	-0.003	-2	31
0	-0.0091	0.0022	-0.003	-2.2	31
-0.0008	-0.0075	0.0015	-0.0195	-2.3	31
-0.0008	-0.0173	-0.0038	-0.0278	-2.3	31
-0.0015	-0.0203	-0.0046	-0.0091	-2.4	31
-0.0015	-0.006	-0.0023	-0.0068	-2.5	31
-0.0008	0.0007	-0.0008	-0.0195	-2.6	31
0.0007	0.0045	0	-0.012	-2.9	31
0	0.0007	0.0007	0.0007	-2.6	31
0	-0.0046	-0.0015	0.0067	-3.2	31
0.0007	0	-0.003	-0.0098	-2.8	31
0	-0.0008	-0.0008	-0.0053	-3.4	31
0	0.0045	0.0015	0.0022	-3.1	31
0.0015	0.0037	0.0007	-0.0091	-3.4	31
0.0022	0.0022	0.0015	-0.0015	-3.4	31
0.0022	0.0007	0.0015	0.0022	-3.6	31
0.0022	-0.0038	-0.0008	0.0135	-3.7	31
0.0045	-0.003	-0.0008	0.0195	-4.1	31
0.0037	-0.0053	-0.0015	0.012	-3.9	31
0.0015	0	-0.0015	0.0097	-4.2	31
0.0015	0.0007	-0.0015	0.0082	-4.2	31
0.0015	-0.0015	-0.0053	0.0082	-4.4	31
0	-0.0008	-0.0053	0.009	-4.6	31
-0.0015	-0.0015	-0.003	0	-4.4	31
0.0007	-0.0015	0.0015	-0.0075	-4.9	31
-0.0008	-0.0023	0.0022	0	-4.8	31
-0.003	-0.0053	-0.0015	-0.0015	-5	31
-0.0023	-0.006	-0.0015	-0.0038	-5.2	31
-0.0015	-0.003	0.0007	-0.0046	-5.1	31
-0.0008	-0.0008	0.0015	-0.0038	-5.5	31
-0.0008	0.0007	0.0015	0.0007	-5.5	31
-0.0015	0.0022	0.0007	-0.0015	-5.7	31
-0.003	0.003	0.0007	-0.0015	-5.7	31
-0.003	0.003	0.0007	0	-5.9	31
0.0007	0.0037	0.0015	-0.0008	-6.1	31
0.0007	0.0022	0.0007	-0.0053	-6.3	31
0	0	0	-0.0091	-6.2	31
0.0015	0	0.0015	-0.0098	-6.8	31
0	-0.0015	-0.0015	-0.0091	-6.5	31
0	-0.003	-0.003	-0.0098	-7	31
0.0007	-0.0038	-0.0015	-0.0083	-6.7	31
0.0007	-0.0053	-0.0015	-0.0091	-7.2	31
-0.0008	-0.0053	-0.0046	-0.0098	-7.1	31
-0.0008	-0.0083	-0.0068	-0.0113	-7.2	31
-0.0008	-0.0091	-0.0075	-0.0075	-7.7	31
-0.0023	-0.0068	-0.0068	0.003	-7.6	31
-0.003	-0.0046	-0.0053	0.0075	-7.6	31
-0.0023	-0.003	-0.0053	0.0015	-7.9	31
-0.0015	-0.0038	-0.0038	-0.003	-7.9	31
-0.0015	-0.0023	-0.003	-0.003	-7.9	31
-0.0015	-0.0023	-0.0023	-0.003	-8.6	31
-0.0015	-0.0038	-0.0015	-0.0023	-8.3	31
-0.0008	-0.003	-0.0023	-0.003	-8.7	31
0.0015	-0.003	-0.0023	-0.003	-8.6	31
0	0	-0.0008	-0.0015	-8.9	31
0.0007	0.003	0.0015	-0.0008	-9	31
0	-0.0008	0.0015	0.0007	-9	31
-0.0015	-0.003	0.003	0.0015	-9.4	31
0	-0.0023	0.0045	0.0015	-9	31
0.0007	-0.0008	0.0037	0.003	-9.7	31
0.0015	-0.0008	0.0045	0.0052	-9.6	31
0.0015	-0.0015	0.003	0.0052	-9.9	31
0.0015	0	0.0007	0.0015	-10	31
0.0015	0	0.0015	0.0015	-10	31
-0.0008	-0.0023	0	0.0015	-10.2	31
0	-0.0015	-0.0023	0	-10.5	31
-0.0015	-0.0008	-0.003	0	-10.5	31
-0.0015	0.0015	-0.0023	-0.0008	-10.6	31
-0.0008	0.0037	-0.0008	-0.0008	-11	31
-0.0008	0.0022	0	-0.0008	-10.8	31
-0.003	0.0015	0	-0.0008	-11.4	31
-0.0046	0.0015	-0.0015	0.0015	-11	31
-0.003	0.0007	-0.0015	0.0007	-11.6	31
-0.0015	0	-0.003	0.0015	-11.5	31
0.0007	-0.0015	-0.0008	0.0045	-11.8	31
0.0015	-0.0023	-0.0008	0.0037	-11.8	31
0.0015	-0.0015	-0.0015	0.0045	-12	31
0.0007	-0.003	0.0007	0.0037	-12.3	31
0.0015	-0.0023	0.0015	0.0015	-12.2	31
0.0015	-0.0038	-0.0015	0.0007	-12.6	31
0	-0.003	-0.0046	0.0015	-12.6	31
-0.0008	-0.0046	-0.0023	0.0007	-12.7	31
-0.003	-0.0053	-0.0046	0.0007	-12.9	31
-0.0053	-0.0068	-0.003	0.0015	-13.2	31
-0.0046	-0.0053	-0.0046	0.0007	-13.1	31
-0.0015	-0.0015	-0.006	0.0007	-13.5	31
-0.0015	-0.0023	-0.0053	-0.0008	-13.5	31
-0.0038	0	-0.0068	-0.0046	-13.7	31
-0.003	-0.0008	-0.0068	-0.0046	-13.8	31
-0.003	-0.0023	-0.0068	-0.0046	-13.8	31
-0.0038	0.0007	-0.0068	-0.0038	-14.3	31
-0.0023	0.0007	-0.006	-0.003	-14	31
-0.0008	0	-0.003	-0.003	-14.4	31
0.0007	0.0015	-0.003	-0.003	-14.4	31
0.0015	-0.0008	-0.003	-0.0015	-14.6	31
0.0007	-0.0015	-0.0023	-0.0008	-14.7	31
0	0	-0.0038	0.0007	-14.9	31
0.0007	0.0007	-0.0008	0.003	-14.9	31
0.0007	0.0007	0.0007	0.003	-15.3	31
0	-0.0008	-0.0008	0.0007	-15.2	31
0.0007	-0.0015	0.0007	0.003	-15.6	31
0.0015	-0.003	0.0015	0.003	-15.6	31
0.0022	-0.0038	0.0007	0	-15.8	31
0.003	-0.0038	-0.0008	0.0007	-16.1	31
0.003	-0.0046	-0.0008	0.0015	-15.9	31
0.003	-0.0053	-0.0008	0.003	-16.4	31
0.0015	-0.0046	-0.0008	0.003	-16.2	31
0.003	-0.0053	-0.0008	0.0015	-16.6	31
0.0015	-0.0038	-0.0023	0.003	-16.7	31
0	-0.0023	-0.003	0.003	-16.7	31
-0.0038	-0.0038	-0.0015	0.0022	-17	31
-0.003	-0.0038	-0.0023	0.0007	-17.1	31
0.0007	-0.0053	0.0007	-0.0008	-17.2	31
0.0015	-0.0046	0.0015	-0.003	-17.5	31
0.0015	-0.0046	0.0007	-0.003	-17.6	31
0.0015	-0.0046	0.0015	-0.003	-17.6	31
0.003	-0.0046	0.0007	-0.003	-18.1	31
0.0015	-0.003	0.0007	-0.0053	-18	31
0.0015	-0.003	-0.0008	-0.006	-18.5	31
0	-0.003	-0.0023	-0.0046	-18.2	31
-0.0008	-0.0023	-0.0015	-0.003	-18.7	31
0.0007	-0.003	-0.0008	-0.0015	-18.7	31
0	-0.0023	-0.0015	-0.0015	-18.9	31
-0.0015	-0.0023	-0.003	-0.003	-19	31
-0.003	-0.003	-0.003	-0.0046	-19.2	31
-0.003	-0.003	-0.0023	-0.003	-19.4	31
-0.003	-0.0023	-0.0015	-0.003	-19.4	31
-0.003	-0.0015	-0.0015	-0.003	-19.6	31
-0.0015	-0.0015	-0.0008	-0.0015	-19.8	31
-0.0015	-0.0008	0	-0.0008	-20.3	31
-0.0015	-0.0023	0	0.003	-20.1	31
-0.0015	-0.003	0	0.0045	-20.6	31
-0.0015	-0.0008	0.0015	0.0045	-20.4	31
-0.0015	-0.0008	-0.0008	0.0052	-20.9	31
-0.003	-0.003	-0.0023	0.0045	-20.8	31
-0.0023	-0.0023	-0.0008	0.003	-21.2	31
0	-0.003	0.0015	0.0022	-21.2	31
-0.0015	-0.0015	0.003	0.0007	-21.3	31
0.0015	0.0007	0.003	0.0015	-21.6	31
0.0015	-0.0008	0.0045	0.003	-21.4	31
0.0007	-0.0008	0.003	0.0037	-22.1	31
-0.0008	-0.0008	0.003	0.0045	-22.1	31
-0.0008	-0.0008	0.0007	0.0015	-22.2	31
-0.0008	-0.0008	0	0.003	-22.4	31
0	-0.003	0	0.0015	-22.5	31
0.0015	-0.0015	-0.0008	-0.0015	-22.5	31
0.0022	-0.0015	0	-0.0015	-22.8	31
0.0007	-0.003	0	-0.0046	-23	31
-0.0008	-0.003	0.0007	-0.006	-23	31
-0.0008	-0.0046	-0.0015	-0.0053	-23.6	31
-0.0015	-0.0046	-0.0046	-0.0053	-23.3	31
-0.0008	-0.0046	-0.0015	-0.0053	-23.9	31
0	-0.0053	-0.0008	-0.0053	-23.7	31
0	-0.0046	-0.003	-0.0046	-24.2	31
0	-0.0053	-0.003	-0.0023	-24	31
-0.0008	-0.0046	-0.003	-0.0015	-24.6	31
-0.0015	-0.0046	-0.0008	0	-24.5	31
-0.0038	-0.0046	-0.0015	-0.0008	-24.8	31
-0.0038	-0.003	0	-0.0015	-24.8	31
-0.003	-0.0015	-0.0008	-0.0008	-25.1	31
-0.003	-0.0008	-0.0015	-0.0008	-25.1	31
-0.0008	-0.003	-0.0008	0.0015	-25.4	31
0.0015	-0.003	-0.0015	0.0022	-25.3	31
0.0007	-0.0053	-0.0008	0.003	-25.6	31
0	-0.0046	0.0007	0.003	-25.8	31
0	-0.0008	0.0007	0.003	-25.8	31
0	-0.0008	0.0007	0.0052	-26.1	31
-0.0015	-0.0023	0.0015	0.0045	-26.1	31
-0.0008	-0.0015	0.0007	0.0052	-26.5	31
0.0007	0.0015	0	0.006	-26.6	31
0	0.0007	0.0045	0.0052	-26.6	31
-0.0008	-0.0023	0.0015	0.0045	-26.8	31
0	-0.0015	-0.0015	0.0045	-27	31
-0.0015	-0.0015	-0.0023	0.003	-27	31
-0.0015	-0.0015	-0.0046	0.0007	-27.1	31
0	0	-0.0053	-0.0008	-27.3	31
-0.0008	0	-0.0053	-0.0008	-27.4	31
-0.0015	0	-0.0068	-0.0008	-27.6	31
-0.0023	0	-0.0068	-0.003	-27.6	31
-0.0008	0	-0.003	-0.003	-28	31
-0.0015	-0.0008	-0.003	-0.0015	-27.7	31
-0.003	-0.0015	-0.0015	-0.0053	-28.3	31
-0.003	-0.0023	-0.0015	-0.0083	-28	31
-0.0015	-0.0008	-0.003	-0.006	-28.4	31
-0.0023	-0.0008	-0.003	-0.0046	-28.5	31
-0.003	-0.0008	-0.0015	-0.0046	-28.5	31
-0.0015	-0.0015	0	-0.0008	-28.7	31
-0.0008	-0.003	0.0015	0.0007	-28.7	31
0.0007	0.0007	0.0015	0.0007	-28.9	31
0.0007	-0.0008	0.0015	0	-29	31
0.0007	-0.0015	-0.0008	-0.0008	-29	31
0.0015	-0.003	0.0015	0.0015	-29	31
0.0007	-0.0023	0.0015	0	-29.2	31
0.003	0.0007	0.0015	-0.0008	-29	31
-0.0008	-0.003	0.003	-0.0023	-29.4	31
-0.003	-0.0046	0.0007	-0.0046	-29.4	31
-0.0015	-0.0046	0	-0.0046	-29.6	31
-0.0015	-0.003	-0.0015	-0.0023	-29.7	31
-0.0015	-0.0015	-0.0015	-0.003	-29.6	31
-0.0008	-0.0046	-0.0008	-0.003	-30.1	31
0.0007	-0.0038	0.0007	-0.0008	-29.7	31
0.0007	-0.0038	0.0007	-0.0015	-30	31
0.0007	-0.0023	-0.0015	-0.0008	-29.8	31
-0.0008	-0.003	-0.0008	0.003	-30.2	31
-0.0008	-0.003	0	0.003	-30.1	31
-0.0008	-0.0015	0.0007	0.0022	-30.3	31
-0.0023	-0.0008	0.0015	0.0022	-30.4	31
-0.0008	-0.0015	0.0007	0.0015	-30.5	31
-0.0008	-0.003	-0.0008	0.003	-30.4	31
0	-0.003	-0.0023	0.0037	-30.4	31
0.0007	-0.003	-0.0015	0.0015	-30.8	31
-0.0008	-0.0038	-0.0015	0.0007	-30.4	31
0	-0.003	-0.0023	-0.0015	-30.9	31
-0.0008	-0.0023	-0.0038	-0.0015	-30.6	31
-0.003	-0.0046	-0.0038	0.0007	-31.1	31
-0.0023	-0.0068	-0.0038	0	-30.8	31
-0.0023	-0.006	-0.0053	-0.0015	-31.1	31
-0.0015	-0.0068	-0.0046	-0.0023	-31.1	31
-0.003	-0.0038	-0.003	-0.003	-31.1	31
-0.0038	-0.0015	-0.0015	-0.0015	-31.4	31
-0.0015	0	0.0007	-0.003	-31.2	31
-0.0008	0	-0.0008	-0.0015	-31.4	31
-0.0015	0	-0.0008	-0.0015	-31.5	31
-0.0008	0.0007	-0.0008	-0.0008	-31.6	31
-0.0008	-0.0008	-0.0008	0.0007	-31.8	31
0.0007	-0.0008	-0.0008	0.0015	-32	31
0.0007	-0.003	-0.0023	0.0045	-31.8	31
0.0007	-0.0015	-0.0015	0.006	-32	31
0.0022	-0.003	-0.0023	0.0015	-32.1	31
0.003	-0.003	-0.0015	0.0015	-32.2	31
0.003	-0.0008	-0.0008	0.003	-32.4	31
0.0015	0.0007	0.0007	0.003	-32.2	31
0.003	0.0007	0.0007	-0.0008	-32.7	31
0.0022	-0.0008	0.0015	-0.0008	-32.4	31
0.003	-0.0015	0.0022	0.0007	-32.9	31
0.0045	-0.0023	0	0	-32.6	31
0.003	-0.003	-0.0008	0.0007	-33	31
0.003	-0.0015	0.0007	0	-33.2	31
0.003	-0.0023	0.0015	-0.0015	-33	31
0.003	-0.003	0.0015	-0.0046	-33.1	31
0.0015	-0.003	0.0007	-0.0046	-33.3	31
0.0007	-0.0008	0.0007	-0.003	-33	31
0.0007	-0.0008	0.0015	-0.003	-33.4	31
0.0015	0	0.0007	-0.0023	-33.4	31
0.0015	0.0007	0.0007	-0.0023	-33.6	31
0.0015	0.0007	0.0015	-0.003	-33.8	31
0.0015	-0.0008	0.0007	-0.0023	-33.7	31
0	-0.0038	0.0022	-0.0008	-34	31
0.0007	-0.0046	0.0015	0.0007	-33.8	31
0.0015	-0.0053	0.0007	0.0015	-34.1	31
0.0015	-0.0046	0.0022	0.0015	-34	31
0.0015	-0.0046	-0.0008	0.0015	-34.2	31
0.0015	-0.0046	-0.0015	-0.0015	-34.5	31
0.0015	-0.003	-0.0008	-0.0015	-34.4	31
0.0007	-0.0046	0.0007	0	-34.5	31
-0.0008	-0.0068	0	-0.0008	-34.5	31
-0.0008	-0.0068	-0.0015	0	-34.4	31
-0.0008	-0.0053	-0.0015	0	-34.7	31
-0.0015	-0.003	0.0007	-0.0008	-34.8	31
-0.0008	-0.0023	0.0022	-0.0015	-34.6	31
-0.0008	-0.0023	-0.0008	-0.0046	-35	31
-0.0008	-0.003	-0.0008	-0.0038	-34.7	31
-0.0015	-0.0023	-0.0008	-0.0046	-35.1	31
-0.0015	-0.0023	-0.0015	-0.0068	-34.9	31
-0.0015	-0.003	-0.0008	-0.0046	-35.1	31
-0.0008	-0.0023	-0.0008	-0.0068	-35.2	31
-0.0023	-0.0015	0.0007	-0.0053	-35.3	31
-0.0015	-0.0015	0.0007	-0.0046	-35.3	31
-0.0008	-0.003	-0.0008	-0.0053	-35.4	31
0.0007	-0.0008	0.0007	-0.0038	-35.4	31
0.0007	0.0007	0.0007	-0.0023	-35.5	31
0	0.0007	0	-0.0015	-35.5	31
-0.0008	0	-0.0008	-0.0015	-35.5	31
-0.0008	-0.0015	-0.0015	-0.0015	-35.7	31
0	-0.0015	-0.0015	-0.0046	-35.4	31
0.0015	-0.003	0.0015	-0.003	-35.8	31
0.0007	-0.0038	0.0022	-0.0023	-35.5	31
0	-0.003	0.0015	-0.003	-35.8	31
-0.0008	-0.003	0.0007	0	-35.6	31
-0.0008	-0.0015	0.0007	0.0007	-35.7	31
-0.0008	-0.003	0.003	0.0045	-36	31
-0.0008	-0.0023	0.0022	0.0075	-35.7	31
-0.0015	-0.0015	0.0015	0.0067	-36	31
-0.0015	-0.0023	0	0.0082	-35.6	31
-0.0015	-0.0015	0.0022	0.0127	-36	31
-0.0023	-0.0015	0.0007	0.0135	-35.9	31
-0.0008	-0.0015	0	0.0127	-35.8	31
-0.0008	-0.0008	-0.0008	0.0082	-35.9	31
-0.0008	0.0007	-0.003	-0.003	-36	31
-0.0015	-0.0008	-0.0015	-0.0091	-35.8	31
-0.0015	-0.0008	-0.003	-0.0068	-36	31
-0.0015	-0.0008	-0.003	-0.0046	-35.9	31
-0.0015	-0.0008	-0.0015	0.0052	-35.9	31
-0.0015	-0.0008	-0.003	0.012	-36	31
-0.0038	-0.003	-0.003	-0.0015	-35.6	31
-0.003	-0.0068	-0.0015	-0.0068	-35.9	31
-0.003	-0.006	-0.0015	-0.0038	-35.7	31
-0.0046	-0.0046	-0.0008	-0.0046	-36	31
-0.0046	-0.0038	-0.0008	-0.0015	-35.7	31
-0.0046	-0.0023	-0.0008	-0.0046	-36	31
-0.0038	-0.0038	-0.0008	-0.0053	-35.8	31
-0.003	-0.006	-0.0015	-0.0075	-35.8	31
-0.0046	-0.0083	-0.0015	-0.0098	-35.9	31
-0.0046	-0.0046	-0.0008	-0.006	-35.8	31
-0.0046	-0.0015	-0.0015	-0.0053	-35.6	31
-0.0046	-0.0008	-0.0023	-0.003	-35.8	31
-0.0046	0	-0.003	-0.0008	-35.6	31
-0.0038	0	-0.0015	0.0022	-35.8	31
-0.0023	0.0007	0	0.0045	-35.7	31
0	-0.0008	-0.0015	0.0052	-35.5	31
0.0007	0.0007	-0.0023	0.006	-35.8	31
0.0007	0.0007	-0.0015	0.0045	-35.3	31
0.0022	0.0007	-0.0023	0.0015	-35.5	31
0.0015	0.0007	-0.003	0.003	-35.4	31
0.0007	-0.0023	-0.0046	0.0007	-35.3	31
0.0007	-0.0015	-0.0046	-0.003	-35.4	31
0.0015	-0.0015	-0.0046	-0.003	-35.1	31
0.0015	-0.0015	-0.003	-0.0023	-35.1	31
0.0007	-0.0015	-0.0015	-0.0008	-35.2	31
0.0015	-0.0015	0.0007	-0.0023	-35.1	31
0.0015	-0.0008	0.0015	-0.0015	-34.9	31
0.0022	0.0007	0.0007	-0.0008	-35.1	31
0.0015	0.0007	0.003	-0.0008	-34.7	31
0.0007	0.003	0.0015	-0.0015	-35.1	31
0.0015	0.0007	-0.0015	-0.0015	-34.6	31
0	-0.0015	-0.0038	-0.0008	-34.8	31
-0.0015	-0.0015	-0.0038	-0.0015	-34.5	31
0	-0.0038	-0.003	-0.0015	-34.6	31
0.0007	-0.0038	-0.003	-0.003	-34.6	31
-0.0008	-0.003	-0.003	-0.0038	-34.4	31
0.0015	-0.003	-0.0023	-0.0023	-34.4	31
0.0015	-0.0046	0	-0.003	-34.2	31
-0.0015	-0.006	0	-0.003	-34.3	31
-0.0008	-0.0053	0.0007	-0.0023	-34.2	31
0.003	-0.0046	0.0007	-0.0015	-34	31
0.003	-0.0046	-0.0015	-0.0015	-33.9	31
0.0015	-0.003	0	0	-33.9	31
0.0015	-0.0038	0.0007	0.0037	-33.6	31
-0.0008	-0.0023	0.0007	0.0037	-33.9	31
-0.0008	0	0	0.003	-33.7	31
-0.0023	0.0015	-0.0008	0.0045	-33.6	31
-0.0023	0.0015	0	0.0052	-33.5	31
-0.0008	0.0007	-0.0015	0.0052	-33.2	31
0	0.0007	0.0007	0.0037	-33.4	31
0	-0.0008	-0.0008	0.0037	-33	31
-0.0015	-0.0015	0	0.0015	-33.1	31
-0.0023	-0.0015	0.0007	-0.0008	-32.8	31
-0.0008	-0.0015	-0.003	0.0007	-33	31
-0.0008	-0.003	-0.0038	0.0007	-32.9	31
-0.0015	-0.0015	-0.003	0.0015	-32.6	31
-0.0015	-0.0015	-0.0015	0.0015	-32.4	31
-0.0008	-0.003	-0.0015	0.0022	-32.4	31
0.0007	-0.0015	-0.0015	0.0007	-32.2	31
-0.0008	-0.0023	-0.0015	-0.0008	-32	31
0.0007	-0.003	-0.0015	0	-32.2	31
0.0007	-0.0015	-0.0046	-0.0015	-31.8	31
0	-0.0046	-0.0053	-0.003	-32	31
0.0007	-0.0046	-0.0046	-0.0046	-31.6	31
-0.0008	-0.0038	-0.0046	-0.0075	-31.8	31
-0.0008	-0.003	-0.0053	-0.0053	-31.4	31
0.0007	-0.0015	-0.003	-0.0068	-31.7	31
0	-0.0015	-0.003	-0.012	-31.1	31
-0.0015	-0.0023	-0.003	-0.0143	-31.1	31
-0.0015	-0.0038	-0.0015	-0.0091	-31	31
-0.0015	-0.0046	-0.0015	0.006	-30.7	31
0.0007	-0.003	-0.0008	0.0217	-30.8	31
0.0007	-0.0008	0.0015	0.015	-30.7	31
0.0007	0	0.0015	0.0082	-30.6	31
0.0007	-0.0008	0.0015	0.0142	-30.4	31
0.0007	-0.0023	-0.0015	0.0045	-30.5	31
0.0007	-0.003	-0.0046	-0.0053	-30.1	31
0.0007	-0.0015	-0.0008	-0.0233	-30.2	31
0.0007	-0.0008	0.0015	-0.0436	-29.9	31
0	-0.0008	0	-0.0405	-30	31
0.0007	0.0007	-0.0008	-0.0068	-29.7	31
-0.0008	0.0007	-0.0008	0.0532	-29.5	31
-0.0008	-0.0008	-0.0008	0.0615	-29.7	31
-0.0008	-0.0008	-0.0015	0.0255	-29.3	31
-0.0008	-0.0023	-0.003	0.009	-29.5	31
-0.0008	-0.0015	-0.0038	0.0007	-29.1	31
-0.0008	-0.0008	-0.003	-0.003	-29.1	31
0.0007	-0.0008	-0.0023	-0.0015	-28.9	31
0	-0.0008	-0.003	-0.0053	-28.8	31
-0.0008	-0.003	-0.003	-0.0046	-28.6	31
-0.0015	-0.0046	-0.0023	-0.0046	-28.7	31
-0.0008	-0.0053	-0.0015	-0.0053	-28.2	31
-0.0015	-0.0046	0.0015	-0.0046	-28.5	31
-0.0015	-0.0008	0.0022	-0.0046	-27.9	31
0	-0.0008	0.0007	-0.0023	-28.1	31
-0.0015	-0.0023	0.0007	-0.003	-27.9	31
-0.0008	-0.0015	0.0007	-0.003	-27.8	31
0.0007	-0.0015	-0.0008	-0.0053	-27.7	31
0.0007	-0.003	-0.0008	-0.0046	-27.5	31
0.0007	-0.0015	0	-0.0053	-27.5	31
0	-0.0015	-0.003	-0.0046	-27.1	31
0.0015	-0.0008	-0.0023	-0.0046	-27.1	31
0.0015	-0.0015	0	-0.0083	-27	31
-0.0008	0	0.0007	-0.0053	-26.9	31
-0.0008	0.0007	0.0007	-0.0046	-26.8	31
-0.0008	0.0015	0.0007	-0.003	-26.6	31
-0.0008	0.0015	0.0015	0.003	-26.4	31
0.0015	-0.0008	0.0007	0.009	-26.5	31
-0.0008	0.0007	-0.0023	0.0127	-26.2	31
-0.0023	-0.0008	-0.003	0.012	-26	31
0	-0.0015	-0.0023	0.0075	-25.9	31
0.0007	-0.0023	-0.0015	0.0045	-25.7	31
0.0015	-0.0023	-0.0015	-0.0023	-25.8	31
0.0007	-0.0046	-0.003	-0.0053	-25.2	31
0.0007	-0.0053	-0.0008	-0.0015	-25.7	31
0	-0.0053	-0.0015	-0.0023	-25.1	31
0	-0.0046	-0.0008	-0.0023	-25.2	31
0	-0.0038	-0.0015	-0.0015	-24.9	31
0.0007	-0.0023	-0.0015	-0.0015	-24.8	31
0.0007	-0.003	0	0	-24.7	31
-0.0008	-0.0053	-0.0015	-0.0008	-24.4	31
-0.0008	-0.0038	-0.003	-0.0008	-24.4	31
-0.003	-0.0008	-0.0046	-0.0015	-24.2	31
-0.003	-0.0023	-0.0015	-0.0046	-24.2	31
-0.0015	-0.0015	0	-0.0053	-23.6	31
-0.003	-0.0023	-0.0015	-0.0008	-24	31
-0.0015	-0.0046	0	-0.0053	-23.4	31
-0.0008	-0.003	0.0015	-0.0195	-23.6	31
0	-0.003	0.0007	-0.0308	-23.1	31
-0.0015	-0.0046	0	-0.03	-23.3	31
-0.0023	-0.0046	-0.0008	0.0007	-22.9	31
-0.0015	-0.0038	-0.0015	0.0615	-22.8	31
-0.0008	-0.003	-0.0023	0.0592	-22.7	31
0.0007	-0.003	-0.0015	0.009	-22.3	31
-0.0008	-0.003	-0.0015	0.0082	-22.3	31
-0.0008	-0.003	-0.0023	0.0045	-22.1	31
-0.003	-0.003	-0.0023	0.0007	-22.1	31
-0.0023	-0.0046	-0.0008	0.0007	-21.9	31
-0.0015	-0.003	-0.0015	-0.0053	-21.7	31
-0.0015	-0.0015	-0.0023	-0.0068	-21.3	31
-0.0008	-0.0023	-0.0015	-0.0203	-21.5	31
-0.0015	-0.0038	-0.0008	-0.0195	-21.1	31
-0.0008	-0.0015	-0.0008	-0.0158	-20.9	31
-0.0008	-0.0023	-0.0023	-0.0098	-20.8	31
-0.0015	-0.003	0	0.0082	-20.4	31
-0.0015	-0.003	0.0007	0.018	-20.7	31
-0.0015	-0.0053	-0.0008	0.0022	-20.1	31
-0.0008	-0.0053	0	-0.0091	-20.1	31
-0.0015	-0.006	-0.0008	0.0037	-19.6	31
-0.0023	-0.0068	-0.0008	0.0142	-19.8	31
-0.0015	-0.0053	-0.0015	0.0172	-19.4	31
-0.0008	-0.0053	-0.0046	0.009	-19.2	31
-0.0008	-0.003	-0.003	0.0052	-19.1	31
-0.0008	-0.0015	-0.0008	0.006	-18.8	31
-0.0008	0.0015	0	0.006	-18.4	31
-0.0008	0.0097	-0.0008	-0.0023	-18.7	31
-0.0008	0.006	-0.0023	-0.0165	-18.3	31
-0.003	0.0015	-0.0008	-0.0098	-18.1	31
-0.0015	0.0022	-0.0023	-0.0053	-18	31
0.0007	-0.0008	-0.003	-0.0091	-17.6	31
-0.0008	-0.0015	-0.0008	-0.0053	-17.8	31
-0.0008	-0.003	0.0007	-0.0053	-17.1	31
0.0015	-0.0046	0	-0.0053	-17.2	31
0.003	-0.0038	-0.0015	-0.0038	-17	31
0.0022	-0.0023	-0.0008	-0.0008	-16.7	31
0.0007	-0.003	-0.0008	-0.0008	-16.7	31
0.0007	-0.003	0	-0.0015	-16.4	31
0	-0.003	0.0007	-0.0015	-16.1	31
-0.0015	-0.0008	0.0007	-0.003	-15.9	31
-0.0008	0.0007	0.0015	-0.0008	-15.8	31
-0.0015	-0.0038	0	-0.0015	-15.4	31
-0.0008	-0.003	-0.0015	-0.003	-15.5	31
-0.0015	-0.003	-0.0008	-0.003	-14.9	31
-0.0008	-0.0038	-0.0015	-0.0046	-15	31
0	-0.0046	-0.0008	-0.0023	-14.6	31
-0.0008	-0.003	0.0007	-0.0008	-14.6	31
-0.0008	-0.0015	0	0.0007	-14.4	31
-0.0023	-0.0023	0.0007	0.0022	-14.2	31
-0.0015	-0.0046	-0.0015	0.0007	-14	31
0	-0.0053	0.0007	0.0007	-13.7	31
-0.0008	-0.0068	0.0007	0.0007	-13.6	31
0.0007	-0.0068	0	-0.0023	-13.2	31
0.0007	-0.0046	-0.0015	-0.0038	-13.1	31
-0.0023	-0.0046	-0.0038	-0.0068	-12.9	31
-0.0008	-0.0038	-0.003	-0.0181	-12.8	31
-0.0015	-0.003	-0.0046	-0.0315	-12.6	31
-0.0023	-0.003	-0.003	-0.027	-12.5	31
0	-0.003	0	-0.0068	-11.9	31
0.0007	-0.0046	0.0015	0.0172	-12.1	31
0.0007	-0.0038	0.0015	0.042	-11.6	31
0.0007	-0.003	0.0007	0.042	-11.5	31
0.0015	-0.0046	0	0.0262	-11.3	31
0.0007	-0.0038	0	0.015	-11.2	31
0.0015	-0.003	-0.0015	0.003	-11.1	31
0.0015	-0.0023	-0.0023	-0.003	-10.5	31
0.0022	-0.0015	-0.0015	-0.0053	-10.7	31
0.0015	-0.0008	-0.003	-0.0046	-10.2	31
0	0	-0.0023	-0.0008	-10.3	31
0.0015	0	-0.0008	0.0015	-9.9	31
0.0015	-0.0008	-0.0015	-0.0015	-9.6	31
0.0015	-0.0023	-0.0015	-0.0053	-9.5	31
0.0022	-0.003	-0.0008	-0.0113	-9.5	31
0.0015	-0.0046	-0.0015	-0.0218	-9.1	31
0.0015	-0.0046	-0.0008	-0.03	-8.7	31
0.0015	-0.0046	-0.0015	-0.0293	-8.8	31
0.0007	-0.0015	-0.0023	-0.003	-8.3	31
0.0015	-0.0015	-0.0008	0.0262	-8.6	31
0.0022	-0.0046	0.0007	0.0195	-8	31
0.0015	-0.0053	0	-0.0008	-8	31
0.003	-0.0053	0	-0.0083	-7.7	31
0.0022	-0.0046	0.0015	-0.0038	-7.6	31
0.0015	-0.0015	0.0007	0.0075	-7.4	31
0.0015	0.0015	0	0.0082	-7.1	31
-0.0015	0.0015	0.0007	-0.0105	-7.1	31
-0.0046	-0.0008	0	-0.012	-6.8	31
-0.0053	-0.0008	-0.0008	0	-6.5	31
-0.006	-0.0023	-0.0015	0.0112	-6.5	31
-0.0046	-0.0008	-0.0015	0.0195	-6.1	31
-0.0053	-0.0015	-0.0015	0.0105	-5.9	31
-0.0068	0.0015	-0.0015	0.009	-6	31
-0.0053	0.0007	-0.003	0.0052	-5.5	31
-0.0053	0.0007	-0.0038	0	-5.7	31
-0.006	0.0015	-0.0023	-0.0083	-5.2	31
-0.0038	-0.0023	-0.0053	-0.0218	-5.1	31
-0.0038	-0.0015	-0.0053	-0.042	-5.1	31
-0.0015	-0.0023	-0.0023	-0.0503	-4.8	31
0.0015	0.0015	-0.0008	-0.0135	-4.8	31
0.0015	0.003	0	0.0307	-4.3	31
0.0015	-0.0008	0	0.048	-4.5	31
-0.0015	-0.0008	-0.0008	0.0397	-3.9	31
-0.0015	-0.0008	0	0.0217	-4	31
-0.0015	-0.003	-0.0008	0.0052	-3.8	31
-0.003	-0.0068	-0.003	-0.0053	-3.6	31
0	-0.0075	-0.003	-0.0173	-3.3	31
-0.0015	-0.0105	-0.0008	-0.0256	-3.5	31
-0.0008	-0.0128	-0.0008	-0.0218	-2.9	31
0.0007	-0.0128	-0.003	-0.021	-3.1	31
0.0007	-0.0091	-0.0038	-0.0188	-2.9	31
0.0037	-0.0008	-0.0046	-0.0256	-2.6	31
0.0052	-0.003	-0.0015	-0.0263	-2.7	31
0.006	-0.0083	0.0007	-0.0083	-2.1	31
0.0067	-0.0046	-0.0008	0.003	-2.3	31
0.0075	0.0015	-0.0008	-0.0008	-1.9	31
0.0067	0.0082	0.0007	0.012	-1.8	31
0.0045	0.0082	0.0015	0.0532	-1.8	31
0.0015	0.0127	0.0052	0.075	-1.4	31
-0.0046	0.0105	0.0075	0.0562	-1.4	31
-0.0046	0.0052	0.0105	0.0217	-1.2	31
-0.0053	0.0045	0.0142	-0.0128	-1.2	31
-0.0068	-0.0038	0.0112	-0.0075	-1	31
-0.0046	-0.006	0.003	0.0075	-0.8	31
-0.003	-0.006	-0.006	0	-0.5	31
-0.003	-0.0046	-0.012	-0.0165	-0.6	31
-0.0008	-0.0008	-0.0113	-0.0405	-0.2	31
0	-0.003	-0.0105	-0.063	-0.5	31
0.0007	-0.0068	-0.0091	-0.0668	0	31
0.0007	-0.012	-0.0053	-0.03	-0.2	31
0.0007	-0.006	0.0015	0.0255	0.1	31
0.0007	-0.0015	0.009	0.0502	0.1	31
0.0015	-0.0008	0.012	0.057	0.4	31
0	-0.0008	0.0127	0.0607	0.6	31
-0.0015	-0.0068	0.003	0.045	0.4	31
-0.0015	-0.0038	-0.0038	0.0187	0.7	31
-0.0046	0.003	-0.0068	-0.012	0.8	31
-0.0046	0.0022	-0.0083	-0.0315	0.9	31
-0.003	-0.0015	-0.0046	-0.0293	0.9	31
-0.0015	0.0007	-0.0038	0.009	1.4	31
-0.0008	-0.0068	-0.0015	-0.0195	1.1	31
0	-0.0098	0.003	-0.0735	1.4	31
0.0007	-0.003	0.009	-0.066	1.4	31
0.0015	-0.0053	0.009	-0.0458	1.7	31
0.0022	-0.003	0.006	0.03	1.8	31
0.003	0.003	0.006	0.0705	1.7	31
0.0052	0.003	-0.0008	0.0727	2.1	31
0.0037	0.0007	-0.0068	0.0517	1.8	31
0.0045	0.0105	-0.0128	0.0052	2.3	31
0.009	0.009	-0.0143	-0.03	2.1	31
0.0082	-0.0008	-0.0158	-0.0555	2.3	31
0.0075	-0.0008	-0.0158	-0.0353	2.5	31
0.0045	-0.0105	-0.0091	-0.0083	2.6	31
0.0007	-0.0135	-0.0068	0.0082	2.6	31
-0.003	-0.0143	-0.0083	-0.015	2.7	31
-0.0068	-0.0105	-0.0091	-0.0443	2.8	31
-0.006	-0.0038	-0.0098	-0.0353	2.7	31
-0.0068	0.0015	-0.0105	0.0405	3.3	31
-0.006	0.0105	-0.0053	0.117	3	31
-0.0068	0.0127	0.0022	0.075	3.5	31
-0.0105	0.0067	0.009	-0.0353	3	31
-0.015	-0.006	0.012	-0.1283	3.6	31
-0.021	-0.012	0.0112	-0.105	3.2	31
-0.0181	-0.0053	0.0105	-0.0091	3.6	31
-0.0023	0.003	0.0067	0.0592	3.6	31
0.0052	0.003	-0.0008	0.078	3.6	31
0.0052	0.0067	0.0015	0.0315	3.9	31
0.006	0.0135	0.0067	-0.0218	3.8	31
0.0045	0.0082	0.0045	-0.0511	3.7	31
0.0015	-0.0083	0.0007	-0.042	4	31
0.0015	-0.0181	-0.0008	0.009	4	31
0.0015	-0.012	-0.0038	0.0442	4	31
0.0015	-0.0068	-0.0053	0.0487	4.3	31
0.0015	-0.0023	-0.0023	0.0457	4	31
0.0007	-0.0105	-0.0008	0.036	4.3	31
-0.0015	-0.0091	-0.003	0.0345	4.2	31
0.0022	-0.0083	-0.003	0.015	4.2	31
0.003	-0.021	-0.0068	-0.0075	4.5	31
0.0015	-0.0181	-0.0091	-0.0203	4.2	31
0.0007	-0.0165	-0.0083	-0.0548	4.6	31
-0.0008	-0.0128	-0.0091	-0.078	4.3	31
0.0007	-0.0068	-0.0068	-0.0608	4.6	31
-0.0008	-0.0053	-0.0046	-0.039	4.5	31
-0.0015	0.0022	0	-0.0143	4.6	31
0.0007	0.012	0.003	0.0337	4.7	31
-0.0015	0.0105	0.003	0.078	4.5	31
-0.003	0.0045	-0.0046	0.0705	4.6	31
-0.003	0.0105	-0.0083	0.0157	4.8	31
-0.0015	0.012	-0.0068	-0.0113	4.5	31
-0.0046	0.0045	-0.0083	-0.021	4.7	31
-0.0091	0.0067	-0.003	-0.0173	4.8	31
-0.0053	0.006	0.0015	-0.012	4.6	31
-0.0015	0.003	0.0052	-0.0135	4.9	31
0.003	0.012	0.012	-0.0091	4.7	31
0.0067	0.0195	0.0105	-0.0188	4.7	31
0.0082	0.0187	0.003	0.009	4.7	31
0.0067	0.015	-0.003	0.048	4.8	31
0.0052	0.0195	-0.006	0.0487	4.9	31
0.0045	0.0142	-0.0053	0.0135	4.7	31
0.0015	-0.0068	-0.0046	-0.0135	4.7	31
0.0007	-0.0083	-0.0046	-0.0113	4.7	31
-0.0015	-0.0083	0.0007	-0.0233	4.6	31
-0.0038	-0.0195	-0.0023	-0.0315	4.5	31
0.0007	-0.0105	0	-0.03	4.6	31
0.009	-0.0015	0.003	-0.0091	4.3	31
0.0165	-0.0053	0.0045	0.039	4.7	31
0.0157	-0.0091	0.0067	0.0682	4.2	31
0.0097	-0.012	0.0037	0.057	4.7	31
0.0022	-0.0038	0.003	0.0187	4.3	31
-0.0015	-0.0053	-0.0068	-0.0203	4.3	31
-0.0046	-0.0143	-0.0128	-0.0368	4.4	31
-0.0053	-0.015	-0.0105	-0.0353	4.2	31
-0.0068	-0.0158	-0.015	-0.0218	4.4	31
-0.0083	-0.021	-0.0098	-0.0256	4.1	31
-0.012	-0.0218	0.003	-0.0383	4.1	31
-0.0195	-0.0158	0.009	0.012	4	31
-0.0248	-0.012	0.0105	0.0577	4.1	31
-0.0248	-0.006	0.0045	0.0367	4	31
-0.0091	0.0037	-0.0015	-0.0158	4	31
0.003	0.006	-0.0053	-0.039	3.6	31
0.0015	0.009	-0.0083	-0.0091	4	31
0.0022	0.0105	-0.0068	-0.0091	3.6	31
0.0015	0.0112	-0.003	-0.0398	3.9	31
0.0007	0.0075	0.003	-0.0443	3.7	31
0.0022	0	0.009	0.003	3.6	31
0.0037	0.0007	0.012	0.0592	3.6	31
0.0097	0.0045	0.012	0.0547	3.4	31
0.0105	0.0067	0.0105	-0.0008	3.6	31
0.003	0.0067	0.0082	-0.0645	3.1	31
-0.0038	0.0082	0.0007	-0.093	3.3	31
-0.0068	0.0105	-0.0158	-0.0788	3.1	31
-0.0083	0.0082	-0.0203	-0.0068	3	31
-0.0053	0.0045	-0.012	0.0577	2.9	31
0	0.0067	-0.0038	0.0555	3	31
0.006	0.0105	0.0045	0.0292	3	31
0.0112	-0.0015	0.0105	0.0127	2.6	31
0.009	-0.0158	0.018	0.0232	2.7	31
0.0007	-0.0165	0.018	0.018	2.4	31
-0.0105	-0.0181	0.0112	0.0135	2.7	31
-0.0113	-0.0225	-0.0046	-0.0015	2.1	31
0.0007	-0.0158	-0.0173	-0.0308	2.5	31
0.0105	-0.0105	-0.0218	-0.0361	1.8	31
0.0105	-0.0188	-0.0263	-0.027	2.3	31
0.0015	-0.0203	-0.0173	0.006	1.8	31
-0.0015	-0.0068	-0.0068	0.0487	2	31
-0.0008	-0.0023	0.0082	0.063	1.9	31
0.0045	0.006	0.0217	0.0307	1.8	31
0.0105	0.0142	0.024	0.012	1.5	31
0.0097	0.0292	0.0202	0.0465	1.6	31
0.0097	0.039	0.0067	0.0577	1.3	31
0.012	0.0157	-0.0038	0.0277	1.3	31
0.0082	-0.0015	-0.0046	0.0082	1.1	31
0.0082	-0.0113	-0.0105	-0.0105	1	31
0.0082	-0.0105	-0.0188	-0.027	1.1	31
0.003	-0.0105	-0.0188	-0.015	0.8	31
0.0015	-0.0083	-0.015	-0.039	0.9	31
0.003	0.003	-0.0105	-0.0593	0.7	31
0.0067	0.0007	0.0015	-0.024	0.5	31
0.012	-0.0008	0.012	0.0097	0.6	31
0.0097	0.0037	0.021	0.0367	0.2	31
-0.0008	0.0015	0.0315	0.042	0.5	31
-0.0128	0.006	0.0315	-0.0046	-0.2	31
-0.0293	0.0247	0.021	-0.0691	-0.1	31
-0.048	0.0067	0.0082	-0.0721	-0.2	31
-0.0525	-0.0165	-0.0068	-0.0405	-0.2	31
-0.0383	-0.0105	-0.0218	-0.0368	-0.5	31
-0.0263	-0.0278	-0.0338	-0.048	-0.3	31
-0.0233	-0.0495	-0.0308	-0.0383	-0.7	31
-0.0218	-0.057	-0.0248	-0.0113	-0.3	31
-0.0165	-0.0691	-0.021	0.0022	-0.7	31
-0.003	-0.0615	-0.015	0.0375	-0.6	31
0.0045	-0.0203	-0.0053	0.057	-0.7	31
0.0052	0.0067	0.0007	-0.0091	-1	31
0.0127	0.0217	-0.0075	-0.045	-0.9	31
0.0217	0.054	-0.024	0.0232	-1.2	31
0.0247	0.0592	-0.0225	0.1095	-0.9	31
0.0262	0.0307	-0.0068	0.1192	-1.1	31
0.0165	0.0225	-0.0015	0.0517	-1.1	31
-0.0068	0.0045	0.0045	0.006	-1.2	31
-0.0105	-0.0195	0.0015	-0.015	-1.2	31
0.0045	-0.0173	-0.0015	-0.057	-1.3	31
0.024	-0.0225	-0.006	-0.0593	-1.5	31
0.0397	-0.0091	-0.012	-0.027	-1.4	31
0.033	0.0082	0.0052	-0.0285	-1.3	31
0.0172	-0.0023	0.0315	-0.0436	-1.2	31
0.0045	-0.0225	0.0525	-0.0278	-1.4	31
-0.0098	-0.0293	0.0652	0.027	-0.9	31
-0.0143	-0.0128	0.0577	0.0532	-1.2	31
-0.0128	0.0045	0.0375	0.0292	-0.9	31
-0.0105	0.0112	0.0217	0.0052	-1.1	31
-0.0015	0.0157	0.003	-0.0165	-0.8	31
0.0052	0.0292	-0.0143	-0.0188	-0.8	31
0.0127	0.0345	-0.0405	-0.0091	-0.7	31
0.021	0.0405	-0.0691	-0.0008	-0.6	31
0.0067	0.0412	-0.0803	0.0067	-0.5	31
-0.0173	0.0255	-0.066	0.0202	-0.5	31
-0.0075	0.0202	-0.0428	0.0195	-0.3	31
0.0172	-0.0053	-0.0368	0.0015	-0.3	31
0.0142	-0.0555	-0.021	-0.0181	-0.5	31
-0.0105	-0.0975	0.015	-0.0413	0	31
-0.0181	-0.1013	0.0555	-0.042	-0.3	31
-0.0046	-0.0548	0.075	-0.0113	0.2	31
0.0007	0.0022	0.0555	0.0172	-0.1	31
-0.0015	0.024	0.0337	0.0195	0	31
-0.0203	0.0037	0.0165	0.0007	0	31
-0.0361	-0.012	0.0052	-0.0158	-0.3	31
-0.0188	-0.0135	0.0127	-0.0158	0.1	31
0.009	-0.0105	0.0195	0.003	-0.2	31
0.0187	-0.0053	0.015	0.0202	0.2	31
0.0262	-0.0091	-0.0053	0.009	-0.4	31
0.0277	-0.0015	-0.0165	-0.0128	-0.1	31
-0.0053	0.003	-0.0105	-0.0256	-0.1	31
-0.024	0.006	-0.0158	-0.0383	-0.3	31
-0.0053	0.0082	-0.0173	-0.0165	-0.3	31
-0.006	-0.0008	-0.0075	0.0457	-0.4	31
-0.0218	-0.0015	-0.0015	0.078	-0.5	31
-0.024	-0.003	0.0075	0.0547	-0.6	31
-0.0375	0	0.0052	0.0067	-0.5	31
-0.0383	0.0007	-0.0083	0.0007	-1.1	31
-0.024	0.003	-0.0128	0.0457	-0.9	31
-0.0165	0.006	-0.0113	0.0135	-1.2	31
-0.0046	0.0105	-0.0083	-0.0638	-1	31
0.0007	0.0157	-0.0075	-0.0691	-1.5	31
0.0037	0.0127	-0.0091	-0.0503	-1.4	31
0.0045	0.0097	-0.0105	-0.0091	-1.6	31
0.0052	0.0007	-0.0113	0.069	-1.8	31
0.0045	0.0015	-0.0105	0.078	-1.8	31
0.003	0.0022	-0.0128	0.027	-2.1	31
0.003	-0.0038	-0.0158	-0.0285	-2.2	31
0.0015	-0.0008	-0.0165	-0.0615	-2.3	31
0.0007	0.0105	-0.0203	-0.045	-2.4	31
0.0007	0.0172	-0.0233	-0.0046	-2.7	31
0.0045	0.0082	-0.0233	-0.027	-2.6	31
0.012	0.0195	-0.0218	-0.0278	-3	31
0.0232	0.018	-0.015	0.0682	-2.8	31
0.0247	0.0045	-0.0008	0.0885	-3.1	31
0.0135	0.0045	0.0232	0.0555	-3	31
0.0112	-0.0008	0.0427	0.0105	-3	31
0.0157	0.0105	0.0487	-0.0256	-3.2	31
0.03	0.0247	0.0412	-0.03	-3.1	31
0.0382	0.0232	0.0307	-0.042	-3.4	31
0.0165	0.0097	0.0217	-0.0308	-3.1	31
0.003	-0.0046	0.0105	0.006	-3.3	31
-0.0053	-0.0098	0.003	0.0427	-3.3	31
-0.0008	-0.0105	-0.0091	0.048	-3.2	31
0.018	0.0037	-0.0195	0.0127	-3.5	31
0.0202	0.012	-0.0218	-0.0143	-3.6	31
0.009	0.012	-0.0256	-0.0053	-3.2	31
-0.027	0.0045	-0.0338	-0.0105	-3.6	31
-0.0465	-0.0046	-0.033	-0.0098	-3.1	31
-0.0338	-0.0068	-0.027	-0.0135	-3.5	31
-0.0315	-0.012	-0.0173	-0.012	-3.2	31
-0.0315	-0.0158	0.0037	-0.0075	-3.2	31
-0.0046	-0.0293	0.018	-0.0128	-3.2	31
0.0142	-0.0315	0.0337	-0.0075	-2.9	31
0.0105	-0.0293	0.048	-0.0075	-3	31
0.0165	-0.0353	0.0465	-0.003	-2.8	31
0.009	-0.0181	0.0465	-0.0023	-2.8	31
0.0052	0.0007	0.036	-0.003	-2.7	31
0.0082	0.0082	0.0217	-0.006	-2.5	31
-0.0046	0.0037	0.0217	-0.006	-2.3	31
-0.006	-0.0091	0.0105	-0.0053	-2.5	31
-0.0068	-0.0083	-0.0083	-0.0038	-2.2	31
0.0007	-0.003	-0.0158	0.0045	-2.2	31
0.0067	0.003	-0.0203	0.0082	-1.9	31
0.0052	0.003	-0.0203	0.0067	-1.9	31
0.0067	0	-0.0181	-0.0038	-1.9	31
0.0045	-0.0038	-0.0165	-0.0128	-1.5	31
0.006	-0.0113	-0.0158	-0.0181	-1.8	31
0.0052	-0.0098	-0.015	-0.0113	-1.3	31
0.0045	-0.003	-0.0143	0.0015	-1.5	31
0.0022	-0.0008	-0.0128	0.0037	-1.3	31
0.0022	0.0037	-0.0128	0.0052	-1.4	31
-0.0008	0.0052	-0.012	0.0015	-1.3	31
-0.0068	-0.0008	-0.012	-0.003	-1	31
-0.0068	-0.0023	-0.012	0.0007	-0.9	31
-0.0098	-0.0015	-0.0098	0.0082	-0.8	31
-0.0075	0.0007	-0.0105	0.0082	-0.7	31
0	0.0022	-0.0075	0.003	-0.5	31
0.0015	0	-0.0046	-0.0128	-0.8	31
0.0037	0.0015	-0.003	-0.039	-0.5	31
0.0045	0	0	-0.048	-0.8	31
0.0007	-0.0015	-0.0008	-0.0278	-0.3	31
0.0007	-0.003	0	0.024	-0.6	31
-0.0023	-0.003	0.0022	0.06	-0.2	31
-0.0038	-0.0015	0.0052	0.0435	-0.4	31
-0.0015	-0.0015	0.0045	0.0367	-0.2	31
-0.0038	-0.0015	0.003	0.045	-0.2	31
-0.0053	-0.0015	0.0022	0.039	-0.4	31
-0.0068	0.0007	0.0015	0.003	0	31
-0.0046	-0.003	0.0007	-0.0346	-0.2	31
-0.0015	-0.006	0.0015	-0.0256	-0.4	31
0.003	-0.003	-0.0008	-0.0181	-0.4	31
0.0082	-0.0008	-0.0015	-0.0068	-0.3	31
0.0052	0.0007	0.0022	0.0105	-0.4	31
0.003	-0.0008	0.003	0.018	-0.1	31
0.0037	-0.0046	-0.0015	0.033	-0.5	31
0.0015	-0.0083	-0.0053	-0.0075	-0.3	31
0	-0.0083	-0.0068	-0.0555	-0.2	31
-0.0015	-0.0091	-0.0053	-0.0128	-0.5	31
-0.0015	-0.0128	-0.003	0.0705	-0.2	31
0.0007	-0.0128	-0.0015	0.051	-0.5	31
0.0022	-0.0075	-0.0083	-0.0143	-0.1	31
0.003	-0.0023	-0.0195	-0.0128	-0.5	31
0.003	0.0015	-0.0181	-0.0346	-0.1	31
0.0007	-0.0015	-0.0143	-0.0413	-0.4	31
-0.0008	-0.003	-0.0128	-0.0233	-0.3	31
0	-0.0008	-0.0038	-0.0091	-0.2	31
-0.0023	0.0007	0.0075	0.0105	-0.2	31
-0.0015	0.0052	0.0187	-0.0008	-0.2	31
0.0022	0.0037	0.0232	-0.015	0	31
0.0015	-0.0008	0.024	-0.0083	-0.4	31
0.0007	-0.0068	0.024	0.003	-0.2	31
-0.0023	-0.012	0.0165	0.012	0	31
-0.0038	-0.012	0.003	0.0157	0	31
-0.003	-0.0083	-0.0015	0.0007	0.2	31
-0.003	-0.0038	0.0015	-0.0053	0	31
-0.0015	0.0015	-0.0023	-0.003	0.2	31
-0.0046	-0.0008	-0.0046	-0.0046	0	31
-0.003	-0.0075	-0.0091	-0.0008	0.1	31
0	-0.0015	-0.0105	-0.003	0.2	31
0.0015	0.0127	-0.0083	-0.003	0	31
0.0022	0.0217	-0.0083	-0.0046	0.2	31
0.0007	0.012	-0.0068	-0.0023	0.2	31
0.0007	0	-0.0105	0.0015	0.2	31
0.0015	-0.0015	-0.0181	-0.0008	0.4	31
0.0045	-0.003	-0.0195	-0.0023	0.4	31
0.003	-0.0053	-0.012	-0.0038	0.1	31
0.0015	-0.0098	-0.0083	-0.0008	0.5	31
0.009	-0.006	0	0.0022	0.2	31
0.0045	-0.0083	0.012	-0.0015	0.7	31
-0.0158	-0.0263	0.0195	-0.0158	0.2	31
-0.0203	-0.0278	0.0202	-0.0278	0.6	31
-0.0046	-0.0173	0.0157	-0.0203	0.4	31
0.0015	-0.0046	0.0097	0.0187	0.6	31
0.0015	0.0105	0.003	0.0547	0.7	31
-0.0015	0.027	-0.0053	0.0352	0.6	31
-0.033	0.0277	-0.0075	0.0097	0.8	31
-0.048	0.0127	-0.0023	0.0007	0.6	31
-0.0158	0.0067	0.003	-0.0053	0.8	31
0.0007	-0.003	0.0045	-0.0008	0.7	31
0.0007	-0.0068	0.0075	-0.0015	0.8	31
0.003	0.0007	0.0067	0.0015	0.6	31
-0.006	-0.003	0.0022	-0.003	0.9	31
-0.0053	-0.003	0.0007	-0.0083	0.7	31
-0.0008	-0.0038	0.0007	-0.0083	0.9	31
0.0045	-0.003	-0.0015	-0.0046	0.7	31
0.0037	-0.0008	-0.0053	0	0.8	31
0.0015	0.0015	-0.0068	-0.003	0.9	31
0.0052	0.0045	-0.0053	-0.0015	0.9	31
0.0052	0.0067	-0.0046	-0.003	1.1	31
0.006	0.006	-0.0008	-0.0008	0.7	31
0.0015	0.0045	-0.0015	-0.0046	1.2	31
0.003	0.0082	-0.0038	-0.0083	1	31
0.0037	0.0105	-0.0046	-0.003	1.1	31
0.0082	0.009	-0.0075	-0.0038	1	31
0.018	-0.003	-0.0083	-0.0008	1	31
0.0202	-0.0128	-0.0075	-0.0023	0.9	31
0.0127	-0.006	-0.0068	-0.0053	1.1	31
0.0067	-0.012	-0.003	-0.0053	1.1	31
0.0022	-0.0278	0.0015	-0.006	1.2	31
-0.006	-0.0218	0.0015	-0.0068	1.1	31
-0.0038	-0.0195	0.0007	-0.0091	1	31
-0.003	-0.0165	0.003	-0.0068	1.3	31
-0.0008	-0.006	0.0015	-0.0046	0.9	31
0.0007	-0.0068	-0.0008	-0.003	1.4	31
-0.0008	-0.0015	0	-0.0008	1.2	31
0.0007	0.0022	0	0.0007	1.3	31
0.0007	0.003	0.0007	0.0015	1.1	31
0.0007	0.0045	-0.0015	0.0015	1.2	31
-0.0008	-0.0046	0	0.0022	1.5	31
-0.0023	-0.0113	0	0.003	1.3	31
-0.0015	-0.0068	-0.0023	0.0037	1.4	31
-0.0008	-0.0015	-0.003	0.0015	1.4	31
-0.0015	-0.0008	-0.0023	0.0015	1.5	31
-0.0008	0.003	-0.0008	0.003	1.4	31
-0.0008	0.0075	-0.0008	0.0015	1.3	31
0.0015	0.0105	-0.0015	-0.0053	1.4	31
0.006	0.012	-0.0015	-0.0128	1.6	31
0.003	0.0082	-0.0008	-0.0143	1.3	31
0.0015	0.0052	-0.0008	-0.0135	1.6	31
0.0015	0.0037	-0.003	-0.003	1.3	31
0.0007	0	-0.0046	0.0217	1.7	31
0.0015	-0.0008	-0.003	0.0322	1.7	31
-0.0015	-0.0015	-0.0008	0.018	1.5	31
-0.0015	-0.0046	0.003	0.0127	1.8	31
-0.0008	-0.0075	0.0045	0.0052	1.6	31
-0.0008	-0.0098	0.0052	-0.003	1.4	31
-0.003	-0.0083	0.0052	0	1.7	31
-0.0046	-0.0105	0.003	-0.0015	1.6	31
-0.0015	-0.0143	0.0045	-0.0053	1.5	31
-0.0038	-0.0128	0.0052	-0.0075	1.8	31
-0.0053	-0.0158	0.0037	-0.0083	1.5	31
-0.0046	-0.015	-0.0008	-0.0083	1.8	31
-0.0023	-0.0075	-0.0038	0.0007	1.5	31
-0.003	-0.0053	-0.0038	0.0112	1.8	31
-0.003	-0.0038	-0.0053	0.012	1.7	31
-0.0038	-0.0023	-0.0083	0.0007	1.8	31
-0.0046	0	-0.0075	-0.0046	1.8	31
-0.0015	-0.0008	-0.0091	-0.0068	1.7	31
-0.0008	-0.0008	-0.0091	-0.0105	1.7	31
0.003	0.0022	-0.0068	-0.0128	1.8	31
0.0067	0.0052	-0.0046	-0.0128	1.8	31
0.0067	0.0045	-0.003	-0.0053	1.8	31
0.0075	-0.003	-0.0015	-0.0015	1.8	31
0.0105	-0.0008	0.0015	-0.0015	1.7	31
