File Name: 9Apie.log
Channel 1: 'Recto femoral', 21791 values, engineering units: mV, no filters.
Channel 2: 'Biceps Femoral', 21791 values, engineering units: mV, no filters.
Channel 3: 'Vasto Medial', 21791 values, engineering units: mV, no filters.
Channel 4: 'Semitendinoso', 21791 values, engineering units: mV, no filters.
Channel 5: 'Flexo', 21791 values, engineering units: deg, no filters.
Digitals combined (event=16, d=8, c=4, b=2, a=1): 21791 values, .

0.0022	0.0067	-0.0053	0.006	5.6	31
-0.0188	0.081	0.0045	0.0232	6.1	31
-0.024	0.1117	0.0045	0.021	5.8	31
-0.0158	0.075	0.0045	0.0105	5.8	31
0.0127	0.0157	0.0015	0.0075	6	31
0.0255	0.0052	-0.0083	0.003	5.8	31
0.0262	-0.0053	-0.0053	0.0022	5.7	31
0.0232	-0.0128	0.0172	0.0007	6	31
0.0195	-0.003	0.0277	-0.0083	5.7	31
0.0067	-0.0135	0.024	-0.0091	5.8	31
-0.0023	-0.006	0.0165	-0.0053	5.9	31
-0.0091	-0.0075	0.0142	0.003	5.8	31
-0.048	-0.0083	0.0067	0.0112	5.9	31
-0.066	0.0015	-0.003	0.0142	5.7	31
-0.0278	0.003	-0.0135	0.003	5.8	31
-0.0046	0.0015	-0.0165	-0.0038	6	31
0.0052	-0.0068	-0.0091	-0.0015	5.8	31
0.0217	-0.015	-0.003	-0.003	5.8	31
0.024	-0.0315	0.0112	-0.0068	6.1	31
0.0165	-0.0248	0.0195	-0.0053	5.6	31
0.0067	-0.0233	0.0172	0	5.9	31
0.0052	-0.0278	0.0157	-0.0008	5.9	31
0.0007	-0.0128	0.0022	-0.0008	5.7	31
-0.012	-0.003	-0.0128	-0.0015	5.8	31
-0.042	0.0495	-0.0143	0.0007	5.8	31
-0.0511	0.0705	-0.003	0.0007	5.8	31
0.0007	0.0337	0.0022	-0.0008	5.8	31
0.0172	0.0367	-0.0091	-0.0068	5.7	31
0.0127	0.0262	-0.0218	-0.0083	5.9	31
0.018	-0.0053	0.0022	-0.0023	5.9	31
0.0082	-0.0375	0.045	-0.0023	5.9	31
0.009	-0.0353	0.0517	-0.0053	5.8	31
-0.0015	-0.0278	0.045	-0.0105	5.8	31
-0.0105	-0.0278	0.0315	-0.0098	5.7	31
-0.0105	-0.003	0.0105	-0.006	5.9	31
-0.0053	-0.012	0.0045	-0.0046	5.6	31
0.003	-0.0105	0.0067	0.0007	6	31
0.0045	-0.0046	0.0075	0.003	5.6	31
0.003	-0.0068	-0.0046	0.0022	5.8	31
-0.003	-0.003	-0.0128	0.0015	5.7	31
-0.0053	-0.0083	-0.0091	0.003	5.8	31
0.0007	-0.003	-0.0075	0.0015	5.8	31
0.0022	0.0022	-0.0091	0.0022	5.7	31
-0.0075	0.003	-0.015	0.0052	5.9	31
0.0045	-0.006	-0.0285	0.0015	5.8	31
0.0067	0.0007	-0.0338	-0.0053	5.8	31
-0.0038	0.009	-0.0285	-0.0128	5.8	31
0.0067	0.0127	-0.0248	-0.0195	5.8	31
0.0075	0.024	-0.0195	-0.012	5.4	31
0.0075	0.0097	-0.0165	0.003	5.9	31
0.0097	0.0007	-0.0128	0.0052	5.6	31
0.009	0.003	-0.0128	0.0067	5.7	31
-0.0008	0	-0.0173	0.0135	5.7	31
-0.0143	0.0007	-0.0218	0.0067	5.7	31
-0.0023	-0.0105	-0.0218	-0.0046	5.8	31
0.0045	-0.0195	-0.0165	-0.0128	5.7	31
-0.0128	-0.0046	-0.0158	-0.0158	5.9	31
-0.012	0.012	-0.015	-0.0105	5.6	31
0.0105	0.0037	-0.0165	-0.0023	5.9	31
0.0082	-0.0105	-0.0143	0.0127	5.7	31
-0.003	-0.012	0	0.0202	5.8	31
-0.003	-0.0083	0.0097	0.0052	5.8	31
-0.006	-0.0038	0.012	-0.0105	5.7	31
0	-0.003	0.0157	-0.0165	5.8	31
0	-0.0158	0.0195	-0.03	5.6	31
-0.0008	-0.0068	0.0195	-0.03	5.8	31
0.003	0.003	0.0097	-0.012	5.5	31
0.0007	0.0015	-0.0015	0.0255	5.9	31
0.0127	0.0075	-0.0083	0.075	5.5	31
0.0187	0.0022	-0.0128	0.0705	5.9	31
0.0165	0.0015	-0.0091	0.0105	5.6	31
0.0165	0	0	-0.0158	5.7	31
0.012	-0.0046	0.0142	-0.0113	5.7	31
0.009	0.0037	0.021	-0.0046	5.6	31
0.006	0.0232	0.0187	0.0067	5.9	31
-0.0225	0.024	0.0075	0.0082	5.7	31
-0.0653	0.0052	-0.0083	0.0285	5.7	31
-0.0458	-0.0053	-0.0008	0.0457	5.7	31
-0.0015	-0.0165	0.0202	0.0225	5.6	31
-0.0053	-0.0256	0.0217	-0.0173	5.6	31
0.0015	-0.0181	0.0127	-0.024	5.7	31
0.0135	-0.0008	0.0172	-0.0195	5.7	31
0.009	0.003	0.018	-0.033	5.5	31
0.0082	-0.0015	0.0142	-0.0555	5.7	31
0.003	0	0.0105	-0.0503	5.5	31
-0.0091	-0.0165	0.003	-0.024	5.8	31
-0.0218	-0.0428	-0.0038	-0.0008	5.4	31
-0.0105	-0.06	-0.0128	0.0555	5.8	31
-0.0015	-0.048	-0.0158	0.0802	5.6	31
0.015	0.0045	-0.0203	0.0585	5.7	31
0.0405	0.0562	-0.0225	0.0217	5.5	31
0.0427	0.081	-0.0165	-0.0015	5.4	31
0.0337	0.0592	0.0007	-0.0053	5.7	31
0.009	0.0015	0.0217	-0.0143	5.6	31
-0.0053	-0.0091	0.024	-0.0091	5.5	31
-0.0038	-0.0046	0.0067	-0.0105	5.6	31
-0.027	-0.0083	-0.0053	-0.0143	5.4	31
-0.0608	0.0037	-0.0135	-0.0165	5.5	31
-0.0346	0.006	-0.0225	-0.0195	5.6	31
0.0037	0.009	-0.0181	-0.0188	5.3	31
0.0007	-0.0083	-0.0128	-0.015	5.7	31
0.006	-0.0315	-0.0143	-0.0128	5.4	31
0.0015	-0.0315	-0.0181	-0.0135	5.5	31
0	-0.0173	-0.0181	-0.0083	5.5	31
0.0045	-0.0046	-0.0091	-0.0113	5.3	31
-0.0015	-0.0008	0.0082	-0.012	5.7	31
-0.003	-0.0015	0.0247	-0.0128	5.4	31
-0.0181	-0.0023	0.03	-0.0083	5.5	31
-0.0225	0.003	0.0337	-0.003	5.4	31
-0.003	0.009	0.0367	-0.0008	5.5	31
0.0075	0.024	0.0255	0.0052	5.3	31
0.0157	0.0502	0.009	0.0045	5.7	31
0.0217	0.027	-0.0105	-0.0015	5.3	31
0.0052	-0.054	-0.039	-0.015	5.6	31
-0.012	-0.0518	-0.0495	-0.0293	5.3	31
-0.012	-0.0135	-0.0511	-0.0323	5.5	31
-0.0046	-0.0248	-0.054	-0.0315	5.4	31
-0.0023	-0.0218	-0.0436	-0.0158	5.3	31
0.009	-0.0263	-0.0218	0.0345	5.7	31
0.015	-0.0233	0.0105	0.0855	5.3	31
0.0007	0.0022	0.0442	0.057	5.4	31
-0.0075	0.0157	0.0675	-0.0091	5.5	31
-0.006	0.018	0.0727	-0.0143	5.3	31
0.003	0.027	0.0652	-0.0098	5.3	31
0.0045	0.024	0.0427	-0.0113	5.4	31
-0.003	0.0015	0.0157	-0.0105	5.3	31
-0.003	-0.0046	-0.006	-0.0068	5.4	31
0.0007	-0.0053	-0.0248	0.0045	5.4	31
0.0037	-0.0053	-0.0233	0.0105	5.3	31
0.003	-0.0015	-0.0165	0.0345	5.5	31
0.0037	-0.0023	-0.0195	0.0405	5.3	31
0.003	-0.0046	-0.0195	0.0232	5.5	31
0.0015	-0.0038	-0.0195	0.0015	5.1	31
0.003	-0.0038	-0.0165	-0.0248	5.5	31
0.0022	-0.003	-0.015	-0.0405	5.3	31
0.003	-0.0008	-0.015	-0.0473	5.3	31
0.003	-0.0015	-0.0143	-0.0518	5.3	31
0.0045	-0.0008	-0.0128	-0.0428	5.3	31
0.0037	-0.0038	-0.0113	-0.003	5.5	31
0.0052	-0.0015	-0.0083	0.0367	5.3	31
0.0037	-0.0008	-0.003	0.0427	5.3	31
-0.0015	-0.0023	-0.003	0.0607	5.3	31
-0.006	0	-0.0038	0.0967	5.4	31
-0.0008	0.003	-0.0083	0.0832	5	31
0.0082	0.003	-0.021	0.0442	5.3	31
0.0105	0.0037	-0.0263	-0.0053	5.3	31
0.012	0.0052	-0.0165	-0.0346	5.3	31
0.0112	-0.0008	-0.0083	-0.0143	5.3	31
0.0105	-0.0038	0.0022	-0.0068	5.3	31
0.0105	-0.0023	0.0127	0.0007	5.3	31
-0.0038	-0.0023	0.0127	-0.0075	5	31
-0.0443	-0.012	0.0157	-0.0233	5.6	31
-0.0615	-0.0165	0.0187	-0.0195	5.2	31
-0.0158	-0.012	0.021	-0.0143	5.3	31
0.012	-0.021	0.0232	0.0082	5	31
0.0037	-0.0315	0.0157	0.0105	5.3	31
0.0165	-0.0256	0.0045	-0.0083	5.3	31
0.0157	-0.0203	-0.0046	-0.0181	5.3	31
-0.0083	-0.0083	-0.006	-0.0181	5.2	31
-0.0346	0.024	-0.0091	-0.0143	5.2	31
-0.0346	0.0555	-0.0195	-0.012	5.2	31
-0.0105	0.0322	-0.0165	-0.0105	5.1	31
0.003	-0.0113	0.0015	-0.0008	5.3	31
0.0202	-0.0023	0.0075	0.0037	5	31
0.0322	0.0127	0.003	-0.0008	5.3	31
0.0277	0.018	0.0105	0.003	5	31
0.0195	-0.0008	0.0127	0.003	5.3	31
0.0172	-0.012	0.0067	-0.0015	5.1	31
0.021	0.0015	-0.0053	-0.0008	5	31
0.0165	0.0067	-0.027	0.0105	5.1	31
-0.0128	0.0232	-0.0375	0.0052	4.9	31
-0.0473	0.0352	-0.033	-0.0008	5.1	31
-0.0256	0.0292	-0.0346	-0.0015	5	31
-0.0008	-0.0091	-0.0218	-0.0023	5.3	31
-0.012	-0.0443	0.0015	0.0007	5	31
0	-0.0413	0.0232	-0.003	5.2	31
0.0007	-0.0128	0.0427	-0.0038	4.9	31
-0.003	0.0007	0.054	-0.0046	5.1	31
-0.0008	0.0037	0.0547	-0.0015	5	31
-0.0128	0.0067	0.0405	-0.0015	5.1	31
-0.0008	-0.0068	0.027	-0.0046	5.2	31
0.0082	-0.0135	0.0075	-0.0083	5	31
0.0075	-0.0218	-0.0143	-0.0128	5.1	31
0.0097	-0.0165	-0.0218	-0.0113	4.7	31
0.0075	-0.0068	-0.0233	-0.006	5.2	31
0.0037	-0.0105	-0.024	0.0045	4.7	31
0.0015	-0.012	-0.0218	0.0105	4.9	31
-0.0008	-0.0091	-0.0098	0.012	4.9	31
-0.0023	-0.0083	-0.0015	0.009	5	31
0.0067	-0.0181	0.0067	-0.0083	4.9	31
0.0045	-0.0278	0.009	-0.0218	5.1	31
-0.003	-0.042	0.0037	-0.0188	4.8	31
-0.0046	-0.0353	-0.0008	-0.0015	5.1	31
-0.0008	-0.003	-0.0046	0.0165	5	31
0.0045	0.0487	0.0015	0.0225	4.8	31
-0.0023	0.0787	0.0082	0.0135	5	31
-0.006	0.0435	0.012	-0.003	4.7	31
-0.0038	0.009	0.0157	-0.0015	5.1	31
-0.0015	0.003	0.0165	0.0082	4.8	31
-0.0008	-0.0053	0.012	0.012	4.8	31
0	-0.0023	0.0067	0.0135	4.9	31
-0.0015	-0.0053	-0.0046	0.0045	4.8	31
-0.0015	-0.0053	-0.0128	-0.0098	4.9	31
-0.0015	-0.0083	-0.012	-0.0293	4.8	31
0	-0.0091	-0.0135	-0.0308	4.8	31
0.0015	-0.006	-0.0143	-0.0038	4.9	31
0.0022	-0.006	-0.0158	0.0292	4.9	31
0.0045	-0.0015	-0.0165	0.0345	4.9	31
0.0015	-0.003	-0.0158	0.0217	5	31
0.0015	0.0007	-0.0143	0.0082	4.5	31
0.0015	-0.0008	-0.0091	-0.024	4.9	31
0.0007	-0.0068	-0.0068	-0.0511	4.5	31
-0.003	-0.0105	-0.0038	-0.057	4.9	31
-0.0068	-0.0068	0.0007	-0.027	4.7	31
-0.0046	0.003	0	0.0405	4.8	31
-0.0038	0.0037	-0.0023	0.0862	4.9	31
-0.003	0.003	-0.0023	0.0855	4.7	31
0.0015	-0.0023	0.0015	0.0405	4.9	31
0.009	-0.006	0.0045	-0.0075	4.7	31
0.0165	-0.0075	0.0007	-0.0038	4.9	31
0.0202	-0.0091	-0.0068	-0.0053	4.7	31
0.0172	-0.0083	-0.0105	-0.0098	4.7	31
0.0127	-0.003	-0.0105	-0.0091	4.5	31
0.0067	-0.0015	-0.0091	-0.0083	4.9	31
-0.0083	-0.0083	-0.0068	-0.003	4.5	31
-0.0368	-0.006	-0.0046	-0.0233	4.7	31
-0.0555	-0.0068	-0.0008	-0.0495	4.7	31
-0.0293	-0.0181	-0.0008	-0.075	4.5	31
-0.0068	-0.0165	-0.0015	-0.048	4.7	31
0.0142	0.0007	0	0.0172	4.4	31
0.027	0.0045	0.0007	0.0382	4.9	31
0.0255	0.0037	0.0007	0.0435	4.3	31
0.0345	0.0255	-0.0015	0.0382	4.9	31
-0.0068	0.0165	0	0.0075	4.5	31
-0.0563	-0.0285	0.006	-0.003	4.5	31
-0.042	-0.0218	0.012	-0.0008	4.6	31
-0.0143	0.003	0.012	-0.003	4.6	31
-0.0113	0.0015	0.0052	0.0007	4.6	31
-0.0008	0.0045	-0.0038	-0.0008	4.5	31
0.0007	0.0007	-0.0083	0.0007	4.8	31
-0.0053	0.0045	-0.006	0.0007	4.3	31
-0.0023	0.0097	-0.0023	-0.0023	4.8	31
-0.0015	0.0082	-0.0008	-0.006	4.4	31
0.0037	0.0052	0.0045	-0.006	4.7	31
0	0.006	-0.0008	-0.0075	4.5	31
0.003	0.0067	-0.0083	-0.0098	4.6	31
0.0052	-0.0046	-0.015	-0.0135	4.6	31
0.0052	-0.0308	-0.0218	-0.0203	4.3	31
0.0007	-0.0488	-0.0218	-0.0218	4.9	31
-0.003	-0.0278	-0.0091	-0.0143	4.2	31
0.0067	-0.0008	-0.0083	0.0037	4.6	31
0.0165	0.0015	-0.0128	0.0195	4.5	31
0.0217	-0.0023	0.0045	0.0195	4.5	31
0.0135	-0.0233	0.0135	0.0045	4.5	31
0.0157	-0.0488	0.0157	-0.0091	4.5	31
0.024	-0.0181	0.0285	-0.0188	4.4	31
0.0127	0.027	0.0532	-0.0225	4.4	31
-0.0128	0.0607	0.06	-0.0218	4.4	31
-0.033	0.0742	0.042	-0.0181	4.4	31
-0.0158	0.027	0.0247	-0.0023	4.6	31
0.0052	-0.0015	-0.003	0.0217	4.2	31
0.0037	-0.0165	-0.012	0.0262	4.5	31
-0.0083	-0.03	-0.0053	0.009	4.2	31
-0.0083	-0.0143	-0.012	0.0105	4.4	31
-0.003	-0.0173	-0.0105	0.0112	4.2	31
0.0015	-0.012	-0.0181	0.0075	4.5	31
0.0142	-0.0053	-0.0218	0.0052	4.5	31
0.018	-0.0068	-0.0165	0.0022	4.4	31
0.0195	-0.0023	-0.015	0.0022	4.3	31
0.0195	0.0052	-0.0135	-0.0015	4.3	31
0.0165	0.0127	-0.012	-0.0046	4.4	31
0.006	0.0127	-0.0008	-0.0046	4.3	31
-0.0143	0.0165	0.0075	-0.003	4.2	31
-0.0413	0.0157	0.0097	-0.003	4.1	31
-0.0578	0.015	0.0082	0.003	4.3	31
-0.027	-0.0008	-0.0023	0.003	4.1	31
-0.0098	-0.0218	-0.0023	-0.0046	4.3	31
-0.0181	-0.0203	0.0022	-0.0046	4.3	31
-0.0046	-0.0165	0.0007	-0.012	4	31
-0.0015	-0.0068	-0.0015	-0.0225	4.4	31
0.003	-0.0023	-0.0098	-0.0203	4.1	31
0.0052	-0.0008	-0.0105	-0.0038	4.4	31
0.0045	-0.0008	-0.0083	0.0315	4.2	31
0.0045	-0.0038	-0.0068	0.0525	4.2	31
0.003	0.0007	-0.0023	0.0225	4.2	31
0.006	0.003	-0.0023	-0.0128	4.1	31
0.003	0.0052	-0.003	-0.0188	4	31
0.0007	0.0037	-0.0053	-0.0188	4.4	31
-0.003	-0.0008	-0.006	-0.015	3.9	31
-0.003	-0.0068	-0.0038	-0.0128	4.3	31
-0.0008	-0.0083	-0.003	-0.0143	4.1	31
-0.0008	-0.0091	-0.003	-0.0128	4.2	31
-0.0008	-0.015	-0.0015	-0.0008	4.2	31
0	-0.0181	-0.0015	0.012	3.9	31
0.0007	-0.0128	-0.0008	0.0135	4.4	31
0.0007	-0.0091	0	0.0067	4.1	31
0.0067	-0.0068	0.0007	0.0007	4.2	31
0.0067	-0.003	0.0015	-0.012	4.1	31
0.0052	-0.003	-0.0008	-0.03	4.1	31
0.0045	-0.0015	-0.0015	-0.0315	4.1	31
0.003	0.0007	-0.0015	-0.0278	4.1	31
0.003	0.003	-0.0008	-0.0188	4.1	31
0.0007	0	-0.0015	0.0105	4.1	31
-0.0008	0.0015	-0.0038	0.057	4.1	31
0	0.006	-0.0046	0.0937	4	31
0.0007	0.0052	-0.0128	0.0697	4.2	31
0.003	0.0015	-0.0158	0.0127	3.9	31
0.003	-0.0008	-0.0098	-0.0091	4.2	31
0.0045	0.0015	-0.0046	-0.0053	3.9	31
0.0052	0.0015	0.0045	0.0045	4.1	31
0.003	0.0007	0.009	0.0007	4	31
0.0037	-0.0023	0.0142	-0.0015	4	31
0.006	-0.015	0.0165	-0.0068	4.3	31
0.003	-0.024	0.009	-0.0263	4	31
-0.003	-0.0105	-0.0015	-0.0135	3.9	31
-0.0008	0.003	-0.021	-0.0053	4.1	31
0.0097	0.033	-0.0315	-0.0008	4	31
0.0165	0.0502	-0.0278	-0.0038	4	31
0.0045	0.0232	-0.0128	-0.027	4.2	31
-0.0038	0.003	0.0045	-0.003	3.8	31
-0.003	-0.0181	0.0195	0.0502	4.2	31
-0.0046	-0.0308	0.0307	0.039	4	31
-0.0015	-0.0308	0.0322	-0.0015	4	31
-0.0053	-0.0165	0.033	-0.0158	4	31
-0.0053	0.0075	0.0277	-0.0315	3.9	31
-0.003	0.0015	0.0165	-0.0256	4.2	31
-0.0015	-0.0091	-0.0023	-0.021	3.9	31
-0.0008	-0.015	-0.0113	-0.0113	4.1	31
-0.0008	-0.0091	-0.0091	0.009	3.7	31
0.0127	-0.003	-0.0091	0.009	4.1	31
0.0142	0.003	-0.0083	0	3.9	31
0.0007	0.0097	-0.0105	-0.0046	3.9	31
-0.0083	0.012	-0.0083	-0.003	3.9	31
-0.0068	0.012	-0.0075	-0.0038	3.9	31
-0.003	0.006	-0.0091	0	4	31
-0.0053	0.0037	-0.0083	0.0037	4	31
-0.012	-0.0015	-0.0083	0.0067	4	31
-0.0195	-0.0068	-0.0038	-0.0015	3.9	31
0.0037	-0.0181	-0.0053	-0.0128	4	31
0.0255	-0.0083	-0.0091	-0.0181	3.7	31
0.0217	0.0142	-0.015	-0.0173	4.1	31
0.0232	0.0202	-0.0225	0.0015	3.7	31
0.0127	0.0202	-0.021	0.0142	4.1	31
0.003	0.009	-0.0098	0.0075	3.7	31
-0.012	0.0105	0.0067	-0.0015	4	31
-0.0555	0.0007	0.0157	-0.003	3.9	31
-0.063	-0.0308	0.0217	-0.0008	3.9	31
-0.0165	-0.0465	0.024	0.0022	4	31
-0.0046	-0.0256	0.0097	-0.0008	3.9	31
-0.0083	-0.003	-0.0068	0	3.9	31
0.0007	-0.003	-0.0158	-0.0015	4	31
-0.0015	0.0007	-0.0105	-0.0143	4.1	31
0.0082	0.0015	0.0037	-0.0165	3.8	31
0.0142	0.0045	0.0082	-0.0015	3.9	31
0.024	-0.0015	0.0195	0.024	3.8	31
0.0172	-0.012	0.0292	0.0315	3.9	31
0.0052	-0.0053	0.0247	-0.0023	3.9	31
0.0037	-0.012	0.006	-0.0293	3.8	31
-0.006	-0.0143	-0.0233	-0.0256	4	31
-0.0015	-0.0105	-0.0256	-0.0091	3.7	31
0.0015	-0.006	-0.0181	0.015	4	31
0.0067	0.0067	-0.0143	0.0217	3.6	31
0.0075	0.0082	-0.0068	0.033	3.8	31
0.0045	0.0082	-0.0046	0.018	3.9	31
0.0052	-0.0015	0.0067	-0.0008	3.8	31
-0.0008	-0.0008	0.018	0.009	3.9	31
-0.0015	0.0007	0.0217	-0.003	3.9	31
-0.0008	-0.0068	0.0262	-0.0053	3.6	31
0.0052	0.0007	0.021	-0.012	3.9	31
0.012	-0.0023	0.0075	-0.0165	3.6	31
0.0142	-0.0015	-0.0023	-0.0135	4	31
0.012	-0.0091	0	-0.0083	3.6	31
0.0067	-0.0143	-0.003	0.0052	3.9	31
0.0052	-0.0128	-0.0105	0.0165	3.7	31
0.0052	-0.012	-0.0105	0.0255	3.6	31
-0.0105	-0.0053	-0.0068	0.0277	4	31
-0.0488	0	-0.0015	0.0315	3.8	31
-0.0503	0.0105	-0.0053	0.0157	3.9	31
-0.0128	0.0067	-0.0083	-0.0323	3.8	31
-0.0038	0.0045	-0.0068	-0.0871	3.6	31
-0.0053	0	-0.0091	-0.084	3.6	31
-0.003	-0.0105	-0.015	-0.0443	3.8	31
-0.003	-0.0128	-0.0105	0.0127	3.6	31
0.003	-0.0113	-0.0083	0.0547	4	31
0.0007	-0.0053	-0.0091	0.0307	3.6	31
0.0007	0.0007	-0.0083	0.0345	3.9	31
0.0015	0.0097	-0.0091	0.0607	3.7	31
0.0045	0.018	-0.006	0.0502	3.6	31
0.0022	0.015	-0.0046	0.0165	3.8	31
0.0015	0.009	-0.0015	-0.003	3.6	31
0.0045	0.0052	0.0007	-0.0165	3.9	31
-0.0023	0.0022	-0.0008	-0.024	3.4	31
-0.003	-0.0008	-0.0023	-0.0083	3.9	31
-0.003	-0.0038	-0.0038	0.012	3.6	31
-0.0015	-0.006	-0.003	0.0195	3.7	31
0.003	-0.0038	-0.0008	0.0022	3.8	31
0.0015	0	0.003	-0.0135	3.8	31
0.0015	0.0037	0.0015	-0.0173	3.8	31
0.0007	0.0052	-0.0008	-0.0203	3.7	31
0.003	0.0045	-0.0008	-0.0195	3.8	31
0.0052	0.003	-0.003	-0.0165	3.7	31
0.0067	0	-0.003	-0.0233	3.9	31
0.009	-0.0015	-0.0023	-0.0233	3.5	31
0.0052	-0.0038	-0.0015	-0.0083	4	31
0.0022	-0.006	0.0007	0.018	3.5	31
0.0007	-0.0165	0.0022	0.0157	3.9	31
-0.0023	-0.0256	0.0045	-0.0346	3.6	31
-0.0046	-0.006	0.0075	-0.0608	3.6	31
-0.006	0.0052	0.0037	-0.039	3.7	31
-0.0038	0.0052	0.0007	0.0217	3.6	31
0.0007	0.003	0	0.0855	3.6	31
0.0037	-0.003	-0.0008	0.0795	3.7	31
0.0045	-0.0015	-0.0015	0.0217	3.7	31
0.0022	-0.0046	-0.0008	-0.0091	3.6	31
0.0007	0.0015	0.0015	-0.0165	3.7	31
0.0015	0.0045	0.0022	-0.012	3.6	31
0.0015	-0.0015	-0.0008	-0.006	3.7	31
-0.003	0.0007	-0.0038	-0.006	3.3	31
-0.0158	0.003	0	-0.0165	3.7	31
-0.0143	0.003	-0.0015	-0.0248	3.6	31
0.0022	0.0052	-0.0068	-0.0181	3.5	31
0.0045	-0.0008	-0.0075	0.0052	3.7	31
0.0052	-0.0158	-0.0091	0.0405	3.5	31
0.0037	-0.0195	-0.0046	0.033	3.7	31
-0.0015	-0.0203	0.0007	0.009	3.4	31
-0.0008	-0.0173	0.0045	-0.0181	3.7	31
-0.0053	-0.0053	0.0052	-0.042	3.5	31
-0.003	0.0022	0.0045	-0.0458	3.5	31
-0.0038	0.003	0.0075	-0.0083	3.5	31
-0.0038	0.0067	0.0067	0.0285	3.6	31
0.0007	0.0135	-0.0008	0.0112	3.4	31
0.0015	0.0045	-0.006	0.0142	3.7	31
-0.0015	-0.012	-0.0015	0.0082	3.4	31
-0.0038	-0.0128	0.0015	-0.0098	3.7	31
-0.0015	-0.0105	0.0052	-0.0098	3.6	31
-0.003	-0.0105	0.0142	-0.0128	3.5	31
-0.0046	-0.0083	0.0172	-0.0263	3.7	31
-0.0038	-0.0068	0.0172	-0.0353	3.3	31
-0.0008	-0.0068	0.012	-0.0091	3.6	31
0.0052	-0.0015	0.0052	0.057	3.5	31
0.012	0.0007	-0.0068	0.1042	3.4	31
0.015	-0.0023	-0.0248	0.042	3.4	31
0.0142	0	-0.0361	-0.0263	3.5	31
0.0127	0.006	-0.033	-0.0338	3.5	31
0.012	-0.003	-0.024	-0.0346	3.4	31
0.0105	-0.0165	-0.0135	-0.0165	3.4	31
-0.003	-0.015	-0.0008	-0.0008	3.3	31
-0.0353	-0.012	0.012	0.0097	3.6	31
-0.0473	0.0037	0.0247	0	3.2	31
-0.0143	0.036	0.0262	-0.0068	3.7	31
0.003	0.0345	0.0247	-0.003	3.2	31
-0.0053	0.0045	0.021	-0.0105	3.6	31
0.0022	-0.0068	0.0045	-0.0083	3.3	31
0.0007	-0.0105	-0.0046	-0.0135	3.3	31
0.0007	0.0015	-0.0083	-0.0203	3.4	31
0.003	0.0097	-0.012	-0.0165	3.1	31
-0.003	0.0007	-0.012	0.0247	3.4	31
-0.0008	0.003	-0.0128	0.072	3.3	31
0.0015	-0.0135	-0.0091	0.042	3.3	31
0.003	-0.0091	-0.0083	-0.0128	3.2	31
-0.0008	0.0015	-0.0083	-0.0225	3.2	31
-0.0008	-0.0046	-0.0053	-0.0188	3.3	31
0	-0.0008	-0.003	-0.0225	3.4	31
0.0052	-0.0038	-0.0046	-0.0105	3.2	31
0.0135	0.0007	-0.0068	0.0022	3.3	31
0.012	-0.0046	-0.0083	-0.0068	3.3	31
0.0052	-0.0091	-0.0091	-0.0098	3.1	31
0.0015	-0.0068	-0.0068	0.0292	3.6	31
0	-0.0053	-0.0015	0.0352	2.9	31
0.0007	0.0007	0.0015	0.0015	3.5	31
0.0015	-0.003	-0.0008	-0.0008	3.1	31
-0.0015	-0.006	-0.003	0.018	3.4	31
-0.0015	-0.006	-0.006	0.0217	3.1	31
-0.0015	-0.0053	-0.0053	0.0007	3.1	31
-0.0008	-0.0023	-0.0023	-0.0068	3.1	31
0.0015	-0.003	-0.0015	-0.0083	3.1	31
-0.0008	-0.003	0.003	-0.0105	3.1	31
0	-0.0008	0.0022	-0.012	3	31
-0.0008	0.0007	0.003	-0.0203	3.3	31
0	-0.0023	0.0045	-0.03	3	31
0.0007	-0.003	0.0037	-0.0278	3.2	31
0	-0.0038	0.0045	-0.0008	2.8	31
0.0015	-0.0046	0.0052	0.009	3.3	31
0.0015	-0.0023	0.006	0.0232	3	31
-0.0015	-0.0053	0.0015	0.0322	3.1	31
-0.0023	-0.0038	0	0.0135	3.1	31
-0.003	-0.0023	0	-0.0008	2.8	31
-0.0038	-0.0008	0.0007	-0.0278	3.1	31
-0.003	0.003	0.0045	-0.0413	2.9	31
0.0007	0.0015	0.0007	-0.0248	3.1	31
0.0045	0.0007	-0.0023	-0.0113	3	31
0.0067	0	-0.0046	0.0135	3	31
0.0052	-0.0015	-0.0053	0.0015	3	31
0.0007	-0.0046	-0.006	-0.0053	3	31
-0.0038	-0.0068	-0.0046	0.0165	2.9	31
-0.0046	-0.0068	-0.0015	-0.0008	2.9	31
-0.0083	-0.0053	-0.0008	0.0067	3	31
-0.015	-0.0046	0.0007	0.0187	2.7	31
-0.0256	-0.003	-0.0015	0.0217	3.1	31
-0.0218	0.0007	-0.003	0.0367	2.7	31
-0.0046	0.0045	-0.0008	0.0322	3.1	31
-0.0038	0.0052	0.0015	0.0112	2.7	31
0.0007	0.0052	-0.0008	-0.0113	3	31
0.0067	0.0022	-0.0068	-0.012	2.8	31
0.0052	0.0015	-0.0105	0.009	2.7	31
0.0075	0.003	-0.0046	0.0255	3.1	31
0.0082	0.003	-0.0015	0.003	2.7	31
0.0075	0.003	0.0052	-0.0083	2.7	31
0.003	0.0007	0.015	-0.0091	2.8	31
0.003	-0.0008	0.0232	-0.012	2.8	31
0.0052	-0.0038	0.0232	-0.0083	2.6	31
0.0082	-0.006	0.0112	-0.0143	2.9	31
0.0127	-0.0046	0.003	-0.0135	2.7	31
0.0157	-0.0023	-0.0075	-0.0113	2.9	31
0.0157	-0.0046	-0.0165	-0.0165	2.7	31
0.0112	0.0007	-0.0256	-0.024	2.7	31
0.0045	0.0045	-0.0338	-0.027	2.8	31
-0.0015	0	-0.0278	-0.0218	2.5	31
-0.0046	-0.0046	-0.0181	0.0045	2.8	31
-0.0218	-0.0135	-0.012	0.0277	2.6	31
-0.0495	-0.0181	-0.0008	0.0165	2.9	31
-0.0368	-0.0083	0.0232	0.0067	2.8	31
0.0022	0.0007	0.039	0.0172	2.7	31
0.0007	0.0015	0.0435	0.0067	2.5	31
-0.0046	-0.0015	0.0442	-0.0098	2.5	31
-0.0008	-0.003	0.0367	-0.012	2.3	31
-0.0046	-0.0105	0.018	-0.0128	2.8	31
0.0007	-0.0046	0.0022	-0.0053	2.5	31
-0.003	-0.0038	-0.0075	-0.006	2.5	31
-0.0008	-0.0046	-0.0195	-0.0083	2.5	31
-0.0015	0	-0.0233	-0.0091	2.4	31
-0.0038	-0.0165	-0.012	-0.0083	2.6	31
0.0022	-0.0128	-0.0091	0	2.4	31
0.006	-0.0075	-0.0105	0.0015	2.5	31
0.006	-0.0083	-0.0008	0.0045	2.4	31
0.0007	-0.0053	0.0015	0.003	2.4	31
-0.0008	-0.0105	0	0.0015	2.3	31
-0.0015	-0.006	-0.0046	0.0052	2.2	31
0.003	-0.003	-0.0098	0.0082	2.4	31
0.0082	0.0007	-0.0091	0.0067	2.3	31
0.0105	0.0052	-0.0083	0.0007	2.4	31
0.009	0.0067	-0.0091	-0.0038	2.3	31
0.0067	-0.0015	-0.0098	-0.0046	2.1	31
0.003	-0.0165	-0.0091	-0.0075	2.2	31
0	-0.0203	-0.0105	-0.0128	2.3	31
0.003	-0.0173	-0.0181	-0.0218	1.8	31
0.0015	-0.0075	-0.0263	-0.0165	2.2	31
-0.0053	0.0217	-0.0218	0.0255	1.9	31
-0.0135	0.0315	-0.0105	0.0615	2.3	31
-0.0083	0.0165	-0.0015	0.0465	1.9	31
0.003	0.0105	0.0075	0.0157	2.1	31
0.0015	-0.0038	0.018	-0.0083	2	31
0.0007	-0.0053	0.0262	-0.0181	1.8	31
0	-0.0015	0.0277	-0.0165	2.1	31
-0.0008	0.0015	0.024	0.0007	1.9	31
0	0.009	0.0187	0.0277	1.8	31
0.0022	0.003	0.0105	0.0195	2	31
0.003	0.003	-0.0038	-0.0091	2.1	31
0.0015	-0.0075	-0.0091	-0.0188	1.6	31
-0.0008	-0.0105	-0.0091	-0.0293	2.1	31
-0.0038	-0.0091	-0.0105	-0.0353	1.6	31
-0.0008	-0.0113	-0.0091	-0.027	1.8	31
-0.0008	-0.0105	-0.0143	-0.0285	1.8	31
-0.0023	-0.0128	-0.021	-0.03	1.7	31
-0.0008	-0.0098	-0.0285	-0.0218	1.8	31
0.0007	-0.0098	-0.0278	-0.027	1.5	31
0.003	-0.0068	-0.0203	-0.0135	1.8	31
0.0045	0.0007	-0.0105	0.0307	1.5	31
0.006	0.0052	0.0067	0.03	1.9	31
0.0045	0.0045	0.018	0.0015	1.7	31
0.0045	0.0075	0.024	0.0097	1.6	31
0.0075	0.0105	0.0202	0.0292	1.7	31
0.0105	0.0157	0.0157	0.0397	1.5	31
0.0105	0.0202	0.0127	0.0337	1.6	31
0.0037	0.0157	0.0052	0.027	1.6	31
-0.0008	0.018	-0.0046	0.021	1.5	31
-0.0023	0.0127	-0.0158	0.0075	1.3	31
-0.0015	0.0135	-0.012	0.0067	1.8	31
-0.0023	0.0127	-0.0075	0.0285	1.3	31
0.0007	0.0082	-0.0038	0.0165	1.8	31
-0.0008	-0.003	0.0067	-0.0181	1.3	31
-0.0083	-0.0375	0.018	-0.0203	1.6	31
-0.0128	-0.0428	0.027	-0.0083	1.3	31
-0.0128	-0.0233	0.0232	-0.0015	1.6	31
-0.0091	-0.021	0.009	-0.0068	1.6	31
-0.0038	-0.0173	-0.0038	-0.0128	1.4	31
0.0015	-0.0105	-0.0158	-0.0278	1.4	31
0.006	-0.0068	-0.021	-0.0398	1.3	31
0.0112	-0.0046	-0.0203	-0.0263	1.3	31
0.0157	-0.0053	-0.012	0.0105	1.3	31
0.0142	-0.0091	0.003	0.0217	1.7	31
0.0037	-0.0165	0.012	-0.015	1.3	31
-0.0091	-0.0105	0.0195	-0.0293	1.5	31
-0.0323	-0.0023	0.027	-0.0158	1.4	31
-0.0533	-0.0023	0.0262	0.012	1.4	31
-0.0203	0.006	0.0082	0.0277	1.3	31
0.0082	0.0127	-0.0091	0.0067	1.3	31
-0.0008	0.0082	-0.0091	0.0045	1.5	31
0.003	0.003	-0.0105	-0.003	1.1	31
0.0022	0.0015	-0.0113	-0.0068	1.5	31
0.0007	0	-0.012	0.0075	1.1	31
0.0022	-0.0075	-0.0128	-0.0023	1.3	31
-0.003	-0.012	-0.012	-0.0143	1.3	31
-0.0098	-0.0083	-0.0105	-0.0293	1.3	31
-0.0135	-0.003	-0.0083	-0.0308	1.1	31
0.0007	-0.0023	-0.0038	-0.0053	1.5	31
0.0052	0.0007	0.0015	0.033	0.9	31
0.003	0.0052	0.0015	0.0292	1.3	31
0.003	0.0022	-0.0015	0.0007	1.1	31
0	0.0007	-0.003	-0.0068	1.2	31
0.003	0.0015	-0.003	-0.012	1.4	31
0.0052	0.003	-0.0046	0.0022	1.1	31
0.0067	0.0052	-0.0038	0.0157	1.3	31
0.0097	0.0067	-0.0046	0.0015	1.1	31
0.012	0.0097	-0.0023	-0.0098	1.3	31
0.009	0.0052	0.0022	-0.0023	1.1	31
0.0067	-0.0015	0.0007	0.0142	1.1	31
0.003	0	0	0.0232	1.2	31
0.0015	-0.0015	0	0.0075	1.2	31
0.003	-0.0046	-0.0075	-0.0113	1.1	31
0.0015	-0.0053	-0.0143	-0.0143	1.2	31
0.0007	-0.0008	-0.0143	-0.0053	1.2	31
0.0015	0.0015	-0.0105	0.0082	1.1	31
0.0007	-0.0008	-0.0053	0.0157	1.3	31
0.0015	-0.0015	0.0015	0.0165	1.2	31
0	-0.0083	0.0075	0.0172	1.5	31
-0.003	-0.0218	0.0135	0.0082	1	31
-0.0053	-0.0248	0.0172	0.0052	1.3	31
-0.0046	-0.012	0.0142	0.0045	1.1	31
0.0015	0.006	0.006	-0.0023	1.3	31
0.0007	0.0232	-0.0068	-0.0046	1.2	31
-0.0015	0.0292	-0.0195	-0.0068	1.2	31
0.0015	0.0157	-0.0203	-0.0113	1.4	31
0.003	0.0015	-0.0083	-0.0181	1.2	31
0.0015	-0.003	0.0045	-0.0083	1.1	31
0.0007	-0.0068	0.0105	0.0165	1.1	31
-0.0015	0.003	0.003	0.0232	1.3	31
-0.0008	0.0007	-0.0023	0.003	1.1	31
-0.0015	-0.0105	0.0015	-0.0091	1.5	31
-0.0015	-0.0158	0.0045	-0.0091	1	31
0.003	-0.0158	0.0097	-0.0083	1.3	31
0.0052	-0.0128	0.012	-0.0008	1.1	31
0.0045	-0.0015	0.0135	-0.0015	1.3	31
0.0067	0	0.0127	-0.0068	1.3	31
0.0097	-0.0068	0.0105	-0.027	1.1	31
0.0112	0.0022	0.012	-0.0346	1.4	31
0.018	0.0067	0.006	-0.0083	1	31
0.0135	-0.0008	0.0007	-0.0008	1.5	31
0	-0.0083	0.003	0.0165	1.1	31
-0.0068	-0.0023	0.006	0.0645	1.2	31
-0.0105	0.0007	0	0.0675	1.3	31
-0.0165	0.003	-0.0083	0.0007	1.3	31
-0.0233	0.0075	-0.0158	-0.0203	1.2	31
-0.0256	-0.0053	-0.024	-0.0053	1.3	31
-0.0203	-0.012	-0.0128	-0.0113	1.4	31
-0.0135	-0.0233	0.0015	-0.0068	1.4	31
-0.0046	-0.0308	-0.0023	-0.0105	1.4	31
0.003	-0.0293	-0.006	-0.0068	1.1	31
0.0037	-0.0256	-0.0068	-0.0068	1.4	31
0.0045	-0.0068	-0.0091	-0.012	1.2	31
0.0045	0	-0.012	-0.0091	1.5	31
0.0097	0.0015	-0.0135	-0.0113	1.3	31
0.0157	-0.0053	-0.0143	-0.0083	1.4	31
0.0082	-0.0015	-0.0158	-0.0023	1.3	31
-0.0218	0.0045	-0.0091	-0.0046	1.3	31
-0.0495	-0.0015	-0.0038	-0.0188	1.4	31
-0.0278	0.003	-0.0023	-0.0143	1.5	31
0.003	0.0007	-0.0023	-0.0053	1.5	31
0.0052	0.0075	-0.0075	0.003	1.5	31
0.0067	0.0187	-0.012	0.0112	1.3	31
-0.0008	0.0172	-0.0091	0.0075	1.5	31
-0.0091	0.0022	-0.0046	0.0097	1.4	31
-0.0068	-0.0015	0.0007	0.009	1.3	31
-0.003	0.0112	0.0165	0.0015	1.5	31
0.0015	0.0052	0.0315	0.0052	1.4	31
0	0.0172	0.0382	0.0105	1.4	31
-0.0023	0.0157	0.0292	0	1.5	31
-0.003	-0.006	0.0157	-0.0008	1.5	31
0.003	-0.0008	0.0082	0.012	1.5	31
0.0067	-0.0015	-0.003	0.0195	1.3	31
0.0052	-0.0008	-0.0083	0.0007	1.6	31
0.0045	-0.0023	-0.0113	-0.0173	1.5	31
0.006	-0.0046	-0.0105	-0.0135	1.4	31
0.0052	-0.0068	-0.012	-0.0083	1.6	31
0.0007	-0.0135	-0.012	0.0127	1.5	31
0.003	-0.012	-0.0098	0.0127	1.3	31
0.0007	-0.0195	-0.0105	-0.0038	1.8	31
-0.0015	-0.0173	-0.0068	-0.0091	1.3	31
0	-0.0098	-0.0008	-0.0181	1.6	31
0.0007	-0.0105	-0.0015	-0.0195	1.4	31
0.003	-0.0105	-0.006	-0.006	1.7	31
0.006	-0.0068	-0.0105	0.0187	1.5	31
0.0105	0.0007	-0.0188	0.0217	1.6	31
0.009	0.0015	-0.0218	-0.0075	1.6	31
0.0075	0.003	-0.0181	-0.0458	1.5	31
0.009	0.0067	-0.0128	-0.0608	1.5	31
0.0067	0.0112	0	-0.045	1.4	31
0.0045	0.0142	0.0112	0.012	1.5	31
0.0022	0.0105	0.0202	0.0795	1.7	31
-0.0046	-0.003	0.0247	0.0682	1.7	31
-0.0053	-0.0128	0.024	0.0405	1.4	31
-0.0053	-0.0218	0.018	0.0337	2.1	31
-0.0053	-0.0195	0	0.0112	1.4	31
-0.0046	-0.0015	-0.015	0.0007	1.8	31
-0.0053	0.009	-0.0173	-0.0015	1.5	31
-0.0105	0.0345	-0.012	0	1.8	31
-0.0128	0.0435	-0.0053	0.0112	1.8	31
0.0067	0.0232	0.0052	0.009	1.7	31
0.027	0.009	0.0142	-0.0113	1.8	31
0.021	-0.012	0.0202	-0.0181	1.5	31
0.0052	-0.0323	0.0255	-0.0135	1.9	31
-0.0046	-0.0465	0.024	-0.0135	1.5	31
-0.0046	-0.0503	0.0142	-0.0135	1.9	31
0	-0.0203	0.0022	-0.0165	1.7	31
0.0022	-0.0068	-0.0098	-0.0105	1.5	31
0.003	0.003	-0.0143	-0.0091	1.6	31
0.0052	0.0142	-0.0143	-0.0091	1.8	31
0.0127	0.0052	-0.0128	-0.0105	1.6	31
0.0165	0.0015	-0.0105	-0.0135	1.7	31
0.015	-0.0038	-0.0135	-0.0165	1.8	31
0.0105	-0.0046	-0.0128	-0.0091	1.7	31
0.0022	-0.0015	-0.0128	0.0075	1.8	31
0	0.0007	-0.0135	0.003	1.5	31
-0.0046	0.0067	-0.015	0.0015	1.8	31
-0.0225	0.015	-0.0181	-0.003	1.6	31
-0.0563	0.0127	-0.015	-0.0128	1.8	31
-0.06	0.0007	-0.0083	-0.0083	1.7	31
-0.0181	-0.0008	-0.0023	-0.0053	1.8	31
-0.0046	-0.0038	0.006	-0.0068	1.9	31
-0.0068	-0.0068	0.0157	-0.0158	1.7	31
0	-0.0113	0.0255	-0.0218	1.7	31
0.0022	-0.0068	0.03	-0.0203	1.8	31
0.0127	0.003	0.0255	-0.003	1.8	31
0.018	0.0045	0.0165	0.0345	1.7	31
0.0105	0.009	0.0015	0.0307	1.8	31
0.0007	0.0015	-0.0143	-0.0135	1.6	31
-0.0015	-0.012	-0.0158	-0.0143	1.9	31
-0.0015	-0.0128	-0.0046	0.0157	1.7	31
0.0015	-0.0083	0.0037	0.0502	1.8	31
0.0165	0.0007	0.0022	0.0465	2	31
0.0262	0.0052	-0.0083	0.0127	1.7	31
0.0285	0.0022	-0.0083	-0.0023	1.9	31
0.024	-0.012	-0.0046	-0.021	1.6	31
0.018	-0.0256	-0.0083	-0.0143	1.9	31
0.0127	-0.0188	-0.0053	-0.0165	1.6	31
0.0037	-0.0105	-0.0105	-0.0128	1.8	31
-0.0053	-0.003	-0.015	-0.0008	1.7	31
-0.0233	0.0195	-0.0068	0.0037	1.9	31
-0.0503	0.0255	-0.0053	0.0217	1.7	31
-0.0533	0.021	-0.0046	0.012	1.9	31
-0.033	0.012	0.0015	0.0015	1.6	31
-0.0165	-0.0068	0.0045	-0.0008	1.9	31
0.0007	-0.024	0.0127	-0.0008	1.9	31
0	-0.0405	0.0157	0.0052	1.7	31
0.0075	-0.0308	0.012	0.0015	1.8	31
0.0112	-0.021	0.0105	-0.0105	1.7	31
0.0075	-0.024	-0.0038	-0.0195	1.8	31
0.0165	0.0022	-0.0113	0.0052	1.8	31
0.0225	0.0352	-0.0046	0.033	1.9	31
0.018	0.045	-0.0008	0.0202	1.9	31
-0.0046	0.0195	0.006	-0.003	1.6	31
-0.012	0.0015	-0.0038	-0.006	1.9	31
-0.0135	-0.0091	-0.0218	-0.0068	1.8	31
-0.0165	-0.0083	-0.027	-0.0038	1.8	31
-0.0075	-0.0046	-0.0203	-0.0053	1.8	31
-0.0046	-0.0083	-0.0113	-0.0091	1.8	31
0.0022	0.0052	-0.0038	-0.0113	1.6	31
0.0082	0.0075	0.0127	-0.0158	2.1	31
0.0082	0.012	0.027	-0.0075	1.6	31
0.0075	0.0127	0.0345	0.012	2.1	31
0.0045	-0.003	0.0375	0.0255	1.5	31
0.0037	-0.027	0.0315	0.009	1.8	31
0.003	-0.0263	0.018	-0.0068	1.7	31
0.0045	-0.0083	0.003	-0.0143	1.7	31
0.003	-0.0105	-0.0053	-0.021	1.9	31
0.003	-0.0053	-0.0068	-0.0158	1.8	31
0.006	-0.0046	-0.0105	-0.0015	2	31
0.0112	-0.0008	-0.0091	0.009	1.8	31
0.0127	0.006	-0.0053	0.0015	1.7	31
0.012	0.006	-0.0091	-0.0091	1.8	31
0.0045	0.0022	-0.012	-0.012	2.1	31
-0.003	-0.006	-0.0113	-0.0135	1.7	31
-0.0053	-0.0098	-0.0105	-0.0091	2	31
-0.0165	-0.021	-0.0105	-0.0158	1.5	31
-0.0383	-0.0158	-0.0128	-0.0346	1.8	31
-0.0458	0.0015	-0.015	-0.027	1.8	31
-0.015	0.012	-0.0143	0.0172	1.7	31
0.0015	0.009	-0.0128	0.0622	2	31
-0.0023	-0.003	-0.0158	0.069	1.6	31
0.0067	0.0007	-0.0218	0.0277	2	31
0.0007	-0.0015	-0.0225	-0.0105	1.5	31
0.0015	-0.0046	-0.0143	-0.0105	1.9	31
0.0007	0.0007	-0.0091	-0.0143	1.6	31
-0.0015	0.0052	0.0007	-0.0143	1.8	31
0.003	0.009	0.015	-0.015	1.8	31
0.0007	0.0015	0.0165	0.0022	1.7	31
0.0052	-0.0015	0.0105	0.0315	1.7	31
0.006	-0.0015	0.0082	0.0135	1.8	31
0.0067	0.0037	0.009	-0.0053	1.8	31
0.0052	0.0052	0.0045	0.0082	1.7	31
0.0045	0.0037	0.0052	0.0105	1.8	31
0.006	0.0015	0.0112	0.0037	1.6	31
0.0075	-0.0008	0.018	-0.0083	2.1	31
0.0082	0.0015	0.0165	-0.0195	1.5	31
0.0045	-0.0015	0.0105	-0.0181	2	31
0	-0.0038	0.0052	-0.0128	1.8	31
-0.0038	-0.003	-0.0053	-0.0143	1.8	31
-0.0046	-0.0075	-0.0158	-0.0383	1.8	31
-0.006	-0.0053	-0.0218	-0.0128	1.7	31
-0.0128	0.0082	-0.0218	0.0442	1.7	31
-0.0203	0.009	-0.0188	0.054	1.7	31
-0.0135	0.0007	-0.0105	0.021	1.9	31
-0.0068	-0.0046	-0.0038	-0.012	1.8	31
-0.0091	-0.0008	0.006	-0.003	1.9	31
0.0007	-0.0008	0.012	-0.0015	1.8	31
0.0045	-0.003	0.0157	0.0015	2	31
0.012	-0.0135	0.015	-0.0105	1.7	31
0.0165	-0.0128	0.0082	-0.0256	1.9	31
0.0067	0.0022	0.0022	-0.0128	1.8	31
0.003	0.0007	-0.0091	-0.0015	1.7	31
-0.003	-0.012	-0.003	0.0067	2	31
0.0007	-0.0256	0.0082	-0.0015	1.7	31
0.012	-0.012	0.003	-0.0053	1.9	31
0.0157	0	0.0022	-0.0068	1.7	31
0.0082	-0.0046	0.0022	0.0052	1.8	31
-0.003	-0.0075	0.003	0.0075	1.8	31
-0.0023	-0.0068	0.0052	-0.0015	1.8	31
-0.006	-0.0015	0	-0.0023	1.8	31
-0.0053	-0.0023	-0.0053	-0.003	2.1	31
0.0007	0.0022	-0.0091	0.0015	1.8	31
0.003	0.0015	-0.0105	-0.0008	1.9	31
0.0015	-0.0038	-0.0083	-0.003	1.7	31
-0.0008	-0.0113	-0.0135	-0.0053	1.8	31
0.0015	-0.0203	-0.0203	-0.0083	1.8	31
-0.0008	-0.015	-0.0203	-0.0053	1.8	31
-0.0008	-0.0023	-0.0165	-0.006	2	31
0.0015	0.012	-0.0091	-0.0038	1.7	31
0.0045	0.0202	0.0045	-0.003	1.9	31
0.0105	0.03	0.0142	-0.003	1.7	31
0.0135	0.0187	0.0172	0	1.8	31
0.012	0.0052	0.0127	-0.0008	1.9	31
0.0097	-0.0015	0.0097	-0.0053	1.6	31
0.0045	-0.027	0.0067	-0.0053	1.7	31
0	-0.0248	0.0067	-0.0053	1.8	31
-0.0015	-0.003	0.0127	-0.0113	1.8	31
-0.0135	0.003	0.009	-0.0143	1.6	31
-0.0368	0.0142	0.0045	-0.0068	1.8	31
-0.0525	0.0067	0.0142	0.0112	1.5	31
-0.0203	0.0015	0.012	0.018	2.1	31
-0.0015	0.003	0.0105	0.018	1.6	31
-0.006	-0.0008	0.0127	0.0202	2	31
0.0022	0.0052	0.009	0.0015	1.7	31
-0.0015	0.003	0.012	-0.003	1.8	31
0.003	0.0015	0.0142	0.0045	1.8	31
0.0082	-0.0046	0.0082	0.0082	1.7	31
0.0067	-0.0068	0.0007	0.0105	1.8	31
0.0075	-0.003	-0.0083	0.012	1.8	31
0.003	-0.0046	-0.0173	0.0142	1.8	31
0.0045	-0.0046	-0.0195	-0.0068	1.8	31
0.0015	-0.0038	-0.0165	-0.0158	1.7	31
-0.0008	-0.0015	-0.0143	0.003	1.5	31
-0.006	-0.0023	-0.0105	0.0097	1.9	31
-0.0143	-0.006	-0.0105	-0.0158	1.6	31
-0.0158	-0.0113	-0.0113	-0.0278	1.8	31
-0.0015	-0.0091	-0.0113	-0.0046	1.8	31
0.0075	-0.0053	-0.0083	0.0322	1.7	31
0.0075	0.0007	-0.0075	0.0435	1.8	31
0.0105	0.0037	-0.0068	0.0015	1.6	31
0.0075	0.0007	-0.0068	-0.0256	1.9	31
0.0052	0	-0.0083	-0.042	1.4	31
0.0015	0.0015	-0.0083	-0.0473	1.8	31
0.0007	0.0045	-0.0091	-0.027	1.5	31
-0.0008	0.0015	-0.0083	0.0082	1.7	31
-0.0008	-0.0068	-0.0068	0.0585	1.8	31
0.0015	-0.012	-0.0113	0.0427	1.8	31
-0.0008	-0.0046	-0.0203	-0.0075	1.8	31
0.0007	0.0015	-0.0233	-0.0173	1.7	31
0.003	0.0052	-0.0128	-0.0173	1.9	31
0.0015	0.0045	-0.006	-0.0083	1.6	31
-0.0008	-0.0098	0.0015	0.036	2.2	31
0.0007	-0.0128	0.0165	0.063	1.6	31
0.003	-0.0113	0.0247	0.0127	1.9	31
0.003	-0.0105	0.027	-0.0346	1.7	31
0.003	-0.0015	0.0225	-0.0428	1.8	31
0.0015	-0.0046	0.015	-0.039	1.8	31
0	-0.0105	0.0067	-0.0233	1.7	31
-0.0015	-0.0128	-0.0046	0.003	2	31
-0.0008	-0.0143	-0.0083	0.0352	1.4	31
0	-0.0091	-0.0046	0.036	1.7	31
-0.0015	-0.0046	-0.0023	-0.0008	1.8	31
-0.003	-0.0046	-0.0015	-0.0083	1.7	31
-0.0046	0.0015	-0.0038	0.0007	1.7	31
-0.0068	0.0052	-0.0053	-0.0105	1.8	31
-0.0075	0.0052	-0.0053	-0.0143	1.8	31
-0.0046	0.0007	-0.0053	-0.0075	1.8	31
-0.003	-0.0015	-0.003	0.0172	1.9	31
-0.003	0.0015	-0.0023	0.0202	1.6	31
-0.0008	-0.0023	-0.0023	0.003	1.9	31
-0.0008	-0.0068	-0.0008	-0.0165	1.7	31
-0.003	-0.0083	0.0015	-0.0218	2.1	31
-0.0046	-0.0083	0.003	-0.0143	1.7	31
-0.0038	-0.006	0	-0.0091	1.9	31
0	0.0015	-0.0015	0.0015	1.7	31
0.0052	0.0082	-0.0046	0.0067	1.8	31
0.0052	0.012	-0.0046	0.0037	1.8	31
0.0075	0.006	-0.0038	-0.0098	1.7	31
0.0067	0.003	-0.0038	-0.0105	1.8	31
0.0015	0.003	-0.0083	-0.012	1.8	31
-0.003	-0.0023	-0.015	-0.0135	1.8	31
-0.003	-0.0023	-0.012	0.0007	1.8	31
0.0007	-0.0068	-0.0098	0.0165	1.8	31
0.0037	-0.0015	-0.0091	0.0285	1.6	31
0.0067	0.0127	-0.006	0.0285	1.8	31
0.0097	0.015	0.0075	0.0135	1.7	31
0.0075	0.0097	0.0247	0.0082	1.9	31
0.0052	0.006	0.03	0.0037	1.9	31
0.012	0.006	0.0307	-0.0113	1.5	31
0.012	-0.0015	0.024	-0.0068	1.8	31
0.0007	-0.0225	0.0097	0.0015	1.7	31
-0.015	-0.0315	-0.006	-0.0008	1.9	31
-0.0098	-0.0091	-0.0105	-0.0046	1.9	31
0.0022	-0.0091	-0.015	-0.0091	1.8	31
-0.0083	-0.0091	-0.0143	-0.0158	1.8	31
-0.0315	0.0082	-0.0053	-0.0188	1.8	31
-0.0383	0.0045	0.0007	-0.0225	1.5	31
-0.0083	-0.0015	0.0202	-0.0263	2	31
-0.0046	-0.0091	0.0292	-0.0248	1.8	31
-0.0158	-0.0053	0.0337	-0.0308	2	31
-0.0015	0.0052	0.033	-0.0046	1.8	31
0.0015	0.0045	0.0157	0.0652	1.8	31
0.006	-0.0075	-0.0083	0.0615	1.8	31
0.0067	-0.0128	-0.0323	0.0165	1.8	31
0.0052	-0.0053	-0.027	0.0225	1.9	31
0.009	0.0052	-0.0158	0.018	1.7	31
0.0097	0.0075	-0.0195	0.0015	1.8	31
0.012	0.0082	-0.0195	-0.0023	1.8	31
0.0067	0.0067	-0.0195	-0.0068	1.8	31
0.0015	-0.003	-0.0188	0	1.8	31
0.0007	0.0052	-0.0105	0.0007	1.8	31
0.0007	0.012	-0.003	-0.0023	1.8	31
0.0045	0.0007	-0.0008	0	1.7	31
0.0022	-0.024	-0.0008	-0.0053	1.9	31
-0.0046	-0.024	0.0045	-0.0105	1.7	31
-0.0023	-0.0053	0.012	-0.0143	2	31
0.0037	-0.0053	0.012	-0.0181	1.7	31
0.0007	-0.0053	0.0082	-0.0203	1.9	31
-0.0053	-0.0128	0.0022	-0.0233	1.7	31
-0.0068	-0.0143	-0.0023	-0.0195	1.8	31
-0.003	-0.0105	-0.0046	-0.024	1.8	31
-0.0008	-0.0098	-0.0053	-0.021	1.8	31
-0.0008	-0.0046	-0.0083	-0.0015	1.6	31
-0.0008	0.0007	-0.0083	0.012	1.5	31
-0.0015	0.0105	-0.006	0.012	1.8	31
-0.003	0.0052	-0.0105	0.0285	1.7	31
-0.0046	-0.0046	-0.0218	0.0277	1.8	31
-0.0038	-0.0046	-0.0263	-0.0203	1.6	31
-0.003	-0.0091	-0.0195	-0.0405	2	31
-0.0015	-0.0083	-0.0195	-0.0368	1.5	31
0	-0.0068	-0.0188	-0.0046	1.9	31
0.0015	-0.0075	-0.0068	0.0532	1.8	31
0.0015	-0.0053	0.0022	0.0487	1.9	31
0.003	-0.0023	0.0007	0.0105	1.6	31
0.0052	-0.0068	-0.0083	-0.0173	1.7	31
0.0097	-0.012	-0.003	-0.0015	1.8	31
0.012	-0.0083	0.0112	0.0427	1.7	31
0.0112	0.0082	0.0142	0.0397	2	31
0.012	0.0165	0.024	0.0217	1.5	31
0.0112	0.0075	0.0382	0.0067	1.8	31
0.009	0.0045	0.042	0.0097	1.9	31
0.0052	0.0045	0.0405	0.0315	1.6	31
-0.0038	0.003	0.0322	0.0375	1.8	31
-0.0091	-0.0008	0.0195	0.042	1.9	31
0.0015	-0.0135	-0.0038	0.0082	1.8	31
0.0015	-0.0091	-0.0225	-0.0203	1.5	31
-0.0225	0.003	-0.024	-0.015	1.9	31
-0.0308	-0.0008	-0.024	-0.0091	1.6	31
-0.003	0.0082	-0.024	-0.0046	1.8	31
0.0142	0.009	-0.0218	-0.0023	1.5	31
0.0082	0.0052	-0.0181	0.0022	1.7	31
-0.0098	0.0015	-0.015	-0.0075	1.6	31
-0.039	-0.0075	-0.0158	-0.0098	1.8	31
-0.0346	-0.0015	-0.0135	-0.0046	1.7	31
-0.012	-0.0143	0.0007	-0.0278	1.5	31
-0.0046	-0.0105	0.0135	-0.0353	1.8	31
0.0045	0.0135	0.012	-0.015	1.7	31
0.018	-0.0038	0.012	0.0307	1.8	31
0.0217	-0.012	0.0195	0.06	1.7	31
0.0142	0.0007	0.018	0.021	1.6	31
0.009	-0.0008	0.0135	-0.0091	1.5	31
0.0052	-0.0135	0.009	-0.0278	1.7	31
0.003	-0.0165	-0.0046	-0.033	1.5	31
0.0015	0.006	-0.0165	-0.0203	1.7	31
0.0015	0.0105	-0.012	-0.0218	1.6	31
-0.0008	-0.003	-0.0053	-0.0233	1.6	31
0	-0.0023	-0.003	-0.0323	1.7	31
0.0015	0.0015	0.0052	-0.0383	1.5	31
-0.0038	0.0015	0.0142	-0.0361	1.9	31
-0.0098	-0.0053	0.015	0.0045	1.5	31
-0.0068	0.003	0.0082	0.0435	2.1	31
0.0015	0.006	0.0007	0.0255	1.5	31
0.009	0.0015	-0.0046	0.009	1.6	31
0.0082	0	-0.0068	-0.0023	1.5	31
-0.0008	-0.0083	-0.0195	-0.0173	1.6	31
-0.0053	-0.0083	-0.0315	-0.0181	1.4	31
-0.0046	-0.003	-0.0315	-0.0203	1.8	31
-0.0015	-0.0046	-0.0263	-0.0105	1.6	31
-0.0015	-0.0091	-0.0105	0.003	1.6	31
-0.006	-0.0098	0.003	-0.0046	1.6	31
-0.015	-0.0091	0.012	-0.0308	1.5	31
-0.0083	0.0007	0.0082	-0.0233	1.7	31
0.0045	0.0082	0.012	0.006	1.5	31
0.003	0.0052	0.0172	0.0165	1.7	31
0.0052	0.0007	0.018	0.0052	1.7	31
0.0052	0.0007	0.0232	-0.0091	1.6	31
0.0015	-0.0008	0.0262	0.0082	1.8	31
0.0022	0.003	0.0322	0.006	1.5	31
-0.0023	0.0097	0.0315	-0.0068	1.7	31
-0.0015	-0.0023	0.0255	-0.003	1.6	31
0.003	-0.0091	0.009	-0.0135	1.6	31
0.0105	-0.0023	-0.0075	-0.03	1.7	31
0.0112	-0.0038	-0.0181	-0.0383	1.7	31
0.0097	0.0022	-0.0218	-0.0181	1.5	31
0.009	0.0045	-0.0188	0.0142	1.8	31
0.006	0.003	-0.0203	0.057	1.4	31
-0.0015	-0.0008	-0.0173	0.078	1.8	31
-0.0128	-0.0015	-0.0173	0.0532	1.5	31
-0.0338	0.0007	-0.0181	0.0255	1.7	31
-0.048	-0.003	-0.0143	-0.0008	1.7	31
-0.0143	-0.0046	-0.0143	-0.0105	1.7	31
0.0105	-0.0105	-0.0128	-0.021	1.8	31
0.0015	-0.0091	-0.012	-0.0195	1.7	31
0.009	-0.0083	-0.0128	-0.0083	1.6	31
0.0112	-0.0098	-0.0135	-0.015	1.7	31
0.0105	-0.0046	-0.0135	-0.033	1.6	31
0.0127	0.0022	-0.0135	-0.0405	1.8	31
0.0082	0.0082	-0.0105	-0.0075	2	31
0.0045	0.0052	-0.0068	0.0172	1.5	31
-0.003	0.0082	-0.003	0.0345	2	31
0.0007	0.009	0.0015	0.0225	1.7	31
0.0067	-0.0038	0.003	0.0127	1.8	31
0.0187	-0.0233	0.0015	0.021	1.7	31
0.0232	-0.0353	-0.012	0.012	1.5	31
0.0217	-0.0248	-0.0278	0.0112	1.8	31
0.0255	-0.0233	-0.0308	0.0045	1.4	31
0.0217	-0.0015	-0.0233	0.012	2	31
0.0157	0.0292	-0.0068	0.0015	1.6	31
-0.012	0.012	0.015	-0.006	1.9	31
-0.0578	0.0052	0.0307	-0.0008	1.8	31
-0.0825	-0.0015	0.0405	-0.0083	1.6	31
-0.048	0.003	0.0255	-0.0075	1.8	31
-0.0068	0.0172	0.0067	-0.015	1.8	31
-0.0046	-0.0068	0.0067	-0.0256	1.7	31
0	-0.0195	0.0022	-0.0203	1.8	31
0.003	-0.0165	0.0165	0.0015	2	31
0.0157	-0.0046	0.0315	0.0165	1.5	31
0.0307	0.0007	0.0232	0.021	1.8	31
0.0337	0.0165	0.0097	0.0015	1.6	31
0.0195	0.024	-0.0083	-0.0091	2.1	31
-0.0038	-0.006	-0.0038	-0.0075	1.7	31
-0.003	-0.0248	-0.0015	-0.0098	1.9	31
0.0015	-0.0181	-0.0165	0.0082	1.7	31
-0.0053	0.0067	-0.024	0.0165	1.9	31
-0.0308	-0.0023	-0.039	0.0127	1.8	31
-0.0338	-0.0053	-0.0721	0.0052	1.8	31
-0.0015	0.024	-0.0825	0.0052	1.7	31
0.0142	0.0015	-0.06	-0.0015	1.8	31
0.0315	-0.0256	-0.0315	-0.0128	1.7	31
0.045	-0.027	0.0067	-0.0098	1.5	31
0.0577	-0.0105	0.0457	0.0015	1.9	31
0.0367	0.0217	0.081	0.0015	1.5	31
-0.057	0.0067	0.129	-0.0068	1.8	31
-0.09	-0.0158	0.165	-0.0105	1.7	31
-0.0473	-0.027	0.1455	-0.012	1.8	31
-0.0413	-0.042	0.0772	-0.0075	1.9	31
-0.0263	-0.0315	-0.0008	0.0007	1.6	31
-0.0015	-0.0143	-0.0465	0.0157	2	31
-0.0143	0.0015	-0.0578	0.0112	1.5	31
-0.0135	0.0112	-0.0645	-0.0008	2	31
0	0.0202	-0.0818	-0.0015	1.6	31
0.009	0.0262	-0.1006	-0.0046	1.8	31
0.009	0.027	-0.0938	-0.0015	1.8	31
0.027	0.0495	-0.063	-0.0008	1.9	31
0.0555	0.0652	-0.0443	0.0052	1.8	31
0.0532	0.0457	-0.0353	0.0067	1.9	31
0.0307	-0.0008	-0.0075	-0.0046	1.7	31
0.021	-0.0293	0.0217	-0.0143	1.8	31
0.0142	-0.0548	0.0547	-0.0278	1.8	31
-0.0046	-0.0578	0.108	-0.0368	1.8	31
-0.0263	-0.0046	0.1207	-0.03	1.9	31
-0.0548	0.009	0.1012	-0.003	1.5	31
-0.03	0	0.1042	0.0292	2	31
0.0217	-0.0165	0.1057	0.0217	1.8	31
0.0052	-0.0353	0.0825	0.003	1.8	31
0.003	-0.024	0.0225	0.0157	1.9	31
0.0187	0.006	-0.0083	0.0067	1.7	31
0.0232	0.042	-0.0203	-0.003	2	31
0.024	0.0345	-0.0518	0.0015	1.9	31
-0.0143	0.0067	-0.0525	0.009	1.8	31
-0.0555	0	-0.0458	0.0165	1.8	31
-0.0593	-0.0203	-0.048	0.0127	1.9	31
-0.0203	-0.0346	-0.057	-0.0091	1.6	31
-0.0083	-0.0128	-0.0675	-0.0091	2.1	31
-0.0038	0.006	-0.0645	0.0382	1.6	31
0.0045	0.018	-0.0518	0.0247	1.9	31
-0.003	0.018	-0.0413	-0.0105	1.8	31
0.003	-0.0038	-0.03	-0.0046	1.8	31
-0.0008	-0.0113	-0.012	0.003	2	31
0.0045	-0.0143	0.0007	0.024	1.8	31
0.0045	-0.0165	0.0015	0.0112	2	31
0.0045	-0.0046	-0.0015	-0.0046	1.7	31
0.006	-0.0015	-0.0046	-0.0091	1.9	31
0.0052	-0.0068	-0.0068	-0.0068	1.9	31
0.009	-0.0091	-0.0091	-0.003	1.8	31
0.0097	-0.0038	-0.0091	-0.012	1.9	31
0.0157	0.003	-0.0105	-0.0143	1.9	31
0.0105	0.0075	-0.0091	-0.0105	1.8	31
0.0075	0.024	-0.0053	-0.0038	2	31
0.0052	0.015	-0.003	-0.0023	1.9	31
0.0045	-0.0105	-0.0068	-0.0008	1.8	31
0.0015	-0.0203	-0.0091	-0.0068	2.1	31
-0.0008	-0.0285	-0.0068	-0.0105	1.7	31
0.0007	-0.0105	-0.0068	0.0037	2.1	31
-0.0008	0.006	-0.0053	0.0052	1.7	31
-0.0015	0.0052	-0.0068	-0.015	2.2	31
-0.0015	0.003	-0.0083	-0.0383	1.9	31
0.0037	-0.0046	-0.0135	-0.0458	2.1	31
0.009	-0.0098	-0.0203	-0.027	2.1	31
0.0097	-0.0225	-0.024	-0.0091	2.2	31
0.0045	-0.039	-0.0203	0.015	2	31
-0.0023	-0.0465	-0.0075	0.0487	2.2	31
0	-0.0315	0.0052	0.0442	2.2	31
0.0052	-0.0233	0.0142	0.0292	1.9	31
0.0052	-0.0068	0.0195	0.027	2.4	31
0.0045	0.0405	0.0142	0.009	2	31
0.0225	0.048	0.0082	0.0097	2.4	31
0.0382	0.0285	0.018	0.012	2.1	31
0.0232	0.0157	0.018	0.0007	2.3	31
0.0052	0.0112	0.0022	-0.0091	2.2	31
-0.024	0.0187	0.0015	-0.0203	2.2	31
-0.0533	0.0157	0.0105	-0.0323	2.4	31
-0.03	0.009	0.0037	-0.0338	2.3	31
-0.0293	0.0217	0.0067	-0.0098	2.7	31
-0.0653	0.0202	0.0142	0.0052	2.2	31
-0.0473	-0.0008	-0.0015	0.0142	2.6	31
-0.0023	-0.0143	-0.012	0.0217	2.7	31
0.018	-0.0053	-0.0083	0.018	2.4	31
0.036	0.0007	0.0082	0.0007	2.5	31
0.0375	-0.021	0.0375	-0.0046	2.6	31
0.0067	-0.033	0.0517	-0.0075	2.6	31
-0.0083	-0.0533	0.0465	-0.0181	2.6	31
-0.003	-0.024	0.0307	-0.0128	2.8	31
-0.0008	0.0292	0.0082	-0.0128	2.4	31
0.0157	0.0705	0.0037	-0.003	3	31
0.0435	0.0885	-0.0046	0.0082	2.6	31
0.0367	0.0165	-0.0368	0.0045	2.8	31
0.0247	-0.0218	-0.042	0.0007	2.7	31
0.039	-0.015	-0.0383	-0.0015	2.7	31
0.0352	0.0322	-0.0465	-0.0038	2.8	31
0.0195	0.0615	-0.0361	-0.0181	2.6	31
-0.0135	-0.0293	-0.0173	-0.0248	2.7	31
-0.0833	-0.0803	0.0015	-0.0218	2.8	31
-0.123	-0.0706	0.0127	0.003	2.8	31
-0.0593	-0.0495	-0.003	0.0472	2.9	31
0.0015	-0.021	-0.054	0.039	2.9	31
-0.0173	-0.033	-0.099	0.0007	2.7	31
-0.0278	-0.0533	-0.111	-0.0015	3.1	31
-0.0053	-0.0263	-0.1155	-0.0008	2.8	31
0.0487	0.012	-0.1013	0.0045	2.9	31
0.0945	0.0555	-0.078	0.0045	2.9	31
0.0802	0.0712	-0.0608	0.0052	2.8	31
0.0345	0.0232	-0.0165	0.018	3	31
0.0195	-0.0203	0.039	0.0135	2.8	31
-0.0158	0.0165	0.1095	-0.006	3.3	31
-0.117	0.0615	0.1867	-0.0195	2.7	31
-0.1013	0.057	0.2257	-0.0046	3.1	31
0.054	0.105	0.2212	0.0015	3	31
0.0952	0.0727	0.1935	-0.0053	3.1	31
-0.003	-0.0878	0.1935	-0.0165	3.1	31
-0.0691	-0.2085	0.2197	-0.0248	3.1	31
-0.1043	-0.177	0.2002	-0.0218	2.9	31
-0.0818	-0.1058	0.1282	-0.0195	3.3	31
-0.042	-0.09	0.027	-0.0083	3	31
-0.0135	-0.039	-0.0436	-0.0038	3	31
0.0195	-0.0195	-0.057	-0.0015	3.2	31
0.0172	0.009	-0.0713	0.003	2.9	31
0.0262	0.0345	-0.108	0.0007	3.2	31
0.021	0.0442	-0.156	0.0015	3.1	31
0.0465	0.051	-0.1711	0.0015	3.1	31
0.0637	0.0067	-0.1463	0.003	3.1	31
0.0427	-0.0091	-0.1163	0.0052	3.1	31
0.027	0.0105	-0.0728	0.009	3.4	31
-0.0091	0.0705	-0.0173	0.003	3.2	31
-0.0195	0.0825	0.0547	-0.0128	3.3	31
-0.0353	0.012	0.0915	-0.033	3.3	31
-0.0503	-0.027	0.0765	-0.039	3.4	31
-0.033	-0.0518	0.0345	-0.0278	3.1	31
0.009	-0.0338	-0.027	0.0157	3.7	31
0.033	0.015	-0.057	0.0705	3.3	31
0.024	0.0487	-0.0645	0.0615	3.6	31
0.0285	0.0727	-0.0675	0.0157	3.3	31
0.0345	0.024	-0.0848	-0.0053	3.6	31
0.015	-0.003	-0.1028	-0.0015	3.4	31
-0.0188	0.0097	-0.1013	0.0075	3.5	31
-0.0346	-0.0008	-0.093	0.0097	3.5	31
-0.0293	0.009	-0.0638	0.0112	3.4	31
-0.0023	0.0082	-0.0113	0.0015	3.6	31
0	0.0067	0.027	-0.0233	3.6	31
-0.0015	0.0067	0.0435	-0.0195	3.6	31
0.0195	-0.0181	0.042	-0.0091	3.6	31
0.0292	-0.0495	0.009	0.0007	3.5	31
0.054	-0.042	-0.0218	0.0262	3.6	31
0.057	-0.0105	-0.0263	0.018	3.6	31
0.0412	-0.0105	-0.0346	-0.0053	3.6	31
0.0367	0.0015	-0.0375	-0.0256	3.6	31
0.0262	0.0217	-0.0105	-0.027	3.7	31
-0.0293	0.0112	0.0255	0.0007	3.5	31
-0.0908	-0.0353	0.054	0.0142	4	31
-0.0773	-0.0315	0.063	-0.0015	3.5	31
-0.0293	0.006	0.0577	-0.0075	3.9	31
0	0.024	0.027	0.0007	3.8	31
0.0082	0.0795	-0.015	0.0105	3.7	31
0.018	0.06	-0.0361	0.0112	3.9	31
0.0315	-0.0128	-0.042	0.0015	3.7	31
0.0337	-0.024	-0.0173	0.0067	3.9	31
0.0255	0.0015	0.0157	0.0112	3.8	31
0.0202	0.0157	0.0405	0.0082	3.9	31
0.0022	-0.0075	0.0435	0.003	3.9	31
-0.0338	-0.0143	0.0465	-0.0075	4.1	31
-0.0555	-0.0158	0.0397	-0.0143	3.9	31
-0.0488	-0.0165	-0.0068	-0.0128	4	31
-0.0323	-0.0135	-0.033	-0.0091	4	31
-0.0256	-0.027	-0.0368	0.0007	3.8	31
-0.0091	-0.0015	-0.0495	0.012	4.1	31
0.027	0.0157	-0.0458	0.003	3.9	31
0.054	0.0217	-0.0083	0.003	4.2	31
0.0352	0.012	0.0367	0.0052	3.9	31
-0.0046	-0.0436	0.066	-0.0015	4.2	31
-0.0293	-0.0713	0.075	0.0067	3.9	31
-0.0308	-0.0668	0.0622	0.0007	4	31
-0.0181	-0.027	0.0352	-0.0046	4.1	31
0.006	0.0067	-0.0023	0.003	4.2	31
0.0277	0.0367	-0.0233	0.003	4	31
0.0307	0.0517	-0.0256	0.0067	3.9	31
0.027	0.0172	-0.027	0.0007	4.4	31
0.0165	-0.0015	-0.0158	-0.0008	3.9	31
0.009	-0.0293	0.0037	-0.0046	4.4	31
0.0112	-0.0181	0.0135	-0.006	4	31
-0.0135	0.024	0.012	-0.0015	4.3	31
-0.0511	0.0375	0.0067	-0.0098	4.1	31
-0.03	0.0555	0.009	-0.012	4.1	31
-0.0098	0.0067	0.0157	-0.0181	4.2	31
-0.0143	-0.0398	0.0075	-0.0181	4	31
-0.003	-0.0346	-0.0113	-0.0083	4.4	31
-0.024	-0.0413	-0.0353	0.0067	4	31
-0.0293	-0.0338	-0.0653	0.0157	4.3	31
-0.0091	-0.0256	-0.0825	0.0045	4.3	31
0.0015	0.0075	-0.0818	-0.0068	4.2	31
0.0202	0.0127	-0.0645	-0.0068	4.3	31
0.048	-0.0023	-0.057	-0.0008	4.5	31
0.0637	0.0345	-0.0465	0.0165	4.4	31
0.0577	0.042	0.0075	0.0187	4.3	31
0.0495	0.0315	0.0562	0.0135	4.5	31
0.024	0.0367	0.0645	0.0142	4	31
-0.0038	0.0307	0.0382	0.0082	4.5	31
-0.024	0.0045	0.0202	-0.0008	4.1	31
-0.0721	-0.0645	0.0285	-0.0105	4.6	31
-0.075	-0.1275	0.0315	-0.0083	4.2	31
-0.0128	-0.0495	0.0255	-0.006	4.5	31
0.0105	0.003	0.0127	-0.0113	4.3	31
0.003	-0.0165	-0.0135	-0.0128	4.5	31
0.0052	0.0082	-0.0135	-0.0135	4.4	31
0.0045	-0.0135	0.0375	-0.0091	4.3	31
0.006	-0.0008	0.075	-0.0046	4.5	31
0.0127	0.0195	0.1005	-0.006	4.4	31
-0.0015	0.018	0.1057	-0.0181	4.4	31
-0.0233	-0.0143	0.0765	-0.024	4.3	31
0.0075	-0.063	0.0097	-0.0091	4.5	31
0.0315	-0.0353	-0.0555	0.018	4.3	31
0.0292	0.0052	-0.0728	0.0405	4.3	31
0.0292	0.0525	-0.075	0.0277	4.4	31
0.024	0.0577	-0.048	0.0127	4.4	31
0.0142	0.012	-0.0256	0.0075	4.7	31
-0.0555	0.0015	0.0067	-0.0053	4.3	31
-0.1313	0	0.0292	-0.006	4.7	31
-0.0743	0.009	0.0202	-0.0053	4.5	31
-0.0015	0.0442	0.024	-0.0038	4.8	31
-0.0015	0.0367	0.0097	-0.0068	4.5	31
0.018	-0.0008	0.006	-0.024	4.5	31
0.0052	-0.0105	-0.003	-0.0383	4.5	31
-0.0083	-0.0068	-0.0218	-0.0488	4.5	31
0.0082	-0.0053	-0.0361	-0.0458	4.4	31
0.0127	-0.0068	-0.0375	0.0277	4.8	31
0.0157	-0.0068	-0.027	0.0967	4.5	31
-0.0068	-0.0008	-0.0233	0.039	4.5	31
0.0007	0.0015	-0.012	0	4.6	31
0.0157	-0.0008	-0.0075	-0.0015	4.5	31
0.006	-0.003	-0.006	-0.021	4.7	31
0.0067	-0.0098	-0.0075	-0.003	4.4	31
0.0022	-0.0008	-0.0053	0.009	4.5	31
0.0052	0.0142	-0.0075	0.012	4.5	31
0.0195	0.0255	-0.0068	-0.0105	4.4	31
0.015	0.0285	0.0015	-0.0181	4.7	31
-0.0015	0.0157	0.0015	-0.0083	4.5	31
-0.0068	-0.0046	-0.0015	-0.0046	4.5	31
-0.0046	-0.0293	-0.0091	0.0067	4.6	31
0.0007	-0.0525	-0.0158	0.0052	4.5	31
0.0045	-0.0533	-0.0248	0.0052	4.5	31
0.0097	-0.0503	-0.0346	0.0022	4.7	31
0.0142	-0.0413	-0.0436	-0.0023	4.4	31
0.0187	-0.0053	-0.042	-0.012	4.7	31
0.0225	0.0405	-0.0293	-0.0023	4.2	31
0.018	0.0772	-0.0135	0.009	4.8	31
0.018	0.0352	0.0127	-0.003	4.5	31
0.012	-0.0068	0.0172	-0.0015	4.6	31
-0.0053	0.009	0.0067	0.0007	4.7	31
-0.021	-0.0015	0.003	0.0097	4.5	31
-0.0315	0.0007	0.009	0.0105	4.8	31
-0.0263	0.015	0.0232	-0.0008	4.5	31
-0.039	-0.0068	0.0315	-0.0105	4.6	31
-0.0608	-0.0353	0.051	-0.021	4.6	31
-0.0293	-0.0548	0.0765	-0.012	4.5	31
0.0127	-0.054	0.0855	0.0052	4.6	31
0.0315	-0.0308	0.063	0.021	4.8	31
0.0082	-0.0023	0.0367	0.009	4.6	31
-0.003	0.0052	0.0172	-0.012	4.5	31
0.0015	0.0105	-0.0015	0.003	4.6	31
-0.0015	0.0127	-0.0098	0.0165	4.3	31
0.0165	0.0082	-0.0263	0.012	4.7	31
0.0135	0.015	-0.0383	-0.0008	4.3	31
0.021	0.0127	-0.0488	-0.0068	4.7	31
0.0232	-0.003	-0.054	-0.0091	4.4	31
0.0217	-0.0233	-0.042	-0.0091	4.5	31
0.0157	-0.0293	-0.033	0.0015	4.5	31
-0.0315	-0.0165	-0.0165	0.009	4.5	31
-0.0495	-0.003	0.0037	0.0142	4.6	31
-0.0135	0.0165	0.021	0.0022	4.5	31
0.0075	0.0217	0.024	-0.012	4.5	31
0.0045	0.0232	-0.0008	-0.0068	4.4	31
0.006	0.006	-0.0368	0.0142	4.6	31
-0.0008	-0.0218	-0.057	0.0255	4.3	31
0.0097	-0.0181	-0.0548	0.0097	4.6	31
0.0045	0.0082	-0.042	-0.0098	4.1	31
-0.0015	0.0472	-0.0143	-0.0158	4.5	31
-0.0068	0.042	0.0202	-0.003	4.4	31
-0.012	0.0015	0.0495	0.0015	4.4	31
0.0135	-0.0233	0.075	-0.012	4.5	31
0.0127	-0.021	0.0877	-0.0293	4.2	31
-0.0068	-0.0405	0.072	-0.024	4.6	31
-0.0008	-0.0503	0.036	-0.0008	4.1	31
0.021	-0.0015	0.006	0.0045	4.6	31
0.021	0.03	-0.0113	-0.0008	4.4	31
0.0105	0.0532	-0.012	0.0067	4.5	31
-0.0068	0.0495	-0.0008	0.0202	4.3	31
-0.0188	-0.0128	-0.0015	0.006	4.5	31
-0.0113	-0.0323	-0.0173	-0.0053	4.4	31
-0.0091	-0.0143	-0.0315	-0.0068	4.2	31
-0.0008	-0.027	-0.0533	-0.0165	4.5	31
0.003	-0.0188	-0.0975	-0.0143	4.2	31
0.0015	-0.0015	-0.1178	-0.0098	4.5	31
0.0045	0.009	-0.09	0.0015	4.3	31
-0.0143	0.0105	-0.0518	0.0142	4.5	31
-0.012	0.0067	0.0105	0.0105	4.2	31
0.0127	0.0165	0.0802	-0.0015	4.5	31
0.003	0.0067	0.1215	-0.006	4.3	31
-0.0038	-0.0203	0.1327	-0.0083	4.2	31
-0.0046	-0.0443	0.0982	-0.0128	4.5	31
-0.0113	-0.0098	0.0405	-0.003	4.4	31
0.0007	0.0292	-0.0015	0.015	4.4	31
0.0007	0.0412	-0.0203	0.0165	4.2	31
0.0007	0.0562	-0.0353	0.0045	4.3	31
0.0142	0.018	-0.0353	0.0022	4.2	31
0.012	-0.0511	-0.0225	-0.003	4.5	31
0.003	-0.0923	-0.0128	-0.012	4.2	31
0.003	-0.075	-0.0075	-0.0188	4.4	31
0.0202	-0.0323	-0.027	-0.0218	4.3	31
0.0195	-0.015	-0.0458	-0.0165	4.2	31
-0.0248	-0.006	-0.0465	-0.0173	4.3	31
-0.0593	-0.0083	-0.027	-0.0015	4.1	31
-0.0375	-0.0128	-0.0181	0.0502	4.5	31
-0.0053	-0.0053	-0.0143	0.0682	4	31
0.0045	0.003	0.003	0.0247	4.4	31
0.0082	0.0082	0.0195	0.0097	4.1	31
0.0022	0.0007	0.0367	-0.0038	4.3	31
0.0015	-0.0218	0.051	-0.0233	4.2	31
0.003	-0.0263	0.0465	-0.0315	4.1	31
0.009	-0.0203	0.024	-0.0428	4.1	31
0.0195	-0.0023	0.0067	-0.0315	4.2	31
0.0157	0.039	-0.0053	-0.0113	4.1	31
0.018	0.0705	-0.0083	0.0442	4	31
0.0202	0.054	-0.015	0.0712	4.4	31
0.009	0.0157	-0.0181	0.0337	3.9	31
-0.0068	0.0015	-0.0181	0.0045	4.3	31
-0.021	-0.0083	-0.0256	-0.0008	4	31
-0.0368	-0.0038	-0.0181	0.0037	4.2	31
-0.0405	0.0007	-0.0188	0.003	4.1	31
-0.0091	-0.0105	-0.0143	0.0022	4	31
-0.003	0.0075	-0.0046	0.0015	4.3	31
-0.0165	0.03	0.003	-0.003	4	31
-0.0091	0.018	0.0075	-0.0203	4.2	31
-0.0068	-0.0008	0.0105	-0.0308	4.3	31
0.0067	-0.0173	0.015	-0.0181	4.1	31
0.012	-0.0068	0.0172	-0.0008	4	31
0.012	0.003	0.024	-0.0046	4.2	31
0.018	-0.0113	0.0165	-0.006	4	31
0.012	-0.0098	0.0082	-0.0015	4.3	31
0.0052	-0.0091	-0.003	-0.0083	3.9	31
-0.0015	-0.0053	-0.0158	-0.0015	4.1	31
0.003	-0.0046	-0.0068	0.0037	4	31
0.0082	-0.006	-0.012	0.0037	4.1	31
0.0097	0.0015	-0.0256	0.0022	4.1	31
0.003	0.0015	-0.0323	-0.0068	4	31
-0.0083	-0.0008	-0.0338	-0.012	4.3	31
0.0007	-0.003	-0.0233	-0.0091	4	31
0.0187	-0.0098	-0.0105	-0.0046	4.1	31
0.0142	-0.0195	-0.0053	-0.0023	4.1	31
-0.0046	-0.012	0.0007	0.0022	4	31
-0.0135	0.012	0.0232	0.0045	4	31
-0.0068	0.0097	0.0345	0.0037	4.2	31
-0.003	-0.0023	0.0352	0.0007	4	31
-0.0135	-0.003	0.0135	0.0007	4	31
-0.0023	-0.0083	-0.0158	0.0037	4.3	31
0.0015	-0.0023	-0.0308	0.0112	3.7	31
0.006	0.0015	-0.042	0.0157	4.2	31
0.0292	0.0052	-0.024	0.0067	3.9	31
0.0322	0.0337	0.0052	0.0015	4.1	31
0.018	0.033	0.0315	-0.0015	4	31
-0.0008	-0.0046	0.0487	-0.0105	4	31
0.003	-0.0203	0.054	-0.012	4.1	31
-0.0091	-0.0308	0.057	-0.0046	3.9	31
-0.0578	-0.0263	0.0427	0.0045	4.1	31
-0.0728	-0.0188	0.018	0.0022	4	31
-0.0308	-0.024	0.003	-0.0091	4	31
0.0045	-0.0135	-0.0113	-0.0083	4	31
0.0142	0.0075	-0.0293	-0.0046	4	31
0.0255	0.0187	-0.027	-0.0046	3.8	31
0.0217	0.012	-0.015	-0.0008	4.2	31
0.0255	0.009	-0.0008	-0.0008	3.8	31
0.0195	0.0052	0.0112	-0.0015	4.1	31
0.003	-0.0105	0.0045	-0.0068	3.9	31
-0.0046	-0.0158	-0.0046	-0.0068	4	31
-0.0218	0.0075	-0.003	0.003	4.1	31
-0.048	0.0195	-0.0053	0.0067	3.9	31
-0.0503	0.0105	-0.0143	-0.003	4.3	31
-0.0053	0.0037	-0.0181	-0.0105	3.9	31
-0.0008	-0.0015	-0.012	-0.0068	4.1	31
-0.0068	-0.0181	-0.0083	0.0052	4	31
0.0007	-0.0503	-0.0083	0.0217	4	31
-0.003	-0.0413	-0.0075	0.0195	4	31
0.015	-0.0263	-0.0105	-0.0023	3.9	31
0.024	-0.0181	-0.0165	-0.0113	4	31
0.0232	0.009	-0.0218	-0.015	3.9	31
0.012	0.006	-0.0233	-0.0181	4.2	31
0.0067	-0.003	-0.0181	-0.0075	3.8	31
0.0157	-0.003	-0.0128	0.0217	4.2	31
0.0187	0.0142	-0.0091	0.0367	3.8	31
0.0142	0.0472	-0.0068	0.012	4.1	31
0.0007	0.0532	-0.003	0.0067	3.9	31
-0.0015	0.012	0.0067	-0.003	4	31
-0.0023	-0.0143	0.0195	-0.012	4	31
-0.006	-0.0053	0.0232	-0.003	3.9	31
-0.012	-0.0068	0.018	-0.006	4.2	31
-0.0188	-0.0091	0.0127	0.003	3.8	31
-0.0195	-0.0098	0.0007	0.0082	4	31
-0.003	-0.0075	-0.0135	0.0015	4	31
0.006	-0.0091	-0.0143	-0.0083	4.2	31
0.0052	-0.0068	-0.0083	-0.006	3.9	31
0.015	-0.003	0.0007	0.0037	4.1	31
0.0172	-0.0083	0.0105	0.0097	3.8	31
-0.0053	0.012	0.0165	0.0052	3.9	31
-0.0053	0.0277	0.018	-0.0038	3.9	31
0.0112	0.015	0.0172	-0.0053	3.9	31
-0.0091	-0.0075	0.0127	-0.0015	4.2	31
-0.0091	-0.0203	0.0052	0	3.8	31
-0.0046	-0.0083	-0.006	-0.0023	4.3	31
0.003	-0.0046	-0.0158	-0.0015	3.8	31
0.0075	-0.0083	-0.0218	-0.003	4.2	31
-0.0105	-0.0181	-0.0263	-0.0053	3.9	31
-0.0083	-0.033	-0.0285	-0.003	3.9	31
-0.0083	-0.0203	-0.0195	0.0015	4	31
-0.003	-0.0113	-0.0091	0	3.9	31
0.0067	-0.0068	0	-0.0053	4	31
0.0052	0.0007	0.0112	-0.003	4.1	31
0.0022	-0.0038	0.0157	-0.0053	4.2	31
0.0015	-0.003	0.012	0	3.9	31
0.006	0.0015	0.0015	0.018	4.1	31
0.0052	0.0112	-0.015	0.018	3.9	31
0.0045	0.0217	-0.0346	0.0037	4	31
0.0015	0.0195	-0.0353	0.0015	3.9	31
0.0022	0.0172	-0.0315	0	3.9	31
0.0067	0.0172	-0.027	-0.0015	4	31
0.0105	0.0105	0.0007	0.0007	3.9	31
0.0082	-0.0195	0.0232	0.0007	4.2	31
-0.012	-0.0511	0.0367	-0.0053	3.7	31
-0.015	-0.0503	0.0495	-0.0068	4.1	31
-0.0015	-0.0338	0.063	-0.0008	3.9	31
-0.0008	-0.033	0.0562	-0.0008	4	31
-0.0008	-0.0308	0.024	0	4.1	31
-0.0046	-0.0068	0.0007	-0.0046	4.3	31
0.0015	0.0375	-0.0091	-0.012	3.7	31
0.0202	0.069	-0.015	-0.0173	4.1	31
0.021	0.0165	-0.012	-0.0143	3.9	31
0.0082	-0.0181	0.0015	-0.0015	4	31
-0.0023	-0.0083	0.0127	0.0195	4	31
-0.0068	-0.0203	0.0195	0.0367	4	31
-0.024	-0.012	0.0202	0.0217	4	31
-0.0555	-0.0023	0.0195	0.0045	3.9	31
-0.0495	0.0195	0.0082	0.0037	4	31
-0.0068	0.0345	-0.0046	-0.0046	3.8	31
0.003	0.0232	-0.0053	-0.0038	3.9	31
0.0082	0.0097	-0.0113	-0.003	4.1	31
0.0195	-0.0008	-0.0188	-0.0053	3.9	31
0.0195	-0.0195	-0.0165	-0.0053	3.8	31
0.0187	-0.0428	-0.0143	-0.006	3.9	31
0.0097	-0.0233	-0.0158	-0.0075	4	31
0.015	-0.0128	-0.0158	-0.0105	3.8	31
0.015	-0.0053	-0.0143	-0.0105	4.1	31
0.0045	0.009	-0.0143	-0.0083	3.8	31
-0.0038	-0.0008	-0.0158	0	4	31
0.0067	0.003	-0.0173	0.0067	3.7	31
-0.0015	0.0015	-0.0135	0.0007	4.2	31
-0.0533	0.0015	-0.0091	-0.0046	3.9	31
-0.054	0.0045	-0.0083	0	3.8	31
-0.012	-0.0046	-0.0105	0.0007	3.9	31
0.0015	-0.012	-0.0128	0	3.9	31
0.0007	-0.0091	-0.0195	0.0015	4	31
0.0082	0.0015	-0.0285	-0.0015	3.8	31
0.0097	0.0232	-0.0256	0.0015	3.8	31
0.0097	0.0457	-0.0181	0.0007	3.9	31
0.0127	0.0157	-0.006	-0.0105	3.9	31
0.012	-0.0008	0.0105	-0.0128	3.8	31
0.0052	-0.0015	0.018	-0.0046	4.1	31
0.0007	-0.012	0.0105	-0.0015	3.6	31
0.0067	0.0015	0.0037	0.0045	3.9	31
0.0015	-0.0015	0.0015	0.0067	3.7	31
0.0015	0.0022	-0.0091	-0.0008	3.7	31
0.003	0.0067	-0.0038	-0.0075	3.9	31
-0.0046	0.006	0.009	-0.0046	3.6	31
-0.0098	0.0195	0.027	-0.003	4	31
-0.0008	0.0082	0.0442	-0.0083	3.6	31
0.003	-0.003	0.042	-0.0105	4	31
0.0007	-0.0053	0.0277	-0.0091	3.8	31
0.0037	-0.021	0.015	-0.0053	3.9	31
0.0015	-0.0428	0.0022	-0.0091	3.7	31
0.003	-0.0293	-0.0091	-0.0105	3.9	31
0.0052	-0.0015	-0.0083	-0.003	3.9	31
0.0015	-0.003	-0.0128	0	3.8	31
-0.0015	-0.0023	-0.012	0.021	4	31
-0.003	-0.003	-0.0083	0.06	3.7	31
-0.0008	-0.0015	-0.0105	0.039	4	31
-0.0015	0.0007	-0.0075	-0.0046	3.6	31
-0.0023	0.0007	-0.0053	-0.0046	3.9	31
-0.0008	0.0007	-0.006	-0.0046	3.7	31
0	-0.0046	-0.0128	-0.0015	3.8	31
-0.003	-0.0038	-0.024	-0.0046	3.7	31
-0.0053	-0.0083	-0.0413	-0.0113	3.6	31
-0.0015	-0.0113	-0.045	-0.0113	3.9	31
-0.003	-0.0105	-0.0293	-0.0181	3.6	31
-0.0015	-0.0015	-0.012	-0.0128	3.8	31
0.0067	0.0195	0.0112	0.0202	3.7	31
0.0067	0.0217	0.033	0.0532	3.7	31
0.0022	0.0075	0.0442	0.0277	3.9	31
0.0015	0	0.045	0.0022	3.8	31
0.0015	-0.0046	0.042	0.0045	3.6	31
0.0045	-0.0128	0.0307	-0.0128	3.8	31
0.0067	-0.0165	0.0142	-0.0135	3.7	31
0.009	-0.0195	0.0015	-0.0256	3.6	31
0.0142	-0.0218	-0.0015	-0.0315	3.8	31
0.0067	0.0007	0.003	-0.0181	3.6	31
0.0067	0.0127	0.0015	-0.012	3.9	31
0.0135	0.0045	-0.0008	0.0105	3.6	31
0.0157	0.0105	-0.0098	0.0052	3.7	31
0.0135	0.0067	-0.0181	-0.0135	3.5	31
0.006	-0.0053	-0.0256	-0.0158	3.9	31
0.0067	-0.0278	-0.0398	-0.0046	3.8	31
-0.0165	-0.027	-0.039	0.0135	3.9	31
-0.0706	0.0045	-0.0203	0.0172	3.7	31
-0.0825	0.0052	-0.003	0.003	3.6	31
-0.0195	0.0082	0.0135	-0.0083	3.6	31
0.0052	0.0082	0.0337	-0.0091	3.7	31
-0.0113	0.0045	0.042	-0.0091	3.8	31
0.0045	0.009	0.0345	-0.0053	3.6	31
-0.0038	0.003	0.0202	0.0045	3.8	31
0.0007	-0.0068	0.0187	0.0022	3.6	31
-0.0015	-0.0203	0.0067	0.0052	3.6	31
-0.0091	-0.0135	-0.0165	0.0142	3.6	31
0.003	-0.003	-0.03	0.0045	3.6	31
0.0007	0.006	-0.03	0.0015	3.8	31
0.0067	0.0082	-0.0195	0.003	3.4	31
0.0037	-0.0165	-0.0143	0	3.8	31
0.0052	-0.021	-0.0038	0.0052	3.8	31
0.0105	-0.015	-0.0008	0.012	3.7	31
0.012	-0.0143	0	0.0052	3.6	31
0.0165	-0.0083	0.0052	-0.0105	3.6	31
0.0142	0.0165	0	-0.0128	3.4	31
0.012	0.033	0	-0.0128	3.9	31
0.0007	0.0082	-0.0015	-0.0113	3.5	31
0.0022	0.006	-0.0046	-0.0075	3.6	31
0.0052	0.018	-0.0128	-0.0023	3.5	31
-0.0046	0.0105	-0.0256	-0.012	3.5	31
0	-0.0143	-0.0225	-0.024	3.7	31
0.0045	-0.0353	-0.0091	-0.0158	3.6	31
-0.0046	-0.021	0.0172	-0.0083	3.6	31
-0.0105	-0.0053	0.036	0.0217	3.4	31
-0.0053	0.0232	0.0397	0.0577	3.6	31
0	0.039	0.0277	0.0277	3.5	31
0.0067	0.0142	0.0157	-0.0143	3.5	31
0.0007	-0.0046	0.015	-0.0188	3.6	31
-0.0075	-0.0098	0.003	-0.0181	3.6	31
-0.0046	-0.0068	-0.0068	-0.0038	3.5	31
-0.0046	-0.0105	-0.0083	0.0195	3.6	31
-0.0038	-0.0128	-0.0068	0.0405	3.6	31
-0.0015	-0.0128	-0.0068	0.0217	3.4	31
-0.0008	-0.0105	-0.0075	-0.0128	3.6	31
0.0015	-0.0068	-0.0105	-0.0158	3.4	31
0.0007	-0.0075	-0.0128	-0.0353	3.5	31
0.0007	-0.0046	-0.012	-0.06	3.3	31
0.0007	-0.0068	-0.0105	-0.0105	3.6	31
0.003	-0.006	-0.0068	0.0907	3.4	31
0.0037	-0.003	-0.0038	0.105	3.5	31
0.003	-0.0038	-0.003	0.024	3.5	31
0.0015	-0.003	-0.0046	-0.0091	3.5	31
0.0022	-0.0023	-0.006	-0.0083	3.4	31
0.0022	-0.0038	-0.006	-0.0158	3.4	31
0.0015	-0.0046	-0.0023	-0.0075	3.4	31
0.003	-0.0038	-0.0008	-0.0091	3.3	31
0.0015	-0.0046	-0.0015	-0.0091	3.7	31
-0.0008	-0.0023	-0.0015	-0.0181	3.1	31
-0.0015	0.0007	-0.0008	-0.0248	3.6	31
-0.0008	0.0045	-0.0015	-0.0165	3.2	31
-0.0008	0.0045	-0.0053	-0.0083	3.5	31
0.0045	0.0045	-0.0053	-0.003	3.5	31
0.0082	0.0052	-0.0053	-0.0083	3.3	31
0.0067	0.0045	-0.0046	-0.0113	3.5	31
0.0075	0	-0.003	-0.048	3.1	31
0.006	-0.0083	-0.0008	-0.0645	3.6	31
0.0015	-0.0046	0.003	0.0217	3.2	31
-0.003	-0.003	0.0022	0.075	3.5	31
-0.0105	-0.0038	0.003	0.0285	3.3	31
-0.0218	-0.003	0.0045	-0.0428	3.3	31
-0.027	-0.0038	0.0067	-0.0668	3.3	31
-0.0091	-0.0023	0.009	-0.012	3.3	31
-0.0015	-0.0038	0.0075	0.0367	3.4	31
0.0007	-0.003	0.0022	0.0277	3.3	31
0.0067	-0.0083	-0.0008	-0.0105	3.4	31
0.003	-0.012	-0.0008	-0.045	3.3	31
0.003	-0.0053	0.0015	-0.0023	3.6	31
0.003	-0.003	0.003	0.048	3.1	31
0.0007	-0.0053	0.0052	0.0555	3.5	31
0.0015	-0.0038	0.0045	0.0615	3.2	31
0.0007	-0.0015	-0.003	0.0345	3.2	31
0.0007	0.003	-0.0165	0.0195	3.2	31
0.0007	0.009	-0.0248	0.0105	3.3	31
0.0022	0.0135	-0.0203	-0.0188	3.5	31
0	0.0127	-0.0195	-0.0203	3.2	31
-0.0015	0.012	-0.024	-0.0068	3.2	31
0.003	0.0105	-0.0248	0.0202	3.3	31
0.0112	0.0037	-0.0165	0.0195	3.1	31
0.0142	-0.0158	0.0022	-0.0143	3.1	31
0.0112	-0.0165	0.018	-0.0398	3.2	31
0.0172	0.0015	0.0307	-0.0353	3.2	31
0.0195	-0.0023	0.042	0.006	3.3	31
0.012	-0.006	0.042	0.012	3.3	31
-0.003	-0.012	0.0352	-0.0105	3.2	31
-0.0128	-0.0233	0.027	0.0067	3.2	31
-0.0165	-0.027	0.0165	0.0277	3.1	31
-0.0361	-0.0256	-0.0038	0.0105	3.2	31
-0.0653	-0.0046	-0.0203	-0.0105	3	31
-0.0525	0.0127	-0.027	-0.0346	3.3	31
0.0067	0.0277	-0.03	-0.0405	2.9	31
0.0307	0.0367	-0.027	-0.0248	3.1	31
0.0277	0.003	-0.0143	-0.0113	3.1	31
0.0082	-0.0278	-0.0046	0.0045	3.2	31
-0.0165	-0.027	0	0.0007	3.1	31
-0.0068	-0.0203	0.0015	-0.003	3.4	31
-0.0068	-0.0075	0.006	-0.0015	3	31
-0.003	0.0037	0.009	-0.0091	3.2	31
-0.0015	0.009	0.0082	-0.0068	3	31
-0.0015	0.0105	0.0015	-0.0038	3.2	31
0.0022	0.0037	-0.0023	0.0082	3.1	31
0.0007	0.0045	-0.006	0.0202	3	31
0.003	0.0052	-0.006	-0.0015	3.2	31
-0.0023	-0.0015	-0.0068	-0.0158	3	31
-0.0008	-0.0083	-0.0083	-0.033	3.1	31
0.0045	-0.003	-0.0038	-0.0555	3	31
0.0052	0.0007	-0.0015	-0.0383	3	31
0.009	-0.003	0.0007	-0.033	3	31
0.012	-0.0053	0.0067	-0.0046	3	31
0.0112	-0.006	0.006	-0.0015	3	31
0.0067	-0.0105	-0.0008	-0.0555	3.1	31
0.0052	-0.0293	-0.0083	-0.0555	2.8	31
0.0015	-0.0346	-0.0128	-0.0158	3	31
-0.0008	-0.0181	-0.0105	0.075	2.9	31
0.0015	0.0135	-0.0098	0.1455	3	31
-0.0083	0.0465	-0.0113	0.108	3.2	31
-0.0233	0.0397	-0.0083	0.0352	2.8	31
-0.012	0.0195	-0.0008	0.0082	3.1	31
-0.0008	0.0082	0.0082	0.0502	2.8	31
-0.0038	-0.0015	0.0045	0.0682	3.3	31
0.0015	0.0015	-0.0023	0.0195	2.8	31
0.0045	0.0045	-0.006	0.003	3	31
0.0067	-0.0038	-0.0015	-0.0015	3	31
0.0082	-0.0188	0.009	-0.0203	2.9	31
0.0045	-0.0113	0.018	-0.0256	2.8	31
0.0037	-0.0046	0.0232	-0.045	2.7	31
0.003	-0.0091	0.018	-0.0293	2.9	31
0.003	-0.0038	0.0105	0.0052	2.7	31
-0.0008	-0.0046	0.0075	-0.0068	3.1	31
0	0.0097	0.0022	-0.0181	2.6	31
-0.0008	0.0082	-0.0083	-0.0008	3	31
-0.0015	-0.006	-0.0105	0.0232	2.6	31
0.0007	-0.0068	-0.0083	0.027	2.8	31
-0.0008	-0.0091	-0.0053	-0.0091	2.7	31
0	-0.0113	-0.0068	-0.024	2.7	31
0.0007	-0.0068	-0.0068	-0.0105	3	31
0	-0.006	-0.0068	-0.0181	2.6	31
0.0015	-0.006	-0.0068	-0.0225	3	31
-0.0008	-0.0046	-0.0053	0.0067	2.6	31
-0.003	-0.0046	-0.0083	0.0127	2.7	31
-0.003	-0.0046	-0.0083	-0.0105	2.9	31
-0.0023	-0.0046	-0.0083	-0.033	2.7	31
-0.0008	-0.0023	-0.0068	-0.0488	2.5	31
-0.0023	-0.003	-0.0023	-0.0495	2.8	31
-0.0015	-0.0023	-0.0008	-0.054	2.6	31
-0.0015	-0.0053	-0.0008	0.018	2.7	31
-0.003	-0.0053	0	0.0802	2.7	31
-0.0008	-0.0008	0.003	0.0577	2.5	31
0.0007	-0.0008	0.0052	0.042	2.8	31
0.0007	0	0.003	-0.0256	2.4	31
-0.0008	0.0007	0.003	-0.063	2.7	31
0.0007	0.0007	0.003	-0.0203	2.3	31
0.0015	0	-0.0015	-0.0158	2.5	31
-0.0008	-0.0008	-0.0105	-0.015	2.4	31
0	-0.0008	-0.0195	-0.0046	2.5	31
0	0.0007	-0.0203	0.009	2.4	31
0.0007	0	-0.0158	-0.003	2.5	31
0.0015	-0.0015	-0.0091	0.0165	2.4	31
0.0007	-0.0015	0.003	0.0517	2.6	31
-0.0008	0	0.0127	0.0292	2.6	31
-0.0015	0.0015	0.0225	0.0532	2.5	31
-0.0015	0.0015	0.0262	0.0292	2.6	31
-0.0015	-0.0008	0.0255	-0.0293	2.4	31
-0.0015	-0.003	0.018	-0.0428	2.6	31
-0.0023	-0.0023	-0.003	-0.0473	2.3	31
-0.0023	-0.0008	-0.0203	-0.0075	2.4	31
-0.0015	0.003	-0.0225	0.0172	2.5	31
-0.0046	0.0037	-0.0143	0.0052	2.2	31
-0.0023	0.0052	-0.0053	0.0045	2.4	31
0	0.0052	0.0052	0.009	2.2	31
0.0007	0.0007	0.0127	0.0007	2.5	31
0.0015	-0.0015	0.018	-0.0105	2.2	31
0.0015	-0.0083	0.0142	-0.0225	2.4	31
0.003	-0.0105	0.009	-0.0278	2.4	31
0.0015	-0.0053	0.0052	0.0015	2.5	31
0.0007	-0.0143	-0.003	0.0652	2.1	31
0	-0.0233	-0.0083	0.0495	2.4	31
0.0022	-0.0098	-0.0068	0.0007	2.2	31
0.0082	-0.0015	-0.0091	-0.0046	2.4	31
0.0142	0.0007	-0.0203	-0.027	2.2	31
0.0262	0.0052	-0.0218	-0.024	2.1	31
0.0315	0.0067	-0.0143	-0.0181	2.1	31
0.0195	0.0067	-0.0098	0.0052	2	31
0.0052	0.0052	-0.0015	0.012	2.4	31
0.0037	0.0082	0.009	0.0007	2.1	31
0.003	0.006	0.0187	0.021	2.2	31
-0.0158	0.003	0.0195	0	2.3	31
-0.054	-0.0053	0.0195	-0.0203	2.2	31
-0.0653	-0.0135	0.0195	-0.0046	2.1	31
-0.0346	-0.0105	0.0172	0.0165	1.9	31
-0.0105	-0.0135	0.009	0.0352	2	31
-0.0023	-0.0075	0.0007	0.0292	2	31
0.0022	-0.0053	-0.006	0.0015	2.2	31
0.0007	-0.0188	-0.012	-0.057	1.8	31
-0.0008	-0.0203	-0.0053	-0.0795	2.2	31
0	-0.0165	-0.0015	-0.0218	1.8	31
0.0007	-0.0143	-0.006	-0.0105	2.2	31
0.003	-0.0046	-0.0083	0.0165	1.8	31
0.003	0.003	-0.0091	0.0277	2.1	31
0.0022	0.0045	-0.0113	-0.0315	1.8	31
0.0015	0.0052	-0.0091	-0.012	2	31
0.0037	0.0052	-0.0083	0.0495	2.3	31
0.006	0.0052	-0.0098	0.0645	1.8	31
0.009	0.0105	-0.0083	0.0007	2	31
0.012	0.009	-0.0008	-0.0248	1.8	31
0.0112	0.009	0.003	-0.0181	1.8	31
0.0045	0.0127	0.0015	-0.0158	1.6	31
0.0007	0.0045	-0.003	0.0255	2.1	31
0.0015	0	-0.0068	0.042	1.8	31
-0.0015	-0.0008	-0.0083	0.0247	1.9	31
-0.003	-0.0053	-0.0068	-0.0046	1.6	31
-0.0046	-0.0068	-0.0046	-0.0098	1.8	31
-0.0038	-0.0075	-0.003	-0.0203	1.6	31
-0.0046	-0.0053	-0.0046	-0.0195	1.5	31
-0.0053	-0.0008	-0.0046	-0.0075	1.8	31
-0.0038	0.0007	-0.006	0.009	1.5	31
-0.003	-0.0015	-0.003	0.0075	1.7	31
0.0007	-0.0015	-0.0038	-0.0113	1.3	31
-0.0008	-0.0053	-0.006	-0.0098	1.7	31
-0.0046	-0.0083	-0.0068	-0.0346	1.5	31
-0.003	-0.0083	-0.0091	-0.0405	1.5	31
-0.0023	-0.0068	-0.0158	-0.0181	1.4	31
-0.0023	-0.0046	-0.0173	0.0202	1.6	31
-0.0038	-0.003	-0.0091	0.0142	1.5	31
0	0.0022	0	-0.0158	1.5	31
0.0067	0.0082	0.009	0.0082	1.5	31
0.009	0.0082	0.0195	0.0495	1.2	31
0.0097	0.0067	0.0262	0.078	1.6	31
0.0067	-0.0008	0.021	0.006	1	31
0.0045	-0.0075	0.0105	-0.0465	1.5	31
0.0045	-0.0068	0.0127	-0.0068	1.3	31
0.0045	-0.0083	0.0075	0.0112	1.5	31
0.0015	-0.0075	0.0052	0.0127	1.2	31
-0.0143	-0.0046	0.0105	-0.012	1.3	31
-0.0218	0.003	0.015	-0.006	1.3	31
-0.0091	0.009	0.018	0.0112	1.3	31
0	0.0045	0.012	0.0007	1.2	31
0.0022	0.0015	0.0105	-0.0195	1.3	31
0.0052	0.003	0.0045	-0.0285	1.2	31
0.003	0.0007	-0.0075	0.0112	1	31
-0.0008	-0.0053	-0.0128	0.0577	1.2	31
-0.003	-0.0143	-0.0143	0.0825	0.9	31
-0.003	-0.0165	-0.0135	0.0465	1.3	31
0.0015	-0.0015	-0.015	-0.0083	1	31
0.0052	0.003	-0.0218	-0.0593	1	31
0.0067	-0.0083	-0.033	-0.0765	1	31
0.0075	-0.0091	-0.0361	-0.0405	0.9	31
0.0067	-0.0008	-0.0278	-0.0278	1.1	31
0.0112	0.0067	-0.0233	0	0.8	31
0.024	0.0165	-0.0203	0.0067	1.1	31
0.0262	0.0202	-0.0053	-0.048	0.9	31
0.0127	0.003	0.0097	-0.0645	1	31
0.0067	-0.006	0.0225	-0.0053	0.7	31
0	0.0007	0.0375	0.0832	0.9	31
-0.0091	-0.0046	0.0442	0.1087	0.7	31
-0.0173	-0.0038	0.0412	0.0315	1	31
-0.0368	0.0052	0.033	-0.0323	0.7	31
-0.0533	-0.0008	0.0262	-0.033	0.9	31
-0.0361	-0.012	0.0135	-0.0075	0.7	31
-0.0105	-0.0256	0.003	0.0397	0.9	31
-0.012	-0.0315	-0.0046	0.033	0.7	31
-0.006	-0.027	-0.0091	-0.0068	0.7	31
0	-0.0225	-0.012	-0.0083	0.8	31
0.0067	-0.006	-0.0181	-0.0015	0.7	31
0.0127	0.0015	-0.0165	-0.0053	0.6	31
0.009	0.0015	-0.0158	-0.0015	0.7	31
0.0067	0.0067	-0.0091	0.0105	0.4	31
0.0015	0.0037	-0.0053	0.0075	0.4	31
0.0045	0.0007	-0.0046	-0.0263	0.5	31
0.0067	-0.006	-0.0008	-0.0413	0.5	31
0.0112	-0.0053	-0.003	-0.0075	0.6	31
0.0105	-0.0053	-0.003	-0.0105	0.4	31
0.0037	-0.0046	-0.0008	-0.0218	0.4	31
0.0052	0.0052	-0.003	-0.0046	0.7	31
0.0037	0.0052	-0.0046	0.0075	0.4	31
0.003	0.0015	-0.0068	0.0067	0.7	31
0	0	-0.0098	-0.0256	0.2	31
-0.0015	-0.0038	-0.0083	-0.0488	0.5	31
0	-0.003	-0.0075	-0.0375	0.2	31
0.0022	0.0007	-0.0091	0.0285	0.5	31
0.003	-0.0038	-0.0128	0.0495	0.3	31
0.0015	-0.003	-0.0158	0.0217	0.3	31
0.0015	0.009	-0.0105	0.0097	0.3	31
-0.0015	0.0082	-0.0091	-0.0293	0.1	31
-0.0015	0.0067	-0.0023	-0.0083	0.2	31
0	0.0142	0.009	0.024	0.3	31
0.0007	0.018	0.015	0.0217	0.4	31
-0.0046	0.0165	0.0127	0.0045	0.1	31
-0.0165	0.0105	-0.0023	-0.0098	0.4	31
-0.0098	0.0022	-0.0091	0.0037	0.1	31
0.0007	-0.0105	-0.0075	0.0037	0.1	31
-0.0015	-0.0233	-0.0083	0.0157	0.2	31
-0.0008	-0.027	-0.0008	0.003	0.1	31
-0.0046	-0.0203	0.018	-0.0075	0.2	31
-0.0053	-0.0135	0.0307	-0.024	0	31
-0.0023	-0.0083	0.0315	-0.0278	0.3	31
0.0067	-0.0046	0.024	0.0277	-0.2	31
0.0082	0	0.015	0.0165	0.2	31
0.0082	0.0052	0.0007	-0.0503	0.1	31
0.0097	-0.0046	-0.0083	-0.0293	0	31
0.0045	-0.006	-0.0091	0.0165	0.1	31
0.006	0.0045	-0.0105	0.0375	0	31
0.009	0.009	-0.0068	0.0292	0	31
0.0067	-0.003	-0.006	0.0007	-0.2	31
0	-0.003	-0.0046	-0.0008	0.1	31
-0.0046	-0.0105	0.0007	-0.0128	-0.2	31
-0.0158	-0.0278	0.0022	-0.033	0.2	31
-0.0188	-0.0091	-0.0083	-0.0818	-0.3	31
-0.012	-0.0068	-0.0158	-0.1043	0.3	31
-0.0105	-0.0083	-0.012	-0.0256	-0.3	31
-0.003	0.0007	-0.0105	0.126	0.1	31
0.006	0.0015	-0.0068	0.141	0	31
0.0157	0.0067	-0.0046	0.015	0	31
0.0195	-0.003	-0.0053	0.0142	-0.1	31
0.0142	-0.0053	-0.0046	0.033	0	31
0.009	0.003	-0.0038	0.0007	-0.1	31
-0.0008	0.0045	-0.0053	0.0082	-0.1	31
-0.0083	-0.0015	-0.0046	0.0202	-0.1	31
-0.0181	-0.003	-0.0098	0.0052	-0.2	31
-0.0353	-0.0068	-0.0195	-0.0113	0.1	31
-0.045	-0.0098	-0.0203	-0.006	-0.1	31
-0.0195	0.0007	-0.0181	-0.0143	-0.1	31
0.0022	-0.0038	-0.0158	-0.0225	-0.2	31
0.0007	-0.0046	-0.0053	-0.0383	-0.2	31
0.0097	-0.0053	0.0052	-0.0346	-0.1	31
0.0142	-0.0113	0.0172	0.0007	-0.2	31
0.018	0.003	0.024	0.018	0.1	31
0.0165	0.012	0.024	-0.024	-0.4	31
0.0067	0.0082	0.0225	-0.057	0.1	31
0.0082	0.0067	0.024	0.0127	-0.2	31
0.006	-0.0015	0.0277	0.072	0	31
-0.0046	-0.0091	0.0307	0.0307	0	31
-0.015	-0.006	0.0232	-0.0075	0	31
-0.015	-0.0008	0.0045	0.0082	-0.1	31
-0.0053	0.003	-0.0053	-0.0053	0.1	31
-0.0046	-0.0046	-0.012	-0.033	-0.3	31
-0.003	-0.0083	-0.0181	-0.0383	0	31
0.0015	-0.0091	-0.0158	-0.0405	0	31
0.0022	-0.0008	-0.0135	-0.0158	0	31
0.0067	0.0022	-0.0105	0.0157	0.2	31
0.003	-0.012	-0.0075	0.0375	-0.1	31
0.0015	-0.0083	-0.0068	0.036	0	31
0.003	-0.0015	-0.0113	0.027	-0.1	31
0.0007	-0.0015	-0.0218	-0.003	-0.2	31
0.003	-0.0008	-0.027	-0.0465	0	31
0.0007	-0.0038	-0.0218	-0.0218	-0.2	31
0.0007	-0.003	-0.0128	0.0172	-0.1	31
0.0052	0.0007	-0.003	0.0202	-0.2	31
0.003	-0.0053	0.009	0.0172	0.1	31
0	-0.0128	0.015	-0.0195	0	31
0.0015	-0.0053	0.0202	-0.0863	0.1	31
0.0052	0.0045	0.0217	-0.0825	-0.2	31
0.0007	0.009	0.0232	-0.0053	0.2	31
-0.0038	0.0127	0.0217	0.063	-0.1	31
-0.0038	0.0195	0.0112	0.0585	0.2	31
-0.003	0.0195	0.0007	-0.0105	0.1	31
-0.0023	0.0097	-0.0053	-0.0278	0	31
-0.0015	-0.0008	-0.0113	0.0037	0.1	31
-0.003	-0.003	-0.0188	0.0052	0	31
-0.0053	-0.0046	-0.0293	0.0037	0.2	31
-0.0015	-0.006	-0.0353	0.0052	-0.1	31
0.0022	-0.0083	-0.0315	0.0015	0.1	31
0.0037	-0.0068	-0.0195	-0.003	0	31
0.006	0.0045	0.0015	0.0172	0	31
0.0082	0.0127	0.0172	0.009	0	31
0.0045	0.0052	0.0307	-0.0046	0.1	31
-0.0008	-0.0068	0.0352	0.033	-0.2	31
-0.003	-0.012	0.0345	0.0007	0.1	31
-0.0023	-0.0128	0.0315	0.0007	0	31
0	-0.0083	0.0165	0.0247	0	31
-0.0008	-0.0143	-0.0008	0.018	0.3	31
-0.0008	-0.0195	-0.0135	0.015	0	31
0	-0.0105	-0.0143	-0.003	0.4	31
-0.0008	0.0022	-0.0098	-0.0023	-0.1	31
-0.0046	0.0105	-0.0083	-0.0083	0.3	31
-0.006	0.0127	-0.0075	-0.0098	0	31
-0.0046	0.0082	-0.0105	-0.0195	0.1	31
-0.0038	0.0067	-0.0075	0.0007	0.2	31
0	0.0097	-0.0053	0.0232	0.2	31
-0.0008	0.0045	-0.0068	0.0015	0.1	31
0.003	0	-0.0083	-0.024	0.1	31
0.009	-0.003	-0.0083	-0.0458	0.1	31
0.0135	-0.0203	-0.0053	-0.0368	0.1	31
0.0127	-0.0293	-0.0015	0.0202	0.3	31
0.0015	-0.0225	0.0015	0.075	0	31
-0.0053	-0.0225	0.0015	0.0487	0.3	31
-0.0053	-0.0165	0.0007	0.0007	0	31
-0.0008	-0.0068	-0.003	-0.0143	0.4	31
-0.0015	-0.0046	-0.0038	-0.0195	0.1	31
-0.012	0	-0.0053	-0.015	0.1	31
-0.015	-0.0008	-0.0068	-0.0181	0.3	31
0.0007	-0.0046	-0.0105	-0.0248	0	31
0.0157	-0.0046	-0.0203	-0.027	0.4	31
0.012	0.0082	-0.0293	-0.0128	-0.1	31
0.009	0.009	-0.0233	0.015	0.1	31
0.0015	0.0082	-0.0091	0.0292	0.4	31
-0.0015	0.021	-0.0008	0.0225	0.2	31
-0.0015	0.0165	0.009	-0.0098	0.1	31
-0.0135	0.0067	0.0232	-0.0465	0.3	31
-0.03	-0.0105	0.0345	-0.057	0.1	31
-0.0473	-0.0315	0.0307	0.0097	0.3	31
-0.0263	-0.0278	0.0247	0.0817	0.4	31
0.0015	-0.0113	0.0157	0.0547	0	31
0.0015	-0.0046	0.003	-0.0038	0.4	31
0.018	0.0052	-0.0091	0.0112	0	31
0.0225	0.0277	-0.012	0.0435	0.4	31
0.0157	0.0255	-0.0015	0.0067	0	31
0.0105	0.0127	0.0045	-0.0368	0.2	31
0.003	0.012	0.009	-0.0593	0.1	31
-0.0008	-0.0046	0.0105	-0.0706	0.2	31
-0.0105	-0.0165	0.0067	-0.0728	0.1	31
-0.0091	-0.0105	0.0015	-0.0008	0.3	31
-0.0015	-0.0105	-0.0015	0.1222	0.3	31
0.0045	-0.003	-0.0068	0.111	0.1	31
0.0052	-0.0015	-0.0113	0.015	0.3	31
0.0022	-0.0046	-0.0083	-0.0233	0.1	31
0.0022	-0.0008	-0.0068	-0.0218	0.3	31
0.003	0.0007	-0.0068	-0.0068	0.1	31
0.003	0.0015	-0.0053	0.0157	0.4	31
-0.0008	-0.0068	-0.0046	0.0082	0.2	31
0.0007	-0.0068	-0.0053	-0.0105	0	31
-0.0015	-0.0053	-0.006	0.0022	0.4	31
-0.0023	-0.003	-0.0053	0.0142	0	31
-0.003	-0.0008	-0.0053	0.0345	0.4	31
-0.0053	-0.0053	-0.0083	0.0262	0.1	31
-0.0015	-0.003	-0.0091	-0.0203	0.2	31
-0.0008	-0.0046	-0.0068	-0.0218	0.1	31
0	-0.0046	-0.0053	-0.0443	0.1	31
-0.0015	-0.0046	-0.0068	-0.0721	0.1	31
-0.003	-0.003	-0.0143	-0.066	0.3	31
-0.003	0.0007	-0.0218	-0.0465	0.1	31
-0.003	-0.0023	-0.0195	-0.0015	0.4	31
-0.003	-0.0023	-0.0105	-0.0143	0.2	31
-0.003	0.0015	-0.0023	-0.0338	0.2	31
0.0007	-0.0008	0.0097	-0.0158	0.4	31
0.003	-0.0046	0.0195	-0.0015	0.1	31
0.0067	-0.0053	0.024	0.0105	0.4	31
0.006	-0.0015	0.0225	0.018	0.1	31
0.009	0.003	0.0157	0.0262	0.2	31
0.0112	0.0022	0.0097	0.0037	0.3	31
0.0105	0.0082	0.0007	-0.0008	0.1	31
0.0112	0.0202	-0.0053	0.0007	0.4	31
0.0022	0.0217	-0.0015	0.0015	0.4	31
-0.0105	0.003	0.0037	0.012	0.1	31
-0.0256	-0.0165	0.0067	0.0075	0.3	31
-0.0278	-0.0203	0.0075	0.0142	0.1	31
-0.012	-0.015	0.0045	0.0015	0	31
-0.0053	-0.0143	-0.0008	-0.003	0.5	31
-0.006	-0.0143	-0.0008	0.0105	0	31
-0.0008	0	-0.0008	0.0195	0.4	31
0.0007	0.0022	-0.0046	0.0202	0.1	31
0.0022	-0.003	-0.006	0.0127	0.2	31
0.0052	0.0067	-0.0023	0.024	0.2	31
0.0067	0.003	-0.0023	0.0217	0.1	31
0.006	0.0045	-0.0023	0.0127	0.3	31
0.0037	0.006	0.0052	-0.0091	0.1	31
0.0007	-0.003	0.0127	-0.0218	0.4	31
-0.0038	-0.0008	0.0142	-0.015	0.3	31
-0.0053	-0.0046	0.0045	-0.0128	0.3	31
-0.0023	-0.0075	-0.0008	-0.0038	0.3	31
0	0	-0.0015	-0.03	0.3	31
-0.0008	0.0045	-0.0046	-0.0346	0	31
-0.0008	0.0067	-0.0113	0.024	0.4	31
0.009	0.0165	-0.021	0.0555	0.1	31
0.024	0.0142	-0.0263	0.027	0.3	31
0.0315	-0.0075	-0.021	0.0015	0.3	31
0.024	-0.0158	-0.0143	-0.0015	0.1	31
0.0105	-0.0113	-0.0053	-0.0113	0.4	31
0.0007	-0.0105	0.0045	-0.0256	0	31
-0.0038	-0.0098	0.012	-0.0428	0.4	31
-0.0053	-0.0015	0.0112	-0.0436	0.1	31
-0.012	0.0082	0.0007	-0.027	0.4	31
-0.0308	0.006	-0.0015	0.0045	0.1	31
-0.0443	0.0045	-0.003	0.0067	0.1	31
-0.0218	-0.0046	-0.006	-0.0256	0.1	31
-0.0015	-0.003	0.003	0.0112	0.1	31
-0.0053	0.0022	0.0105	0.1125	0.2	31
0	-0.0091	0.0135	0.132	0.2	31
-0.0008	-0.0105	0.0172	0.0615	0.4	31
-0.0015	-0.027	0.012	-0.006	0	31
0.0045	-0.0278	0.0007	-0.0278	0.4	31
0.0082	-0.0091	-0.0098	-0.0128	0	31
0.006	0.0015	-0.0181	-0.0075	0.4	31
-0.0023	0.0187	-0.0128	-0.0075	0.1	31
-0.0023	0.0262	-0.0068	-0.0068	0.3	31
-0.003	0.0202	-0.0008	-0.0128	0.2	31
-0.0038	0.003	-0.0015	-0.0195	0	31
-0.0008	-0.0046	-0.0105	-0.0285	0.4	31
-0.0008	-0.0098	-0.0181	-0.0315	-0.1	31
0.0007	-0.0083	-0.0218	-0.0203	0.1	31
0.0022	0.0007	-0.0128	-0.0046	0	31
0.0045	-0.003	-0.0015	0.0015	0.1	31
0.0045	0.0037	0.0075	-0.0023	0.1	31
0.0007	0.0052	0.0142	-0.0038	0.4	31
0.0015	0.0037	0.0127	-0.0008	-0.1	31
0.0015	-0.0015	0.0045	-0.0135	0.1	31
0.0037	-0.0203	-0.012	-0.0218	0	31
0.0082	-0.0218	-0.0233	-0.0195	0.1	31
0.003	-0.0075	-0.0233	0.0052	0.1	31
-0.0105	-0.0015	-0.0173	0.039	-0.2	31
-0.0165	0	-0.0015	0.0502	0.4	31
-0.0113	-0.0015	0.0157	0.0367	-0.1	31
-0.0046	-0.003	0.0232	-0.0353	0.2	31
-0.0015	-0.0015	0.0255	-0.0691	-0.2	31
-0.0015	-0.0068	0.0232	-0.021	0.2	31
-0.0015	-0.012	0.018	-0.0203	-0.1	31
0.0022	-0.0075	0.0142	-0.021	0	31
0.003	-0.003	0.0052	0.0195	-0.1	31
0.0037	-0.0008	-0.0015	-0.0053	0	31
0.009	-0.0008	-0.0015	-0.0465	-0.1	31
0.0097	0.0015	-0.0053	-0.0256	0	31
0.0112	-0.0015	-0.0083	-0.003	0	31
0.0097	-0.0181	-0.0105	0.0015	-0.2	31
0.0082	-0.0263	-0.015	0.0112	0.1	31
0.0045	-0.0233	-0.012	0.0127	-0.2	31
-0.0023	-0.012	-0.0105	0.0135	0.1	31
-0.0046	0.0127	-0.0098	0.0015	-0.2	31
-0.0023	0.0307	-0.0075	-0.0083	-0.2	31
-0.0015	0.0225	-0.0046	-0.0046	0	31
-0.003	0.012	-0.003	-0.0405	-0.2	31
-0.0068	0.0022	-0.0046	-0.1125	0	31
-0.0075	-0.0023	-0.0046	-0.0908	-0.3	31
-0.0046	0.003	-0.0046	0.033	0	31
-0.003	0.003	-0.003	0.1762	-0.1	31
-0.0008	0.0082	-0.0023	0.198	-0.1	31
0.0015	0.003	-0.0015	0.075	-0.4	31
0.0067	0.0007	0.003	-0.0105	0	31
0.0075	-0.0038	0.0052	-0.033	-0.4	31
0.0037	-0.0203	0.003	0.0277	-0.1	31
0.0015	-0.0263	0.0007	0.0592	-0.1	31
-0.0015	-0.0203	0	0.0045	-0.3	31
-0.0015	-0.0075	-0.0008	-0.03	-0.1	31
-0.0015	-0.0046	-0.0046	-0.024	-0.3	31
0.0007	-0.012	-0.015	0.003	-0.1	31
0	-0.0158	-0.0158	0.003	-0.3	31
0.0045	-0.0083	-0.0105	0.0045	-0.2	31
0.0127	-0.0046	-0.0105	0.0015	-0.2	31
0.012	-0.006	-0.0046	-0.0091	-0.3	31
0.0082	-0.0053	0.0007	-0.0165	-0.2	31
0.0037	-0.0075	0.0015	-0.0608	-0.3	31
0.003	-0.003	-0.006	-0.0578	-0.3	31
-0.0038	0.0067	-0.0083	0.0135	-0.2	31
-0.0135	0.0112	0.0015	0.0487	-0.1	31
-0.0203	0.0135	0.006	0.024	-0.5	31
-0.033	0.0247	0.0142	-0.0083	0	31
-0.0158	0.0292	0.0232	-0.0128	-0.5	31
0.0157	0.0202	0.0322	-0.0158	-0.3	31
0.0142	0.006	0.0367	-0.0165	-0.5	31
-0.0008	-0.0203	0.039	-0.0098	-0.4	31
-0.006	-0.027	0.0315	-0.0135	-0.4	31
-0.0015	-0.0091	0.0127	-0.0083	-0.5	31
-0.0053	0.0067	-0.0008	-0.0046	-0.4	31
-0.0083	0.0142	-0.0083	-0.0046	-0.5	31
-0.0113	0.003	-0.012	-0.0038	-0.4	31
-0.021	-0.0046	-0.0135	0.0007	-0.4	31
-0.0158	-0.0068	-0.0128	0.0015	-0.5	31
-0.0008	-0.0083	-0.0113	-0.0015	-0.3	31
0.0045	-0.0091	-0.0091	-0.0015	-0.2	31
0.0075	-0.0113	-0.0083	0.0022	-0.5	31
0.012	-0.0068	-0.0068	0.003	-0.5	31
0.006	-0.003	-0.0046	-0.0128	-0.4	31
0.0067	0.0045	-0.0083	-0.0293	-0.8	31
0.0067	0.0037	-0.0105	-0.0203	-0.2	31
0.0067	-0.003	-0.0113	0.0157	-0.8	31
0.0097	-0.0053	-0.0091	0.0412	-0.4	31
0.0045	-0.0098	-0.0053	0.018	-0.7	31
0.003	-0.0098	-0.0053	0.0052	-0.5	31
0.0007	-0.0046	-0.003	-0.003	-0.5	31
-0.0008	0.0015	-0.0053	-0.0046	-0.6	31
0.0015	0.0007	-0.0128	0.0172	-0.6	31
0	-0.0053	-0.0233	0.0022	-0.6	31
-0.0015	-0.0053	-0.0263	-0.0203	-0.5	31
-0.0015	-0.012	-0.0165	-0.0353	-0.6	31
0	-0.0143	-0.0128	-0.0203	-0.4	31
0.0022	-0.0053	-0.0046	0.0015	-0.7	31
0.0045	0.003	0.0105	0.0067	-0.3	31
0.009	0.012	0.0195	0.0165	-0.7	31
0.0067	0.0082	0.024	0.0067	-0.6	31
-0.0015	0.0045	0.0232	-0.0128	-0.6	31
-0.0015	0.006	0.0217	-0.0218	-0.8	31
-0.0008	-0.0008	0.0165	-0.0046	-0.4	31
-0.0083	-0.0113	0.0082	0.0075	-0.8	31
-0.0075	-0.0143	0.0052	0.009	-0.4	31
-0.0068	-0.0158	0.0105	0.0255	-0.8	31
-0.0075	-0.0181	0.012	0.0427	-0.7	31
-0.0046	-0.0068	0.0052	0.018	-0.8	31
-0.0023	0	0.0037	-0.024	-0.8	31
0.0015	-0.0008	-0.0008	-0.0465	-0.7	31
0.006	0.0045	-0.0053	-0.039	-0.7	31
0.0082	0.0045	-0.0046	0.0157	-0.7	31
0.003	0.0007	-0.006	0.027	-0.8	31
-0.0038	-0.0008	-0.0091	-0.0068	-0.6	31
-0.003	0.0067	-0.012	0.0015	-0.9	31
-0.0046	0.0067	-0.0083	0.0022	-0.5	31
-0.0053	0.0037	-0.0046	-0.0046	-1	31
-0.0053	0.003	-0.0038	0.0142	-0.5	31
-0.0046	0.0045	-0.0046	0.006	-0.9	31
-0.0053	0.0052	-0.0083	-0.045	-0.8	31
-0.0053	-0.006	-0.0068	-0.054	-0.8	31
-0.003	-0.0083	-0.006	0.0142	-1	31
-0.003	-0.0023	-0.0098	0.054	-0.7	31
-0.0015	0.0015	-0.0105	0.0277	-0.7	31
0.003	0	-0.0098	0.0405	-0.9	31
0.0045	-0.0008	-0.0128	0.045	-0.8	31
0.0067	-0.0046	-0.0225	0.0015	-0.7	31
0.0135	-0.0046	-0.0248	0.009	-0.9	31
0.018	-0.0038	-0.0203	0.0157	-0.9	31
0.0187	-0.0023	-0.0173	0.003	-0.9	31
0.018	0.0037	-0.0046	-0.0173	-0.7	31
0.0112	0.0052	0.0037	-0.0533	-0.9	31
-0.0008	0.0007	0.003	-0.054	-1.1	31
-0.0075	-0.0023	0.009	-0.0256	-0.7	31
-0.021	-0.0075	0.012	-0.0135	-1.1	31
-0.039	-0.0098	0.0157	0.0165	-0.5	31
-0.0495	-0.0091	0.0195	0.057	-1	31
-0.0398	-0.0128	0.018	0.033	-0.9	31
-0.0083	-0.0165	0.0127	-0.0181	-1	31
0.0037	-0.0113	0.0127	-0.0338	-0.9	31
0.0007	-0.003	0.0112	-0.0225	-1	31
0.0045	0.0045	0.0105	-0.0083	-1	31
0.0045	0.0217	0.0127	-0.0008	-1.1	31
0.009	0.027	0.0142	0.0007	-0.8	31
0.0075	0.0075	0.0142	0.0172	-0.9	31
0.0045	-0.0023	0.0097	-0.0068	-1	31
0.0015	-0.006	0.0082	-0.0443	-0.9	31
-0.0008	-0.0165	-0.0008	-0.0683	-1	31
0.0045	-0.021	-0.0143	-0.0638	-0.8	31
0.0052	-0.0203	-0.0188	-0.006	-1.1	31
0.0052	-0.0195	-0.0181	0.0127	-0.9	31
0.0037	-0.0173	-0.0158	0.042	-1	31
0.003	-0.0105	-0.0143	0.0855	-1	31
0.0082	-0.0015	-0.0128	0.0352	-0.9	31
0.015	0.0052	-0.0105	-0.0015	-1.2	31
0.0172	0.0052	-0.0091	0.0202	-1	31
0.0067	0.006	-0.0008	0	-1	31
0.003	0.0187	0.0097	-0.027	-1.1	31
0.0067	0.012	0.0082	-0.0263	-1	31
0	0.0067	0.0067	0.0067	-0.8	31
-0.0038	0.0067	0.0097	0.0382	-1.3	31
-0.0053	-0.0038	0.009	0.0067	-0.9	31
-0.0075	-0.0083	0.009	0.009	-1.2	31
-0.0068	-0.0098	-0.003	0.0292	-1.1	31
-0.0053	-0.0098	-0.0181	0.0277	-1	31
0.0007	-0.003	-0.0218	0.0285	-1.4	31
0.0052	0.0045	-0.0181	-0.0113	-1	31
0.0105	0.0015	-0.0143	-0.027	-1.3	31
0.0082	0.0022	-0.0068	-0.0375	-1.1	31
0	0.0007	0.0082	-0.0353	-1	31
-0.0015	-0.0053	0.0202	-0.0023	-1.3	31
-0.0046	-0.0105	0.0232	-0.0158	-1.1	31
-0.0068	-0.0143	0.0187	-0.0233	-1.1	31
-0.0083	0.003	0.0127	-0.033	-1.1	31
-0.0083	0.012	0.0022	-0.03	-1	31
-0.003	0.006	-0.0091	0.0127	-1	31
-0.0023	0.003	-0.0091	0.06	-1.2	31
-0.0053	-0.0008	-0.0038	0.0405	-1	31
-0.0053	-0.0083	-0.0015	-0.0323	-1.4	31
-0.0046	-0.0158	-0.0053	-0.0315	-0.9	31
-0.0015	-0.015	-0.0083	-0.0308	-1.3	31
0.0022	-0.0105	-0.012	-0.0195	-1.1	31
0.0015	-0.0008	-0.0143	0.0367	-1.2	31
0.0007	-0.0015	-0.0128	0.0532	-1.3	31
0.0037	-0.0023	-0.0181	0.0345	-1	31
0.0052	0.0007	-0.0233	0.0112	-1.4	31
0.003	0.0015	-0.0195	0.0037	-1.1	31
0.0007	0.0015	-0.0091	0.0007	-1.2	31
-0.0015	-0.0008	0.0007	-0.0053	-1.1	31
-0.0083	-0.0015	0.0105	-0.0128	-1.2	31
-0.0068	-0.0128	0.0202	-0.021	-1	31
-0.003	-0.0218	0.0285	-0.0105	-1.4	31
-0.0046	-0.0233	0.0315	-0.0068	-1.3	31
-0.0038	-0.0091	0.027	-0.0068	-1.4	31
-0.003	0.0007	0.015	0.0067	-1.4	31
-0.0023	0	0.003	0.0037	-1	31
-0.0015	0.0052	-0.0053	0.0105	-1.4	31
-0.0008	0.0015	-0.0091	0.018	-1	31
0	-0.0015	-0.0068	0.012	-1.5	31
-0.0046	-0.0046	-0.0068	0.0052	-1.2	31
-0.0023	-0.0046	-0.0083	-0.0046	-1.4	31
-0.0023	-0.0038	-0.0038	-0.0233	-1.4	31
-0.003	-0.006	-0.0015	-0.0256	-1.3	31
-0.0015	-0.0083	-0.0068	-0.0015	-1.1	31
-0.0008	-0.0075	-0.0113	-0.0015	-1.3	31
0.0022	-0.0008	-0.0113	-0.0173	-1.4	31
0.0045	0.0045	-0.0098	-0.0203	-1.2	31
0.0105	0.0082	-0.0105	-0.0091	-1.5	31
0.0127	0.0082	-0.0173	0.027	-1.2	31
0.0067	0.009	-0.0233	0.042	-1.4	31
-0.003	0.0082	-0.0181	0.0157	-1.2	31
-0.0038	0.0045	-0.0128	0.003	-1.4	31
-0.0023	0.0052	-0.0075	-0.0113	-1.4	31
-0.0046	0.0045	0.0022	-0.0315	-1.4	31
0	0.003	0.0112	-0.021	-1.5	31
0.0112	-0.006	0.0165	0.0232	-1.4	31
0.0187	-0.0173	0.018	0.0285	-1.7	31
0.0165	-0.0143	0.018	0	-1.3	31
0.0195	-0.0083	0.0142	0.0097	-1.4	31
0.018	-0.0068	0.0075	-0.0068	-1.4	31
0.0045	-0.0083	0.0052	-0.0218	-1.4	31
-0.0105	-0.006	0.003	0.0165	-1.4	31
-0.0203	0.0007	0	0.0142	-1.6	31
-0.0398	0.0007	-0.0046	-0.0293	-1.4	31
-0.0488	-0.003	-0.0023	-0.0443	-1.4	31
-0.0165	-0.0053	0.0007	-0.0218	-1.7	31
0.0045	-0.0023	0.003	0.039	-1.2	31
0	0.0007	0.0052	0.0352	-1.6	31
0.0067	0.0015	-0.0038	-0.003	-1.4	31
0.0112	-0.0046	-0.0195	0.0052	-1.6	31
0.009	-0.0173	-0.0315	-0.0053	-1.4	31
0.0075	-0.0113	-0.03	-0.0053	-1.5	31
0.0045	0.0007	-0.0263	-0.003	-1.5	31
0.003	-0.0135	-0.0165	-0.024	-1.4	31
0.003	-0.0308	-0.003	-0.033	-1.6	31
0.003	-0.027	0.009	-0.0053	-1.6	31
0.0052	-0.0165	0.0202	0.018	-1.5	31
0.0067	-0.0038	0.021	0.0375	-1.5	31
-0.0008	-0.0008	0.024	0.0367	-1.6	31
-0.0068	-0.0113	0.0315	-0.003	-1.4	31
-0.0075	-0.012	0.0277	-0.0015	-1.7	31
-0.0075	-0.0046	0.012	-0.0068	-1.5	31
-0.003	0.0105	0.0045	-0.0233	-1.5	31
0.0007	0.0277	-0.0015	-0.0428	-1.6	31
0.0067	0.0277	-0.0068	-0.0256	-1.4	31
0.009	0.0232	-0.0046	0.042	-1.8	31
0.0052	0.021	-0.0046	0.048	-1.3	31
-0.0015	0.0082	-0.0068	-0.006	-1.9	31
-0.0053	0.0022	-0.0105	-0.0458	-1.5	31
-0.003	-0.0053	-0.0135	-0.0285	-1.8	31
-0.003	-0.0053	-0.0158	0.0195	-1.6	31
-0.0038	-0.0015	-0.0135	0.0667	-1.6	31
-0.0053	-0.0075	-0.0143	0.048	-1.6	31
-0.0053	-0.0015	-0.0165	0.0217	-1.6	31
-0.0046	0.0015	-0.0135	0.0007	-1.4	31
-0.0038	0.0022	-0.0105	-0.0398	-1.7	31
0	-0.0008	-0.0023	-0.0278	-1.6	31
0.0007	-0.0015	0.006	-0.024	-1.4	31
0.0007	0.0007	0.0127	-0.0135	-1.8	31
0.0007	0	0.0217	-0.0068	-1.6	31
-0.0015	-0.0008	0.021	-0.0046	-1.7	31
-0.0023	-0.0008	0.0165	-0.0015	-1.7	31
-0.0015	0.0045	0.012	-0.0158	-1.6	31
0.0015	0.0067	0	-0.0195	-1.8	31
0.0045	0.0082	-0.012	-0.0165	-1.5	31
0.0015	0.0135	-0.0143	0.0067	-1.8	31
-0.0015	0.012	-0.0091	0.0105	-1.6	31
-0.0038	-0.0046	-0.0053	-0.0075	-1.7	31
-0.0046	-0.0165	-0.0068	-0.0113	-1.6	31
0.0007	-0.0128	-0.0068	-0.0046	-1.7	31
0.0052	-0.0128	-0.0091	0.0007	-1.5	31
0.0067	-0.0181	-0.0143	0.0052	-2	31
0.0052	-0.0173	-0.012	0.0067	-1.5	31
0.003	-0.0053	-0.0053	0.0045	-1.8	31
0.003	0.015	0.0007	0.0052	-1.7	31
0.003	0.0255	0.0045	0.006	-1.5	31
-0.0015	0.0052	0.0082	0.0067	-1.9	31
-0.0053	-0.0068	0.015	0.0015	-1.6	31
-0.003	-0.0068	0.015	0.0015	-1.8	31
-0.006	-0.0158	0.0172	0.0015	-1.6	31
-0.0046	-0.0046	0.012	-0.0128	-1.8	31
-0.0023	-0.0083	0	-0.027	-1.7	31
-0.003	-0.0068	-0.0008	-0.0068	-1.6	31
-0.003	0.0015	0.0007	0.033	-1.8	31
-0.0008	-0.006	0.0015	0.0607	-1.8	31
0.0067	-0.0068	0.0015	0.0577	-1.7	31
0.0142	-0.012	-0.003	0.0202	-1.5	31
0.0127	-0.0083	-0.0091	0.0045	-1.8	31
0.009	-0.006	-0.0105	-0.0128	-1.4	31
0.006	-0.0053	-0.0098	-0.0323	-1.9	31
0.0075	-0.0023	-0.0098	-0.033	-1.6	31
0.0052	0.0037	-0.003	-0.0233	-1.8	31
-0.0053	0.009	-0.003	0.0007	-1.6	31
-0.0203	0.003	-0.006	0.0082	-1.6	31
-0.0413	0.0007	-0.0008	0.0022	-1.9	31
-0.0338	-0.003	0.0037	-0.0143	-1.7	31
-0.0053	-0.0091	0.0067	0.0067	-1.9	31
-0.0008	-0.0105	0.0105	0.0367	-1.6	31
-0.003	-0.0105	0.0112	-0.0285	-1.7	31
-0.0113	-0.012	0.0195	-0.0691	-1.8	31
-0.0075	-0.0083	0.0247	-0.0353	-1.7	31
0.0067	-0.0023	0.018	-0.0091	-1.7	31
0.003	-0.0023	0.0082	0.0277	-1.8	31
0.0015	0.0007	-0.0053	0.0645	-1.8	31
0.0007	0.0045	-0.0173	0.0855	-1.6	31
0.003	0.0045	-0.0181	0.0262	-1.9	31
0.0045	0.003	-0.0181	-0.0668	-1.7	31
0.0037	0.0045	-0.0188	-0.042	-2.1	31
0.0082	0.0105	-0.0158	0.0067	-1.6	31
0.006	0.012	-0.0165	0.027	-1.9	31
0.003	0.0082	-0.0105	0.0352	-1.8	31
-0.0008	-0.0053	-0.0098	-0.024	-1.8	31
-0.0046	-0.024	-0.0158	-0.0773	-1.9	31
-0.0015	-0.021	-0.0105	-0.054	-1.7	31
0	-0.0046	-0.0068	0.0165	-1.7	31
-0.0023	-0.0015	-0.0023	0.0787	-1.8	31
-0.0015	0.0052	0.0067	0.0315	-1.9	31
-0.003	0.0067	0.0105	-0.0023	-1.8	31
-0.0091	0.0045	0.0157	0.03	-2	31
-0.0053	0.0052	0.0157	0.0052	-1.8	31
0.0045	0.0007	0.009	-0.0158	-1.9	31
0.0045	-0.0053	0.0067	-0.0293	-1.9	31
0.003	-0.0195	-0.0008	-0.0218	-1.9	31
0.0067	-0.0263	-0.0091	-0.0053	-2	31
0.012	-0.0158	-0.012	-0.0143	-1.5	31
0.018	-0.0083	-0.0053	-0.027	-2.1	31
0.0195	-0.0008	-0.0015	-0.0353	-1.8	31
0.003	0.0045	-0.0015	-0.033	-2.1	31
-0.0075	0.0052	-0.003	-0.0473	-1.9	31
-0.0046	0.0052	-0.0075	-0.0458	-1.8	31
-0.0083	0.0052	-0.006	-0.039	-1.9	31
-0.0091	0.0067	-0.0008	0.03	-1.8	31
-0.0068	-0.0015	0.0007	0.144	-1.8	31
-0.003	-0.0046	0.0075	0.105	-1.9	31
-0.0008	-0.0023	0.0127	-0.0015	-2.1	31
0.0045	0.0082	0.0052	-0.0195	-1.7	31
0.0067	0.0142	-0.0015	-0.0218	-2	31
0	0.0015	-0.0046	-0.0143	-1.6	31
0.0015	0.0037	-0.0053	0.0165	-1.9	31
-0.0008	0.003	-0.0053	0.018	-1.7	31
-0.003	0.0067	-0.0053	0.0105	-1.9	31
0.0007	0.0015	-0.006	0.0067	-2.1	31
0.0022	-0.012	-0.0068	0.0075	-1.8	31
0.0052	-0.0091	-0.0046	0.0007	-2.1	31
0.003	-0.0091	-0.003	-0.0113	-1.7	31
-0.0023	-0.0083	-0.0015	-0.0105	-2.1	31
-0.0038	-0.0105	0.0015	-0.012	-2	31
-0.0023	-0.0015	0.0052	-0.0143	-1.9	31
-0.0046	0.0052	0.0067	-0.0091	-1.9	31
-0.0046	0.0045	0.0045	-0.0053	-2.1	31
-0.0038	0.003	0.006	-0.0046	-1.9	31
-0.0038	-0.0008	0.009	-0.0008	-1.8	31
-0.006	-0.003	0.003	0.0015	-2	31
-0.0128	-0.0091	-0.0015	0.0015	-1.8	31
-0.0083	-0.0195	-0.0015	0	-2.1	31
-0.0015	-0.0233	0	0.0052	-1.7	31
0.0022	-0.012	0.0052	0.0067	-2	31
0.009	-0.0068	0.006	-0.0046	-1.7	31
0.0015	-0.0053	0.003	-0.0143	-2	31
-0.0015	0.0015	-0.0053	-0.0218	-1.9	31
0.0082	0.003	-0.0158	-0.0375	-2	31
0.0142	0.0052	-0.015	-0.0458	-2.2	31
0.015	0.012	-0.012	-0.0248	-1.9	31
0.0097	0.0082	-0.012	0.024	-1.9	31
0.0037	-0.0008	-0.0046	0.0585	-1.9	31
-0.0068	0.003	0.0052	0.0682	-1.7	31
-0.0113	-0.0023	0.0097	0.0465	-1.8	31
-0.0165	-0.003	0.0142	0.0157	-1.9	31
-0.0353	-0.0015	0.0165	0.009	-1.8	31
-0.0465	-0.0083	0.0082	0.0015	-1.9	31
-0.0233	-0.0083	-0.0091	-0.0181	-1.9	31
0.0052	-0.0083	-0.027	-0.0668	-1.9	31
0.0097	-0.0091	-0.0263	-0.06	-1.9	31
0.0135	-0.0195	-0.0195	-0.006	-1.9	31
0.0105	-0.024	-0.0158	0.03	-1.9	31
0.009	-0.0188	-0.0038	0.051	-1.7	31
0.0105	-0.015	0.009	0.0232	-2.1	31
0.009	0.006	0.0195	-0.033	-1.9	31
0.0097	0.0292	0.0232	-0.0578	-1.9	31
0.0045	0.0262	0.0187	-0.0368	-2	31
0.0022	0.0195	0.0097	0.018	-1.9	31
0	0.0202	-0.006	0.069	-1.7	31
0.0007	0.0157	-0.0165	0.0435	-2.2	31
-0.0008	0.012	-0.012	-0.0158	-1.8	31
-0.003	-0.0098	-0.0008	-0.045	-1.9	31
-0.0038	-0.0256	0.0105	-0.0555	-1.9	31
-0.003	-0.0143	0.0195	-0.0293	-1.8	31
0.0007	-0.003	0.021	0.0135	-2	31
-0.0015	0.0037	0.018	0.039	-1.8	31
-0.0015	0.003	0.0127	0.0232	-2.1	31
-0.0008	-0.0023	0.0045	-0.0203	-1.8	31
-0.0015	-0.0053	-0.0053	-0.0323	-1.9	31
-0.0008	-0.0046	-0.0188	-0.0046	-1.9	31
0.0007	-0.0068	-0.0233	0.0352	-1.9	31
0.0052	-0.0053	-0.0181	0.0525	-1.8	31
0.0037	-0.0083	-0.0158	0.0547	-1.9	31
0.0015	-0.0083	-0.015	0.0262	-1.8	31
0.0015	-0.006	-0.012	-0.0225	-2.1	31
0.0037	-0.0068	-0.0091	-0.012	-1.9	31
0.0105	0.0052	-0.0046	-0.0278	-1.9	31
0.0142	0.012	0.0015	-0.042	-2.1	31
0.0067	0.0015	0.0015	-0.0181	-1.8	31
0.003	0.0022	0.0007	-0.045	-2.2	31
-0.003	0.0097	0.0037	-0.0346	-1.8	31
-0.0083	0.012	-0.0008	0.0262	-2	31
-0.003	0.009	-0.0091	0.042	-1.7	31
0.0007	-0.0053	-0.0091	0.0157	-2	31
-0.0038	-0.012	-0.0053	0.0052	-1.9	31
-0.0158	-0.0105	-0.0023	-0.0038	-1.8	31
-0.0165	-0.015	-0.0008	-0.0195	-2	31
-0.0068	-0.0203	-0.0015	-0.015	-2	31
-0.0098	-0.0143	0.0015	0.003	-1.7	31
-0.0046	-0.0023	0.0045	-0.0068	-2	31
0.003	-0.0015	0.0075	-0.0368	-2	31
-0.0008	-0.0038	0.0127	-0.0143	-1.7	31
0.0045	-0.006	0.0082	0.0135	-2.2	31
0.0082	-0.0023	0.0022	0.018	-1.6	31
0.0082	-0.0068	0.003	0.039	-2.1	31
0.009	-0.0181	0.0015	0.0382	-1.8	31
0.0075	-0.0105	0.0015	0.0045	-1.9	31
0.003	-0.0068	0.0075	0.0007	-1.9	31
-0.0053	-0.0015	0.0105	-0.0015	-1.8	31
-0.0015	0.0105	0.0082	0.0187	-2	31
-0.0023	0.0195	0.0082	0.036	-1.7	31
-0.003	0.0165	0.0052	0.0217	-2	31
-0.0015	-0.0053	-0.0015	0.027	-1.9	31
-0.0053	-0.0158	-0.0083	0.0165	-1.8	31
-0.003	-0.0023	-0.0158	-0.0015	-1.8	31
-0.003	0.0022	-0.015	-0.021	-1.9	31
-0.0038	0	-0.0113	-0.0368	-1.7	31
-0.0046	-0.0015	-0.0068	-0.039	-1.9	31
-0.0038	-0.0053	0	-0.0158	-1.8	31
0.0007	-0.0038	0.0022	-0.003	-1.9	31
0.0067	-0.0015	0.003	-0.0046	-1.8	31
0.0082	0.0052	-0.0038	0.0067	-1.8	31
0.0045	0.0075	-0.0165	0.0052	-2	31
0.003	-0.0023	-0.0233	-0.0008	-1.7	31
0	-0.0053	-0.0181	-0.006	-2.2	31
-0.003	-0.006	-0.006	-0.0053	-1.7	31
-0.0015	-0.003	0.0015	-0.0046	-2.1	31
0.0045	0.0015	0.003	-0.0038	-1.8	31
0.003	-0.003	0.0097	-0.0053	-1.8	31
0.0037	-0.003	0.0172	-0.0053	-1.9	31
0.0052	0.0007	0.021	-0.0015	-1.9	31
-0.0008	-0.0008	0.0262	-0.0083	-1.9	31
-0.0015	-0.003	0.024	-0.0158	-2	31
0.0052	-0.0015	0.0202	-0.0195	-1.9	31
0.012	0.0015	0.015	-0.0285	-1.8	31
0.012	0.0015	0.0105	-0.0248	-1.9	31
0.0037	-0.0015	0.0052	0.0127	-1.6	31
-0.0046	-0.0038	-0.0046	0.0232	-1.8	31
-0.0091	-0.003	-0.0143	-0.0008	-1.8	31
-0.0105	-0.0046	-0.0188	0	-1.9	31
-0.0218	-0.0091	-0.024	-0.0008	-2.1	31
-0.0413	-0.0128	-0.033	-0.0173	-1.8	31
-0.0503	-0.0135	-0.03	-0.0465	-2.1	31
-0.0256	-0.0091	-0.024	-0.0338	-1.6	31
0.0045	0.0007	-0.0158	0.0502	-1.9	31
0.0045	0.003	-0.003	0.0975	-1.8	31
0.0082	0.0045	0.0045	0.0315	-1.8	31
0.0142	0.012	0.0105	-0.015	-1.8	31
0.0195	0.0105	0.0127	0.009	-2.1	31
0.0195	0.006	0.0135	0.0195	-1.6	31
0.0045	0.0022	0.0112	0.0292	-2	31
-0.0008	-0.0105	0.003	0.0195	-1.7	31
-0.0068	-0.0181	-0.0068	0.0172	-1.9	31
-0.0083	-0.0203	-0.012	0.0157	-1.9	31
0.0015	-0.0098	-0.0083	-0.006	-1.8	31
0.003	0.0007	-0.0098	-0.0165	-1.9	31
-0.0008	-0.003	-0.0083	-0.0165	-1.7	31
0.0007	0.0015	-0.006	0.0105	-2	31
0.003	0.003	-0.0053	0.0165	-1.9	31
0.0037	0.0067	-0.0015	0.0135	-1.8	31
0.003	0.009	-0.003	-0.0195	-2	31
0.003	0.0097	-0.0015	-0.0975	-2	31
0.0052	0.0157	-0.0008	-0.1013	-1.9	31
0.0082	0.018	0.0045	-0.0368	-1.9	31
0.0067	0.018	0.0097	0.009	-1.8	31
0.0067	0.0135	0.0045	0.0262	-1.9	31
0.0142	0.0052	-0.0038	-0.0091	-2.1	31
0.0105	-0.0143	-0.0023	-0.0368	-1.7	31
0.0022	-0.0293	0.0015	-0.0008	-2.1	31
-0.003	-0.0293	0.0015	0.0315	-1.7	31
-0.0091	-0.0323	0	0.0195	-2.1	31
-0.012	-0.0203	-0.0023	-0.0023	-2	31
-0.0075	-0.0091	-0.003	0.0015	-1.9	31
-0.0015	-0.0046	-0.0023	0.0052	-2.1	31
0	0.0037	-0.003	0.0135	-1.8	31
-0.0008	0.0022	-0.003	0.0232	-1.9	31
-0.0023	0.003	-0.0008	0.0105	-1.9	31
-0.0053	-0.0008	0.0007	-0.012	-1.9	31
-0.0053	0.0007	0	-0.0165	-2	31
-0.003	0.003	-0.0023	-0.0248	-1.9	31
-0.0008	0.003	-0.0046	-0.0353	-1.7	31
0.0022	0.0075	-0.0015	0.0082	-2.2	31
0.0007	0.0097	0.0007	0.0645	-1.7	31
0.0007	0.0112	-0.0008	0.0525	-1.9	31
0.0067	0.0045	-0.0038	0.006	-1.7	31
0.0052	0.0007	-0.0046	0.0172	-2	31
0.003	-0.0038	-0.003	0.0135	-1.9	31
0.0015	-0.012	0.0022	-0.0143	-1.8	31
-0.003	-0.0083	0	-0.0203	-2.1	31
-0.0075	-0.003	-0.0105	-0.0413	-1.6	31
-0.0075	0	-0.0195	-0.0383	-2.2	31
-0.0046	0.0067	-0.0165	0.0097	-1.7	31
-0.0046	0.0067	-0.0105	0.048	-1.9	31
-0.012	0.0022	-0.0038	0.0405	-1.9	31
-0.0098	-0.0075	0.0135	-0.0083	-1.9	31
-0.0023	-0.0181	0.0315	-0.0638	-1.9	31
-0.0015	-0.0165	0.0367	-0.0593	-1.9	31
-0.0023	-0.012	0.0217	-0.0195	-1.7	31
0.0015	-0.0083	-0.0008	0.009	-1.9	31
0.0105	0.0037	-0.0195	0.0532	-1.9	31
0.0292	0.003	-0.0278	0.105	-1.8	31
0.0405	-0.0098	-0.027	0.0682	-1.9	31
0.0292	-0.0083	-0.0105	0.0202	-1.7	31
0.0157	-0.0091	0.0135	0.0135	-1.9	31
0.0045	-0.0046	0.0292	-0.0023	-1.7	31
-0.003	-0.0075	0.0382	0.0052	-1.9	31
-0.0083	-0.0218	0.0345	-0.0181	-1.8	31
-0.0308	-0.0173	0.0277	-0.0443	-1.8	31
-0.0593	-0.0143	0.018	-0.0615	-1.9	31
-0.0683	-0.0046	0.0037	-0.054	-1.9	31
-0.0323	0.012	-0.0128	0.0052	-1.8	31
-0.003	0.0165	-0.0181	0.0577	-1.9	31
-0.0038	0.0127	-0.0158	0.0525	-1.8	31
0.0045	0.0165	-0.0143	0.0052	-1.9	31
0.0045	0.012	-0.0091	-0.0105	-2	31
0.0067	-0.0023	-0.0075	-0.0105	-1.9	31
0.0067	-0.0068	-0.006	-0.0091	-2	31
0.0052	-0.012	-0.0091	-0.0173	-1.8	31
0.009	-0.0105	-0.012	-0.0248	-2	31
0.009	-0.0068	-0.015	-0.027	-1.8	31
0.0157	-0.0053	-0.0165	-0.0248	-1.8	31
0.0135	0.0015	-0.0128	0	-1.9	31
0.009	0.0007	-0.0113	0.0135	-1.7	31
0.0067	-0.003	-0.006	0.0105	-2	31
0.0045	0.0007	-0.003	0.0045	-1.8	31
0.0052	0.003	-0.0038	0.009	-1.9	31
0.003	0.0015	-0.0046	0.009	-1.9	31
0.0015	-0.003	-0.003	-0.0023	-1.8	31
0	-0.0068	-0.0008	-0.0135	-1.8	31
-0.0008	-0.0053	0.0007	-0.0181	-2.2	31
-0.003	-0.006	0.0007	-0.0165	-1.6	31
0.0015	-0.003	-0.0008	-0.0203	-2.1	31
0.0052	-0.003	0.0015	-0.0256	-1.7	31
0.0015	-0.003	0.0045	-0.0181	-1.9	31
0	-0.0075	0.0007	0	-1.9	31
0.003	-0.0015	-0.003	0.0255	-1.8	31
0.0075	0.0067	-0.0053	0.0555	-1.9	31
0.009	-0.0128	-0.0053	0.0292	-1.7	31
0.009	-0.0338	-0.003	-0.0083	-1.8	31
0.0015	-0.0368	-0.0008	-0.0105	-1.9	31
-0.0053	-0.0278	0.0015	-0.033	-1.8	31
-0.0023	-0.0143	0.0015	-0.0315	-1.8	31
-0.0023	0.0022	-0.0023	-0.0203	-1.9	31
-0.003	0.0127	-0.003	-0.021	-1.8	31
-0.0015	0.0262	-0.0008	-0.003	-1.8	31
-0.0053	0.0292	0.0015	0.0135	-1.8	31
-0.0068	0.0135	0.0037	0.0082	-1.7	31
-0.0091	0.006	0.0037	-0.0015	-2.1	31
-0.0075	-0.0053	0.0045	0.0015	-1.6	31
-0.0046	-0.0143	0.0045	-0.0225	-2.2	31
-0.003	-0.0075	0.003	-0.012	-1.7	31
-0.0008	-0.003	0.0037	0.0495	-2	31
0	-0.0008	0.0037	0.0307	-1.8	31
0.0015	0.003	0.0015	-0.0068	-1.8	31
-0.0015	0.0022	0	0.0187	-1.8	31
-0.0038	0.0097	0.0007	0.0255	-1.7	31
-0.0008	0.0112	0.0007	0.0165	-1.9	31
-0.0008	0.0007	-0.0015	0.0135	-1.9	31
-0.0008	0.0045	-0.0015	-0.0015	-1.9	31
0.0015	0.0052	-0.0015	-0.0053	-1.7	31
0.0052	-0.0015	0	-0.0046	-2.1	31
0.009	0.003	0.0022	-0.0008	-1.7	31
0.012	0.0075	0.0015	-0.0165	-1.8	31
0.0127	0.0097	-0.0008	-0.0143	-1.9	31
0.0082	0.0045	-0.0015	0.027	-1.9	31
-0.0015	-0.0135	-0.0038	0.0315	-2	31
-0.006	-0.0218	-0.0128	-0.0083	-1.6	31
-0.0053	-0.0098	-0.0165	-0.033	-2.1	31
-0.0091	-0.003	-0.0143	-0.0158	-1.6	31
-0.0158	-0.0008	-0.0091	0.0165	-1.9	31
-0.0158	-0.0008	-0.003	0.033	-1.7	31
-0.0075	-0.0083	-0.0038	-0.0008	-1.9	31
-0.0046	-0.0083	0.0022	-0.0495	-1.9	31
-0.0023	-0.0091	0.0082	-0.0518	-1.8	31
0	-0.0083	0.0097	-0.027	-1.7	31
-0.0008	-0.0023	0.0157	-0.006	-1.8	31
0.003	0.0015	0.0187	0.0187	-2	31
-0.003	0.0045	0.021	0.0502	-1.5	31
-0.0068	0.0015	0.024	0.0645	-2.1	31
0.0037	0.0007	0.0202	0.0465	-1.7	31
0.0127	-0.0015	0.0067	0.0277	-1.9	31
0.0157	-0.0046	-0.0068	-0.003	-1.7	31
0.012	0.0007	-0.0143	-0.0405	-1.9	31
0.009	0.0082	-0.0203	-0.0308	-2	31
0.0045	0.012	-0.021	-0.0015	-1.7	31
-0.0015	0.006	-0.0113	0.0037	-2.1	31
-0.0091	0.0015	-0.0008	-0.0046	-1.7	31
-0.0233	0.003	0.0075	-0.0128	-2	31
-0.0405	-0.003	0.009	-0.0113	-1.8	31
-0.0338	-0.0233	0.0097	0.0052	-1.8	31
-0.0113	-0.0285	0.012	0.006	-1.9	31
-0.0083	-0.0105	0.0045	-0.0233	-1.8	31
-0.003	-0.0008	-0.0068	-0.0458	-1.8	31
0.0007	0.0015	-0.0091	-0.0428	-1.9	31
0.0022	0.0015	-0.0105	-0.0053	-2	31
0.0067	0.0022	-0.0113	0.0165	-1.7	31
0.0045	0.0015	-0.0113	-0.0046	-2.1	31
0.0127	-0.006	-0.0143	-0.0128	-1.7	31
0.024	-0.0083	-0.0158	-0.0015	-2.1	31
0.0225	-0.012	-0.0165	0.0105	-1.8	31
0.0097	-0.0158	-0.0091	0.009	-2	31
0.0045	-0.0143	0.0045	-0.0068	-1.8	31
0.0037	-0.0128	0.0097	-0.0181	-1.8	31
0.003	0.0045	0.0022	-0.0053	-2	31
0.0082	0.0277	-0.0008	0.0232	-1.9	31
0.006	0.0345	-0.0008	0.0165	-1.9	31
0.0037	0.0292	-0.0008	0.0232	-1.9	31
-0.0008	0.018	-0.0008	0.039	-1.8	31
-0.0038	0.0045	-0.0053	0.018	-1.9	31
-0.003	-0.0053	-0.0046	0.006	-2	31
-0.0046	-0.0068	-0.0046	-0.0046	-1.7	31
-0.0008	-0.0075	-0.0068	-0.0218	-2	31
-0.0023	-0.021	-0.0023	-0.0293	-1.8	31
-0.0053	-0.0256	-0.003	-0.0158	-1.9	31
-0.0046	-0.0113	-0.0068	-0.0083	-1.9	31
0.003	0	-0.0053	0.0105	-1.7	31
0.0082	0.0112	-0.0053	0.0502	-2	31
0.003	0.0157	-0.0083	0.0315	-1.6	31
0.0007	0.012	-0.012	-0.024	-2	31
-0.0053	0.0037	-0.0053	-0.033	-1.8	31
-0.0128	-0.0091	0.0067	-0.003	-1.8	31
-0.0203	-0.0233	0.0052	0.0285	-1.8	31
-0.0181	-0.0278	0.0052	0.0495	-2	31
-0.0038	-0.0293	0.012	0.0322	-1.8	31
-0.003	-0.027	0.0142	-0.0068	-2	31
-0.006	-0.0128	0.0165	-0.03	-1.7	31
0.0015	-0.0083	0.024	-0.0233	-1.9	31
0.0067	0.0052	0.027	-0.0098	-1.8	31
0.0135	0.03	0.0195	-0.0046	-1.8	31
0.009	0.0255	0.0067	0.003	-2.1	31
-0.0008	0.0195	-0.0015	0.0105	-1.8	31
-0.0015	0.0135	-0.0068	0.0045	-2	31
-0.003	0	-0.012	-0.0105	-1.9	31
-0.006	-0.006	-0.0203	-0.0165	-1.9	31
-0.0038	-0.0098	-0.0203	-0.006	-1.9	31
0	-0.0098	-0.0128	0.003	-1.9	31
-0.0008	-0.0173	-0.0113	-0.0023	-1.9	31
-0.0015	-0.0105	-0.006	0.0052	-1.8	31
0.0007	-0.0023	0.0007	0.006	-1.9	31
0.0015	-0.0053	0.003	0.0015	-2	31
0.0045	-0.0046	0.003	-0.0165	-1.9	31
0.003	-0.0038	0.0015	-0.0533	-1.8	31
0.0022	-0.0008	0.0007	-0.048	-2.2	31
0	-0.003	-0.003	0.003	-1.6	31
-0.003	-0.0046	-0.0053	0.024	-2.1	31
-0.0046	-0.0038	-0.0053	0.0075	-1.6	31
-0.0053	-0.003	-0.0046	-0.0218	-2.1	31
-0.0046	-0.003	-0.006	-0.0533	-1.9	31
-0.0046	-0.003	-0.0053	-0.0353	-2	31
-0.0015	-0.0015	-0.0046	0.012	-1.9	31
-0.0008	-0.0023	-0.0046	0.0457	-1.8	31
0.0007	0.0015	-0.006	0.0067	-2.1	31
0.0037	0	-0.0091	-0.033	-2	31
0.0022	0	-0.003	0.0277	-1.9	31
0	0.0052	0.0015	0.042	-1.9	31
-0.0015	0.0007	0.0067	0.0255	-2	31
-0.0053	-0.0046	0.0105	0.0232	-1.7	31
-0.0091	-0.003	0.0075	-0.0068	-2.1	31
-0.0083	-0.0008	0.0052	0.0015	-1.8	31
-0.0023	0.0052	0.0045	0.0067	-2.1	31
0.0075	0.0082	0	0.0105	-1.9	31
0.009	0.0067	-0.0023	0.0165	-1.8	31
0.0082	-0.006	-0.0008	0.003	-2	31
0.0105	-0.0181	-0.0015	-0.0015	-1.7	31
0.0097	-0.0181	-0.0023	-0.012	-2.2	31
0.0067	-0.0188	-0.006	-0.015	-1.6	31
0.0037	-0.015	-0.0143	-0.0091	-2	31
-0.003	-0.012	-0.0195	-0.0068	-2	31
-0.0053	-0.0091	-0.0165	0.006	-1.9	31
-0.0098	-0.0046	-0.012	0.0165	-1.8	31
-0.0188	0.003	-0.006	0.0067	-2	31
-0.0293	0.012	0.0022	-0.024	-1.9	31
-0.0195	0.0082	0.0105	-0.0615	-1.9	31
0.0037	-0.0053	0.0142	-0.0503	-2	31
-0.0008	-0.0068	0.0135	-0.0195	-1.6	31
-0.003	-0.0046	0.0142	-0.027	-2.1	31
0.0015	-0.003	0.0082	-0.0256	-1.7	31
0.0007	0.0045	-0.0015	0.0105	-2.1	31
0.0052	0.0067	0.0007	0.0765	-1.8	31
-0.0053	0.006	0.0067	0.0742	-1.9	31
-0.0143	-0.0053	0.003	0.0315	-1.9	31
-0.003	-0.0195	0.0015	0.0202	-1.9	31
0.0157	-0.0143	0.0015	-0.0105	-2	31
0.0217	-0.0008	-0.0008	-0.033	-1.8	31
0.015	0.006	-0.0015	-0.042	-1.9	31
0.0105	0.0105	-0.0068	-0.006	-1.9	31
0.0067	0.009	-0.0075	0.0277	-1.9	31
0.0037	0	-0.0068	0.0502	-1.8	31
0.0015	-0.0015	-0.0046	0.1012	-2.1	31
0.0015	-0.012	0.003	0.0742	-2	31
0.003	-0.0256	0.0007	-0.0046	-2	31
0.0045	-0.0181	-0.0038	-0.027	-1.9	31
0.0045	-0.0046	-0.0165	-0.0346	-1.9	31
0	0.003	-0.0278	-0.0233	-2.1	31
-0.003	0.003	-0.0346	-0.0091	-1.8	31
0	0.0022	-0.0323	-0.0263	-2.2	31
-0.0038	0.0045	-0.0181	-0.027	-1.7	31
-0.0098	0.0127	-0.003	-0.0046	-2.3	31
-0.0113	0.0172	0.0172	0.021	-1.8	31
-0.012	0.0082	0.0352	0.0067	-1.9	31
-0.0046	-0.0023	0.0442	-0.0135	-1.9	31
-0.003	-0.0105	0.0495	-0.0158	-1.9	31
-0.0046	-0.0098	0.042	-0.012	-2	31
-0.0046	-0.0091	0.0277	-0.0083	-2.2	31
-0.0053	-0.0113	0.012	-0.0105	-1.8	31
0.0007	0.0037	0	-0.0075	-1.9	31
0.003	0.024	-0.0128	-0.0143	-2.1	31
0.0022	0.0187	-0.015	-0.0218	-1.8	31
0.003	0.0037	-0.0181	-0.0091	-2	31
0.006	0.0052	-0.0195	0.003	-1.8	31
0.0075	0.0082	-0.012	0.0015	-1.9	31
0.0045	0.006	-0.0068	0.003	-1.9	31
0.0007	-0.0075	-0.0008	0.0052	-2	31
-0.0046	-0.0173	-0.0008	0.003	-1.9	31
-0.0068	-0.0143	-0.0053	-0.0015	-1.9	31
-0.003	-0.0068	-0.0105	-0.0068	-2.1	31
0.003	-0.0008	-0.015	-0.0053	-2.1	31
0.0015	-0.0053	-0.0113	-0.0008	-2	31
-0.0015	-0.0135	-0.0083	0.0022	-1.9	31
0	-0.024	-0.0075	0.003	-2.1	31
0.0007	-0.0135	-0.0053	-0.0113	-1.7	31
0.006	-0.0068	-0.0046	-0.0346	-2.1	31
0.0105	-0.0113	-0.003	-0.0195	-1.7	31
0.0082	-0.0053	-0.003	0.0157	-2.2	31
0.0075	-0.0023	-0.003	0.0232	-1.8	31
0.0052	0.003	-0.0046	-0.0218	-2.2	31
0.0015	0.0022	-0.0053	-0.0383	-2	31
0.0007	0.009	-0.006	0.0255	-1.8	31
-0.0015	0.0127	-0.0015	0.063	-2.2	31
-0.0046	0.009	0.0045	0.0645	-1.9	31
-0.0075	0.0082	0.009	0.0382	-2	31
-0.0105	-0.0008	0.0075	0.0082	-2.2	31
-0.0091	-0.0008	-0.0015	-0.0195	-2	31
-0.0015	0.0007	-0.0091	-0.0443	-1.9	31
0.0082	-0.0083	-0.0105	-0.0233	-1.9	31
0.0105	-0.0181	-0.0105	-0.006	-1.8	31
0.0067	-0.0181	-0.0023	-0.0083	-2.1	31
0.0015	-0.0091	0.009	-0.015	-1.8	31
-0.0046	-0.0038	0.0195	-0.0225	-2	31
-0.0068	0.003	0.021	-0.0181	-1.9	31
-0.0046	0.0045	0.0165	0.0067	-1.8	31
-0.0158	0.0007	0.0195	0.0412	-2.1	31
-0.0383	-0.0008	0.0157	0.024	-1.8	31
-0.0278	0	0.0022	0.0045	-2.1	31
-0.0038	-0.0053	-0.0083	0.0277	-1.7	31
-0.0015	-0.0083	-0.0105	0.0352	-2.3	31
0.0052	-0.0008	-0.0105	0.0187	-1.9	31
0.009	0.0007	-0.0128	-0.0128	-2	31
0.0082	0.0007	-0.0113	-0.0203	-1.9	31
0.0075	0.0022	-0.0068	-0.0105	-1.9	31
0.003	-0.0008	-0.003	-0.021	-2	31
0.009	-0.0083	-0.003	-0.0068	-2	31
0.0082	-0.0143	-0.0023	0.0285	-2.1	31
0.0045	-0.015	-0.0113	0.0127	-1.8	31
0.0037	-0.0091	-0.0203	0.0022	-2.2	31
-0.0015	0.0045	-0.0165	0.0225	-1.9	31
-0.0015	0.009	-0.0083	0.0007	-2.2	31
-0.003	0.0022	0.0007	-0.0293	-1.8	31
-0.0098	-0.0068	0.0007	-0.0428	-2.2	31
-0.0068	-0.012	-0.0015	-0.0413	-1.9	31
0.003	-0.0158	0	-0.03	-2	31
0.0052	-0.0083	0.009	0.0015	-2.1	31
-0.0008	0.0052	0.0157	0.03	-2	31
-0.0068	-0.0015	0.0157	0.0292	-2.2	31
0.0045	0.003	0.0172	0.0345	-2	31
0.0142	0.0285	0.0157	0.0195	-2.1	31
0.021	0.0322	0.018	-0.0113	-2.1	31
0.0195	0.021	0.0172	-0.033	-2	31
-0.0008	0.0127	0.0135	-0.0413	-2	31
-0.0046	0.0007	0.006	-0.0278	-2.2	31
-0.003	-0.0053	-0.006	-0.0015	-2	31
-0.0053	-0.0105	-0.012	0.033	-2.3	31
-0.0053	-0.0195	-0.0158	0.039	-2	31
-0.0083	-0.015	-0.0158	0.012	-2.2	31
0.0007	-0.0083	-0.0158	0.009	-2	31
0.0075	-0.0091	-0.0158	-0.0053	-2.1	31
0.0037	-0.012	-0.0128	-0.039	-2.2	31
0.0015	-0.0113	-0.0091	-0.0233	-1.9	31
0.0007	-0.012	-0.0105	-0.0135	-2.3	31
-0.0015	-0.0098	-0.0135	-0.0346	-1.9	31
-0.003	-0.0015	-0.0143	-0.0263	-2.2	31
0.0007	0.003	-0.012	0.018	-2.1	31
-0.006	0.0127	-0.0091	0.0285	-1.9	31
-0.0158	0.0052	-0.0083	0.003	-1.9	31
-0.0113	-0.0046	-0.0053	-0.0008	-2.3	31
-0.0053	-0.0015	0.0015	0.0007	-1.8	31
-0.0046	-0.0015	0.0045	0.0307	-2.3	31
-0.0023	0.0015	0.0037	0.0502	-1.9	31
-0.0008	-0.0015	0.0045	0.0255	-2.3	31
-0.003	-0.0105	0.006	-0.0091	-1.9	31
-0.0015	-0.0143	0.0105	-0.0825	-2.1	31
-0.0023	-0.012	0.012	-0.1283	-2.2	31
-0.0023	-0.0165	0.0052	-0.0743	-2.1	31
0.0052	-0.0128	0.003	0.0337	-2	31
0.0165	-0.0015	0.0015	0.1012	-1.9	31
0.0217	0.0157	-0.0015	0.0675	-2.2	31
0.0195	0.0307	-0.0015	0.0472	-2.1	31
0.012	0.0217	-0.0038	0.0405	-2.1	31
-0.0008	0.0075	-0.0068	-0.0068	-2.2	31
-0.012	-0.0105	-0.0068	-0.0083	-2.3	31
-0.0128	-0.0083	-0.012	0.0075	-1.8	31
-0.015	-0.0038	-0.012	0.0202	-2.3	31
-0.0315	-0.0068	-0.0046	0.018	-1.9	31
-0.042	-0.0015	0.006	-0.0068	-2.2	31
-0.0143	-0.0008	0.0142	-0.012	-2.1	31
0.0067	0.0045	0.0165	-0.0158	-2.1	31
0.0045	0.0015	0.0135	-0.0315	-2.2	31
0.0097	-0.0015	0.0142	-0.0353	-2	31
0.0052	-0.0143	0.0142	-0.0368	-2.2	31
0.0045	-0.0181	0.009	-0.0278	-1.7	31
0.0067	-0.0083	-0.003	0.012	-2.2	31
0.003	-0.0046	-0.0128	0.033	-2.2	31
0.0052	-0.0068	-0.0158	0.0412	-2.2	31
0.0015	-0.0195	-0.0113	0.0367	-2.1	31
0.0022	-0.0083	-0.0015	0.0082	-2.2	31
0.0037	0.009	0.0067	-0.0053	-2	31
0.0045	0.0045	0.0157	-0.021	-2	31
0.0067	-0.0053	0.0127	-0.027	-2	31
0.0045	-0.0181	0.003	-0.0218	-1.9	31
0.003	-0.0158	0.0015	-0.0105	-2.2	31
0.0037	-0.0053	-0.0015	0.018	-1.8	31
0.003	-0.0083	-0.0046	0.0165	-2.2	31
0	-0.0091	-0.0053	-0.0181	-1.9	31
-0.0015	-0.0098	0	-0.0195	-2.2	31
0.0007	-0.003	0	0.0015	-2	31
0.003	0.003	-0.0053	-0.0015	-2.2	31
0.0045	0	-0.0105	-0.0068	-2.2	31
0.0045	0.0037	-0.012	-0.0068	-2.2	31
0.0022	0	-0.0046	-0.006	-2.1	31
0.0007	0	-0.0008	-0.0046	-2	31
-0.003	-0.0023	-0.0068	-0.0195	-2.1	31
-0.0046	-0.0008	-0.012	-0.0405	-2.1	31
-0.0015	0.003	-0.0165	-0.0495	-2.2	31
-0.003	-0.0015	-0.0256	-0.0181	-2	31
-0.0023	-0.012	-0.027	0.0307	-2.2	31
-0.003	-0.0233	-0.0218	0.0555	-2	31
-0.006	-0.0128	-0.0143	0.0735	-2.1	31
-0.0105	-0.0046	0.0015	0.0495	-2	31
-0.0068	-0.0053	0.0157	-0.0015	-1.9	31
0.0052	0.0007	0.0262	-0.0105	-1.9	31
0.0037	-0.0008	0.027	-0.0053	-1.8	31
0.0052	0.0015	0.0225	0.0172	-2.4	31
0.0052	0.009	0.0202	0.0315	-1.8	31
-0.0008	0.0082	0.0157	0.03	-1.9	31
0.0007	0.009	0.0067	0.0172	-2.1	31
-0.0046	0.0127	0.0015	-0.027	-2.2	31
-0.0068	0.009	-0.0038	-0.0473	-2.2	31
-0.0053	0.0127	-0.006	-0.0398	-2.2	31
-0.0053	0.0105	-0.0046	-0.0285	-1.8	31
-0.0038	0.0082	-0.0075	0.0015	-2.2	31
-0.0053	0.0052	-0.0091	0.003	-1.9	31
-0.0053	-0.0075	-0.0091	-0.003	-2.2	31
-0.0068	-0.0203	-0.0046	0.0045	-1.9	31
-0.0083	-0.0308	-0.003	-0.0083	-2	31
-0.003	-0.0188	-0.0046	-0.012	-2	31
0.0045	-0.0083	-0.0023	-0.0218	-1.8	31
0.0045	-0.0023	-0.003	-0.0293	-2.1	31
0.0037	0.0045	-0.0023	-0.0195	-1.9	31
0.0112	0.003	-0.0083	-0.0008	-2.2	31
0.012	0.006	-0.0181	0.0045	-2	31
0.0037	0.0075	-0.0195	0.0202	-1.9	31
0.006	0.0075	-0.0165	0.0765	-1.9	31
0.0165	0.0045	-0.012	0.0742	-2	31
0.018	0.0015	0.0022	0.018	-1.8	31
0.0142	-0.003	0.0157	-0.015	-2.2	31
0.0067	-0.003	0.024	-0.003	-1.8	31
-0.0008	0.0007	0.027	0.0142	-2	31
-0.0046	0	0.0232	-0.0075	-1.9	31
-0.0091	-0.003	0.018	-0.0503	-2	31
-0.0188	-0.0113	0.0037	-0.0848	-2.1	31
-0.0413	-0.0091	-0.0158	-0.0615	-1.9	31
-0.048	-0.0098	-0.0323	-0.0091	-2.2	31
-0.0195	-0.0128	-0.0338	0.063	-1.7	31
-0.0008	-0.0143	-0.027	0.0862	-2.2	31
-0.0008	-0.012	-0.0225	0.0127	-1.9	31
0.0067	-0.0015	-0.012	-0.0075	-2	31
0.0052	0.006	0.0015	-0.0091	-2	31
0.0045	0.003	0.0127	-0.0346	-2	31
0.003	-0.0075	0.0202	-0.0375	-1.9	31
-0.0008	-0.003	0.0277	-0.0405	-2.1	31
-0.0015	0.0105	0.0315	-0.024	-1.9	31
-0.006	0.0045	0.027	-0.0046	-1.9	31
0.003	-0.0046	0.0135	0.042	-2	31
0.0105	-0.0015	0.0015	0.0855	-1.8	31
0.0127	-0.0068	-0.0015	0.048	-2.1	31
0.0105	-0.0053	-0.0083	0.0052	-1.8	31
0.0082	0.003	-0.0105	0.003	-2.2	31
0.0127	0.0105	-0.0091	0.0127	-1.8	31
0.009	0.009	-0.0105	0.0015	-2.2	31
0.003	-0.0008	-0.0068	-0.0158	-1.9	31
-0.0075	0.0015	-0.0053	-0.0218	-1.9	31
-0.0225	0.003	-0.003	-0.0308	-1.9	31
-0.0233	-0.012	0.0022	-0.0158	-1.8	31
-0.0091	-0.0135	0.0067	0.0127	-2	31
-0.0038	-0.0128	0.0067	0.0292	-2.1	31
-0.0008	-0.015	-0.0008	0.021	-1.8	31
0.0052	-0.0083	-0.006	-0.0008	-2	31
0.0045	-0.0068	-0.0075	-0.0098	-1.9	31
0.009	0.0015	-0.0083	-0.0256	-1.9	31
0.0142	0.0045	-0.0053	-0.0285	-2	31
0.0075	0.0067	-0.0023	-0.024	-1.8	31
-0.0038	-0.0015	0.003	-0.0203	-2	31
-0.006	-0.0113	0.0082	-0.012	-1.9	31
-0.0008	-0.0023	0.0052	-0.0105	-1.9	31
0.0015	-0.0023	-0.0038	-0.0128	-1.8	31
0.0037	-0.0143	-0.015	-0.0046	-1.9	31
0.003	-0.0128	-0.0233	0.006	-2.1	31
0.0015	-0.0046	-0.0248	0.009	-2	31
-0.0008	-0.0015	-0.0181	0.0105	-1.9	31
-0.0015	0.0015	-0.0083	0.0007	-1.9	31
-0.0008	0.0052	0.0052	-0.0038	-1.8	31
-0.0053	0.0082	0.018	0.0255	-1.8	31
-0.003	0.0015	0.0262	0.0172	-2	31
0	-0.0015	0.0255	-0.0038	-1.7	31
-0.0015	-0.0015	0.0172	-0.0015	-2.1	31
-0.0015	-0.0128	0.0082	-0.0165	-1.6	31
0.003	-0.0098	-0.003	-0.0098	-2.2	31
0.0037	0.003	-0.0135	-0.0338	-1.7	31
0.003	0.0135	-0.0158	-0.0495	-2	31
0.0037	0.009	-0.0128	0.0015	-1.8	31
0.003	-0.0023	-0.012	0.0157	-1.9	31
0.0015	-0.0083	-0.0083	0.051	-1.8	31
-0.0015	-0.012	-0.0008	0.0712	-1.7	31
-0.0038	-0.0046	0.0037	0.03	-1.9	31
-0.0015	-0.0015	0.003	0.0165	-1.8	31
0.0015	-0.003	-0.0015	-0.0091	-1.9	31
-0.0015	0.0007	-0.0015	-0.0083	-1.9	31
-0.0105	-0.0098	-0.0046	-0.0008	-2.2	31
-0.0105	-0.0188	-0.0053	-0.0053	-1.5	31
-0.0068	-0.0068	-0.0038	0.0007	-1.9	31
-0.0053	0.0075	-0.003	0.009	-1.7	31
-0.0008	0.0097	-0.0075	0.0112	-1.9	31
0.0022	0.0045	-0.0158	0.003	-1.6	31
0.006	0.0037	-0.0143	-0.0173	-1.9	31
0.0127	0.012	-0.0068	-0.078	-1.9	31
0.0172	0.0105	-0.0023	-0.0315	-1.8	31
0.0105	0.009	0.0052	0.0795	-2	31
0.0007	0.0105	0.0142	0.0787	-1.6	31
0.0015	0.0082	0.0195	0.0262	-2	31
0.0067	0.0105	0.0217	-0.0158	-1.9	31
0.018	0.012	0.0232	-0.0203	-1.8	31
0.0255	0.012	0.0165	-0.0038	-1.9	31
0.0195	0.0007	0.0015	0.0007	-1.8	31
0.0067	-0.015	-0.0188	-0.006	-1.7	31
-0.0038	-0.0173	-0.0346	-0.0173	-1.9	31
-0.0068	-0.0075	-0.033	-0.0233	-1.8	31
-0.0105	0.003	-0.027	-0.03	-1.7	31
-0.024	0.0082	-0.0158	-0.0683	-1.9	31
-0.048	0.006	0.0007	-0.0818	-1.6	31
-0.0608	-0.0053	0.018	0.015	-1.9	31
-0.0338	-0.0165	0.0307	0.096	-1.6	31
-0.0053	-0.0135	0.033	0.0727	-1.9	31
0.0007	-0.003	0.0315	0.0142	-1.7	31
0.003	0.0045	0.0255	-0.003	-2.1	31
0.0007	0.012	0.009	0.0067	-1.8	31
0.0007	0.0052	0.0015	-0.0075	-1.8	31
0.003	0.0007	0.0052	-0.0068	-1.8	31
0.009	0.009	0.003	-0.0091	-1.8	31
0.009	0.0045	-0.0053	-0.012	-1.6	31
0.0022	-0.006	-0.0083	-0.0098	-1.8	31
0.0007	-0.0165	-0.0075	-0.0113	-1.7	31
0.003	-0.0263	-0.0068	-0.0083	-1.7	31
0.0082	-0.0278	-0.0113	-0.0091	-1.8	31
0.0127	-0.0218	-0.0128	-0.003	-1.6	31
0.0112	-0.0135	-0.0105	-0.0015	-1.9	31
0.0082	0.0022	-0.0091	0.0082	-1.7	31
0.0052	0.0225	-0.0091	0.0142	-1.9	31
0.0022	0.018	-0.0105	0.0082	-1.8	31
0.0045	0.0127	-0.0091	-0.0075	-1.6	31
0.0037	0.0127	-0.003	-0.0443	-1.9	31
-0.0015	-0.0068	0.0007	-0.063	-1.6	31
-0.0038	-0.0195	-0.0008	-0.0323	-1.8	31
-0.006	-0.0278	0.0007	0.0217	-1.8	31
-0.0083	-0.0188	0.0022	0.0352	-1.7	31
-0.0023	-0.0008	0.0037	0.0157	-1.8	31
0.0007	-0.006	0.0045	-0.003	-2	31
0	-0.0008	0.0007	0.003	-1.7	31
-0.0008	-0.0015	-0.003	0.0202	-1.9	31
-0.0015	-0.0008	-0.0053	0.0045	-1.7	31
-0.003	0.0037	-0.0053	-0.024	-2	31
-0.0068	0.0015	-0.0046	-0.0135	-1.6	31
-0.003	0.0082	-0.0128	0.0195	-1.9	31
-0.0015	0.009	-0.0203	0.0352	-1.8	31
-0.0038	0.0067	-0.0158	0.039	-1.6	31
-0.0008	0.0015	-0.012	0.0307	-1.9	31
-0.0023	-0.0068	-0.0105	-0.0091	-1.6	31
0.0015	-0.0083	-0.0023	-0.0405	-1.7	31
0.0052	-0.0038	0.009	-0.0353	-1.8	31
0.0052	-0.0023	0.021	-0.033	-1.7	31
0.0007	0.0007	0.0232	-0.0091	-1.9	31
-0.0008	0.0142	0.0195	0.0397	-1.9	31
-0.0008	0.0127	0.0135	0.027	-1.5	31
-0.0023	-0.003	0.0015	-0.0008	-1.8	31
-0.003	-0.0046	-0.0135	0.009	-1.7	31
-0.0053	-0.0068	-0.024	-0.0008	-1.7	31
-0.0015	-0.0075	-0.0233	-0.003	-1.7	31
0	-0.0068	-0.0181	-0.0015	-1.7	31
0.0082	-0.0068	-0.0128	-0.0128	-1.9	31
0.0142	-0.0083	-0.0008	-0.0083	-1.6	31
0.0097	-0.0128	0.0112	0.0112	-2	31
0.009	-0.0015	0.0217	0.033	-1.6	31
0.0045	0.0045	0.0345	0.0277	-1.9	31
0.0037	0.0112	0.0367	-0.0023	-1.8	31
0.0007	0.006	0.0285	-0.024	-1.8	31
0.003	0.0015	0.0135	-0.033	-1.8	31
0.0105	0.0082	-0.0008	-0.0353	-1.8	31
-0.0038	0.0037	-0.0098	-0.048	-1.6	31
-0.0068	-0.0046	-0.0128	-0.027	-1.6	31
-0.0015	-0.0173	-0.012	0.0517	-1.9	31
-0.006	-0.021	-0.0091	0.081	-1.6	31
-0.0053	-0.0128	-0.0068	0.0442	-1.8	31
-0.0128	-0.0188	-0.0083	0.0172	-1.5	31
-0.0293	-0.0256	-0.0091	0	-1.9	31
-0.0458	-0.0143	-0.0053	0.0075	-1.5	31
-0.0278	0.0015	-0.006	0.0105	-1.9	31
-0.0008	-0.0023	-0.0105	-0.0158	-1.6	31
-0.0023	-0.0083	-0.0128	-0.0256	-1.8	31
0.0075	-0.0015	-0.0135	-0.0195	-1.7	31
0.009	0.0112	-0.0128	-0.0315	-1.6	31
0.0082	0.0127	-0.012	-0.0315	-1.7	31
0.009	0.0052	-0.0113	0.0015	-1.8	31
0.003	0.0075	-0.012	0.0187	-1.7	31
0.0082	0.0082	-0.0188	0.0097	-1.8	31
0.0052	0	-0.0188	0.003	-1.5	31
0.003	-0.0091	-0.012	0.003	-1.6	31
0.0052	-0.0203	-0.0046	-0.0068	-1.7	31
0.0045	-0.0218	0.0067	-0.0165	-1.5	31
0.003	-0.0135	0.0217	-0.0075	-1.8	31
-0.0075	-0.0046	0.0337	-0.0068	-1.4	31
-0.006	0.0082	0.0367	-0.0091	-1.7	31
0	0.0022	0.0307	-0.0008	-1.6	31
0.0037	-0.003	0.021	-0.0008	-1.6	31
0.0045	0.0007	0.0075	0.0007	-1.8	31
0.0037	0.0067	-0.0053	-0.0098	-1.5	31
0.0052	0.0157	-0.0091	-0.0248	-1.6	31
0.0082	0.006	-0.0068	-0.0285	-1.7	31
0.012	0.0022	-0.0098	-0.042	-1.6	31
0.009	0.003	-0.0098	-0.0135	-1.7	31
0.0015	-0.0046	-0.0091	0.0105	-1.8	31
-0.0015	-0.0128	-0.0083	0.0127	-1.4	31
-0.0046	-0.0083	-0.006	0.057	-1.8	31
-0.0046	0.0052	-0.0053	0.0675	-1.4	31
0	0.0052	-0.0015	0.0082	-1.8	31
-0.003	0.0045	0.0015	-0.06	-1.6	31
-0.0038	0.003	0.0007	-0.0683	-1.6	31
-0.0023	0.0045	-0.0008	-0.0173	-1.5	31
-0.006	0.0015	-0.0008	0.0495	-1.4	31
-0.0046	-0.003	0.0007	0.0667	-1.6	31
-0.0015	-0.0008	0.0007	0.0345	-1.4	31
-0.0046	-0.0008	0.003	0.0135	-1.7	31
-0.0105	-0.003	0.0045	0.0022	-1.7	31
-0.0091	-0.0083	-0.0008	-0.027	-1.5	31
-0.0008	-0.0083	-0.003	-0.0383	-1.6	31
-0.0008	-0.006	-0.0046	-0.027	-1.6	31
-0.003	-0.003	-0.0053	-0.0308	-1.3	31
-0.0008	-0.0015	-0.006	-0.0105	-1.6	31
0.0007	-0.0038	-0.0105	0.0457	-1.4	31
0.0045	-0.0046	-0.0158	0.09	-1.6	31
0.0015	-0.0046	-0.0173	0.0472	-1.5	31
-0.0038	0.003	-0.015	-0.0128	-1.5	31
-0.0053	0.0082	-0.0091	-0.0143	-1.7	31
-0.003	0.0067	0.0022	-0.0091	-1.4	31
0.0052	0.003	0.0082	-0.0046	-1.9	31
0.009	-0.0015	0.0067	0.0007	-1.3	31
0.009	-0.0008	0.0097	0.0082	-1.8	31
0.0105	-0.0046	0.0105	0.0022	-1.4	31
0.0082	-0.0091	0.0105	-0.0218	-1.4	31
0.0052	-0.0068	0.012	-0.033	-1.5	31
0.0015	0.0052	0.009	-0.0256	-1.6	31
-0.0015	0.0082	0.009	0.0052	-1.4	31
-0.0158	-0.0008	0.0105	0.0195	-1.5	31
-0.024	-0.0053	0.009	-0.0068	-1.5	31
-0.0113	-0.0165	0.0067	-0.0218	-1.3	31
-0.003	-0.012	-0.0015	-0.0181	-1.6	31
-0.003	0.0015	-0.0083	-0.006	-1.3	31
-0.0015	-0.0015	-0.012	0.009	-1.7	31
-0.003	-0.0008	-0.0083	0.012	-1.4	31
-0.0008	0.0007	-0.0046	-0.0195	-1.6	31
0.0007	-0.0046	-0.0053	-0.0293	-1.6	31
0.0015	-0.0075	-0.0053	0.0165	-1.4	31
0.0045	-0.0075	-0.0068	0.0435	-1.6	31
0.003	-0.0053	-0.0075	0.0255	-1.4	31
0.0022	-0.0075	-0.0105	-0.0158	-1.6	31
0.0022	-0.0046	-0.0113	-0.0278	-1.5	31
0.003	0.0045	-0.006	0.0007	-1.6	31
0.0022	0.0037	-0.0015	0.0202	-1.6	31
0.0007	-0.0046	0	0.0082	-1.7	31
0	-0.0053	0.0015	-0.0105	-1.4	31
-0.0008	0.0052	-0.0015	-0.0008	-1.5	31
0.0052	0.0112	-0.003	0.0045	-1.5	31
0.0135	0.0007	-0.003	0.0022	-1.4	31
0.0202	0.0022	-0.0053	-0.0008	-1.6	31
0.0157	0.0082	-0.0015	-0.0181	-1.4	31
0.0105	0.0037	-0.0038	-0.0173	-1.7	31
0.0082	0.0052	-0.0046	-0.0091	-1.2	31
0.003	-0.0053	-0.0053	-0.0158	-1.7	31
-0.0046	-0.0143	-0.0128	-0.0083	-1.3	31
-0.0143	-0.027	-0.0128	-0.0098	-1.6	31
-0.0293	-0.0308	-0.0165	-0.0233	-1.5	31
-0.0383	-0.0248	-0.0203	-0.021	-1.6	31
-0.0135	-0.0256	-0.0113	-0.0075	-1.5	31
0.0007	-0.0068	-0.0015	0.0382	-1.5	31
-0.0015	0.006	0.009	0.051	-1.5	31
0.0052	0.0105	0.0225	0.009	-1.4	31
0.0015	0.009	0.0322	0.0037	-1.6	31
0.0022	0.0015	0.0352	0.0052	-1.4	31
0	0.0007	0.0307	0.0067	-1.5	31
-0.003	-0.0053	0.0247	0.0022	-1.4	31
-0.0008	-0.015	0.0165	-0.0015	-1.6	31
-0.003	-0.0188	0.003	0.0067	-1.4	31
0.0007	-0.0098	-0.0091	0.003	-1.5	31
0.0015	-0.0015	-0.0143	0.0015	-1.8	31
0.0022	0.003	-0.012	-0.0091	-1.4	31
0.0007	0.0022	-0.0128	-0.0158	-1.7	31
0.0007	0.0015	-0.012	-0.0405	-1.5	31
0.003	0.003	-0.015	-0.0346	-1.4	31
0.0052	0.0015	-0.0165	0.0232	-1.5	31
0.0045	0.0045	-0.0143	0.015	-1.5	31
0.003	0.0037	-0.012	-0.0068	-1.4	31
0	-0.0008	-0.0053	-0.0113	-1.6	31
-0.0046	-0.0008	0.0045	-0.0405	-1.2	31
-0.003	0.0015	0.0082	-0.0203	-1.8	31
0.0015	0.0015	0.006	0.0375	-1.4	31
0.0045	-0.0015	0.0015	0.0915	-1.4	31
0.003	-0.0038	-0.0053	0.0787	-1.5	31
0.003	-0.0038	-0.0105	0.0112	-1.3	31
0.0052	-0.0015	-0.0181	-0.0188	-1.6	31
0.0067	0.003	-0.0195	-0.0068	-1.2	31
0.0045	0.0007	-0.0165	0.015	-1.6	31
-0.003	-0.0046	-0.0233	-0.0046	-1.5	31
-0.0091	-0.006	-0.0181	-0.0218	-1.4	31
-0.0068	-0.0091	-0.0008	-0.0083	-1.4	31
0.009	-0.0098	0.0127	-0.0015	-1.5	31
0.0105	0.0045	0.0277	-0.0008	-1.3	31
-0.0053	0.0045	0.0375	-0.0181	-1.6	31
-0.0068	-0.012	0.0352	-0.0285	-1.4	31
-0.0091	-0.0105	0.0322	-0.0098	-1.4	31
-0.0143	-0.0053	0.024	0.0082	-1.6	31
-0.0083	0.0052	0.0105	0.003	-1.3	31
-0.0015	0.018	0.0045	-0.0113	-1.6	31
0	0.0217	-0.003	0.024	-1.2	31
0.0007	0.009	-0.012	0.0427	-1.6	31
0.0045	0.0007	-0.0113	0.0007	-1.3	31
0.0075	0.0082	-0.0091	-0.0091	-1.5	31
0.0052	-0.0158	-0.0105	-0.0218	-1.4	31
-0.0015	-0.0375	-0.0113	-0.0068	-1.4	31
-0.0015	-0.0263	-0.0075	0.0592	-1.5	31
-0.0008	-0.0165	-0.0068	0.0577	-1.4	31
-0.0008	-0.0091	-0.0075	0.0022	-1.6	31
