File Name: 9Asen.log
Channel 1: 'Recto femoral', 18706 values, engineering units: mV, no filters.
Channel 2: 'Biceps Femoral', 18706 values, engineering units: mV, no filters.
Channel 3: 'Vasto Medial', 18706 values, engineering units: mV, no filters.
Channel 4: 'Semitendinoso', 18706 values, engineering units: mV, no filters.
Channel 5: 'Flexo', 18706 values, engineering units: deg, no filters.
Digitals combined (event=16, d=8, c=4, b=2, a=1): 18706 values, .

-0.0008	-0.0113	-0.003	-0.0015	-9.7	31
-0.0075	-0.0533	0.0052	-0.0068	-9.4	31
0.0052	-0.0473	-0.0023	-0.0053	-9.5	31
-0.0083	-0.012	-0.0068	-0.003	-9.5	31
-0.0181	-0.0128	-0.0188	0	-9.5	31
-0.0188	-0.0158	-0.03	-0.0008	-9.3	31
-0.0338	-0.012	-0.0233	0.0007	-9.4	31
-0.027	-0.0083	-0.0233	0.0007	-9.6	31
0.0015	0.0007	-0.0256	0.0007	-9.3	31
0.0202	0.0015	-0.0346	0.0015	-9.4	31
0.0277	0.0052	-0.0383	0.0007	-9.5	31
0.0322	0.0045	-0.0233	0.0015	-9.1	31
0.0322	0.009	-0.006	0.0052	-9.7	31
0.0202	0.0082	0.003	0.0067	-9.2	31
0.0015	0.0105	-0.0015	0.003	-9.2	31
-0.021	0.012	0.0052	-0.0008	-9.3	31
-0.0353	-0.0015	0.027	-0.0023	-9.2	31
-0.0315	-0.0008	0.0255	-0.0008	-9.2	31
-0.0158	0	0.0157	-0.0008	-9.3	31
-0.0143	-0.0091	0.0165	0	-9.1	31
-0.0105	-0.024	0.0045	0.0015	-9.5	31
-0.0195	-0.039	-0.0195	-0.0015	-9.3	31
-0.0248	-0.0293	-0.0338	-0.0053	-9.1	31
0.0015	-0.0068	-0.027	-0.003	-9.4	31
0.0082	0.0007	-0.0203	-0.0008	-9.1	31
0.0142	0.0105	-0.0075	0.0045	-9.3	31
0.0225	0.0165	0.0142	0.0075	-9.2	31
0.009	-0.0023	0.0315	0.0045	-9	31
0.0015	-0.0203	0.0442	-0.003	-9.3	31
-0.0023	-0.0256	0.0382	-0.0068	-8.9	31
-0.0053	-0.0165	0.0232	-0.0023	-9.2	31
-0.0068	-0.0098	0.0052	-0.0008	-9.1	31
-0.0053	0.0007	-0.0008	-0.0008	-9.1	31
0.0007	0.0097	0.0007	-0.0008	-9.3	31
0.009	0.0172	-0.003	0.0007	-9	31
0.0202	0.033	0.0022	0.0015	-8.8	31
0.0135	0.0187	0.0067	-0.003	-9.1	31
-0.0075	-0.012	0.0105	-0.0053	-8.8	31
-0.021	-0.0315	0.0142	-0.0053	-9.2	31
-0.0143	-0.021	-0.0015	-0.0015	-9	31
0.0022	-0.0038	-0.024	-0.0008	-8.9	31
0.0022	0.0022	-0.0315	-0.0008	-9.1	31
0.0075	0.015	-0.0315	-0.0008	-8.8	31
0.012	0.0157	-0.0315	0	-9	31
0.0007	0.0195	-0.0346	0.0007	-9	31
-0.0083	0.0187	-0.0368	-0.0015	-9	31
-0.0113	0.0045	-0.0533	0.0007	-8.9	31
0.0015	0.0015	-0.0555	0.0037	-8.9	31
0.0165	0.0022	-0.024	0.0007	-8.9	31
0.0232	0.0037	-0.0128	-0.003	-8.9	31
0.027	0.0135	-0.012	-0.0038	-8.9	31
0.0172	0.0157	0.0067	-0.0075	-8.9	31
0.0015	0.0045	0.033	-0.012	-9	31
-0.0128	-0.0158	0.0735	-0.0128	-8.7	31
-0.0181	-0.033	0.0937	-0.0143	-8.9	31
-0.0143	-0.0263	0.093	-0.0128	-8.7	31
-0.0068	-0.0233	0.0727	-0.0083	-9	31
0.003	-0.03	0.0337	-0.0053	-8.4	31
0.0127	-0.0308	0.0052	-0.0015	-8.9	31
-0.003	-0.0105	-0.0046	0.003	-8.8	31
-0.0203	0.0007	-0.0046	0.0075	-8.9	31
-0.0105	-0.0023	-0.012	0.0067	-8.8	31
-0.0128	0.0052	-0.0188	0.0082	-8.6	31
-0.024	-0.0008	-0.0278	0.0097	-8.7	31
-0.0218	0.0045	-0.0383	0.0105	-8.8	31
-0.0143	0.0142	-0.042	0.0105	-8.7	31
-0.0015	0.0142	-0.039	0.009	-8.8	31
0.0067	0.009	-0.0346	0.0082	-8.9	31
0.0067	0.0052	-0.027	0.006	-8.6	31
0.0172	0.021	-0.0181	0.0075	-9	31
0.0277	0.0427	-0.0233	0.003	-8.6	31
0.0285	0.0487	-0.03	-0.003	-8.7	31
0.0225	0.0292	-0.0173	-0.006	-8.6	31
0.0135	0.0007	0.0082	-0.0075	-8.6	31
0.0157	-0.0375	0.0382	-0.0083	-8.9	31
0.0075	-0.0405	0.042	-0.0075	-8.5	31
0.003	-0.0083	0.0015	-0.003	-9	31
0.012	0.0157	-0.0488	0.0015	-8.6	31
0.0045	0.018	-0.0525	0.003	-8.9	31
-0.012	-0.0135	0.0022	0.0015	-8.7	31
-0.0181	-0.0315	0.0465	0.0007	-8.6	31
-0.0158	-0.0465	0.0705	0.0015	-8.5	31
-0.0143	-0.0653	0.0817	-0.0008	-8.6	31
-0.0165	-0.045	0.075	0.0015	-8.4	31
-0.0181	0.0045	0.0615	0.0015	-8.6	31
-0.012	0.0427	0.039	-0.0023	-8.6	31
0.0052	0.0577	0.0045	-0.0046	-8.5	31
-0.0083	0.0322	-0.039	-0.0075	-8.8	31
-0.0278	-0.0158	-0.0608	-0.0091	-8.4	31
-0.0195	-0.0465	-0.057	-0.0105	-8.9	31
-0.0195	-0.0668	-0.0578	-0.0068	-8.3	31
-0.0068	-0.0428	-0.0525	0.0007	-8.8	31
0.0052	-0.0113	-0.0405	0.0015	-8.3	31
0.0045	0.0015	-0.0338	0.003	-8.6	31
0.0202	0.0127	-0.0263	0.0045	-8.6	31
0.0352	0.0187	-0.0218	0.0067	-8.6	31
0.0457	0.0195	-0.0256	0.006	-8.4	31
0.039	0.0052	-0.0361	0.0015	-8.5	31
0.0142	-0.006	-0.0608	-0.0008	-8.4	31
0.018	-0.0068	-0.054	-0.0008	-8.4	31
0.024	0.006	-0.012	0.0052	-8.3	31
0.009	0.0232	0.0202	0.0075	-8.3	31
-0.0015	0.0127	0.0487	0.003	-8.5	31
-0.0315	-0.0053	0.0585	-0.0015	-8.3	31
-0.06	-0.0068	0.0772	-0.0038	-8.5	31
-0.0668	-0.0203	0.108	-0.0053	-8.3	31
-0.063	-0.0308	0.1215	-0.0068	-8.4	31
-0.039	-0.0203	0.123	-0.006	-8.3	31
-0.0158	-0.0038	0.1005	-0.0023	-8.2	31
-0.0046	0.0157	0.0607	0	-8.3	31
0.0082	0.0157	0.0202	0.0007	-8.1	31
0.009	0.0157	-0.0128	0.0067	-8.3	31
0.0045	0.0195	-0.0338	0.0157	-8.2	31
-0.0053	0.0105	-0.039	0.0202	-8.1	31
-0.015	0.0015	-0.042	0.012	-8.3	31
-0.0083	-0.0083	-0.0383	0.009	-8.2	31
-0.0008	-0.0046	-0.033	0.0067	-8	31
0.009	0.0105	-0.024	0.0015	-8.4	31
0.018	0.0172	-0.0278	0.0022	-7.8	31
0.0255	0.0082	-0.0443	0.0007	-8.3	31
0.0217	-0.0128	-0.0503	-0.003	-7.8	31
0.0135	-0.0285	-0.0585	-0.0068	-8.2	31
0.0315	-0.0218	-0.0585	-0.006	-8	31
0.033	-0.006	-0.0465	-0.0053	-8	31
0.0112	-0.0046	-0.0361	-0.0091	-8.1	31
-0.0038	0.0082	-0.021	-0.0113	-7.7	31
-0.006	0.024	-0.003	-0.0098	-8	31
-0.0128	0.0142	0.0112	-0.0091	-8	31
-0.0181	-0.0293	0.012	-0.012	-7.8	31
0.0007	-0.0383	0.0105	-0.0091	-7.9	31
0.0135	-0.0113	0.0165	-0.0046	-8	31
0.0067	-0.006	0.0247	0.0007	-7.6	31
0.0082	0.0037	0.0232	0	-8	31
0.0142	0.0015	0.0105	-0.0015	-7.6	31
0.0075	0.0007	0.009	-0.0015	-7.9	31
0.0022	-0.003	0.0105	-0.003	-7.8	31
0.0007	-0.0083	-0.0015	-0.0008	-7.7	31
-0.0091	-0.0023	-0.0105	0.003	-7.9	31
-0.0188	-0.003	-0.0038	0.003	-7.5	31
-0.0173	0.0022	-0.0038	0.003	-8	31
-0.0105	0.0045	-0.0181	0.0015	-7.4	31
-0.0046	0.0097	-0.0256	0.0007	-8	31
0.0082	0.0127	-0.0233	0.0007	-7.5	31
0.03	0.0157	-0.0218	0.003	-7.6	31
0.0315	0.0202	-0.0181	0.0007	-7.6	31
0	0.0195	-0.0046	-0.0023	-7.6	31
-0.0165	0.0225	0.0067	-0.003	-7.4	31
-0.0143	0.0315	0.0105	-0.0068	-7.6	31
-0.0075	0.0142	0.0082	-0.0053	-7.7	31
-0.0098	-0.0353	0.0007	-0.0038	-7.4	31
-0.0218	-0.0458	0.0022	-0.0046	-7.7	31
0.0015	-0.0413	0.0202	-0.0038	-7.3	31
0.024	-0.0488	0.0172	-0.003	-7.7	31
0.0217	-0.0368	0.009	-0.0023	-7.2	31
0.0142	-0.0263	0.0187	-0.003	-7.7	31
-0.0015	-0.0158	0.0112	-0.0053	-7.5	31
-0.0188	0.0015	0.0052	-0.0046	-7.5	31
-0.0278	0.0142	-0.006	-0.0015	-7.5	31
-0.0218	0.009	-0.0203	-0.003	-7.4	31
-0.0181	-0.0135	-0.0046	-0.0053	-7.4	31
-0.0113	-0.0263	0.0112	-0.003	-7.5	31
-0.0075	-0.0068	0.0202	-0.0015	-7.4	31
-0.0053	0.0097	0.0232	-0.0053	-7.5	31
0	0.0097	0.0127	-0.006	-7.6	31
-0.0023	0.0105	0.0082	-0.0008	-7.3	31
0.0015	0.0105	0.0052	0.0007	-7.5	31
-0.006	0.0112	-0.0068	0.0022	-7.4	31
0.0015	0.0127	-0.015	0.0052	-7.4	31
0.0127	0.0082	-0.0563	0.0037	-7.5	31
0.0105	0.0052	-0.1298	0.0045	-7.2	31
0.024	0.0082	-0.1283	0.0082	-7.5	31
0.0375	0.0127	-0.0713	0.0097	-7.1	31
0.033	0.0277	-0.0248	0.0067	-7.5	31
0.0165	0.0345	0.0397	0.0037	-7.1	31
0.0157	0.0292	0.0765	0.0045	-7.5	31
0.0202	0.0202	0.0765	-0.0008	-7.2	31
-0.0158	-0.021	0.0735	-0.0083	-7.3	31
-0.0608	-0.048	0.0735	-0.0091	-7.4	31
-0.048	-0.0263	0.0592	-0.0075	-7.4	31
-0.0293	-0.0143	0.0517	-0.0053	-7.1	31
-0.012	-0.0053	0.0592	-0.0015	-7.4	31
0.0007	-0.0105	0.0517	0.0007	-7.2	31
-0.0091	-0.015	0.0712	-0.0008	-7.3	31
-0.0091	-0.0218	0.0652	-0.0053	-7.2	31
-0.0248	-0.0458	0.018	-0.0105	-7.2	31
-0.021	-0.0368	-0.024	-0.0075	-7.4	31
-0.012	-0.0233	-0.0488	-0.0038	-7.1	31
-0.0143	-0.0038	-0.048	-0.003	-7.3	31
-0.0008	0.0105	-0.0518	0	-7.2	31
0.018	0.018	-0.0465	0.0045	-7.1	31
0.0405	0.0232	-0.045	0.0075	-7.3	31
0.0442	0.012	-0.048	0.0052	-7.1	31
0.0322	0.0007	-0.0548	0.0045	-7.2	31
0.0097	-0.0046	-0.0675	0.006	-7.2	31
0.0082	0.0105	-0.0691	0.0097	-7.2	31
0.033	0.0307	-0.0511	0.012	-7.2	31
0.0225	0.0487	-0.0143	0.0082	-7.3	31
-0.0008	0.0555	-0.0008	0.0037	-6.8	31
-0.0165	0.0315	0.0217	-0.003	-7.5	31
-0.0346	-0.0083	0.0547	-0.0083	-6.9	31
-0.0278	-0.0361	0.0577	-0.0053	-7.3	31
0.006	-0.0346	0.0442	-0.0023	-7.1	31
0.03	-0.0256	0.0307	-0.0046	-7.1	31
0.0142	-0.054	0.027	-0.0053	-7.1	31
0.0015	-0.0503	0.0127	-0.0015	-7.1	31
-0.0091	-0.0203	0.0037	0.0015	-7.2	31
-0.0233	-0.0181	0.012	0	-7.1	31
-0.0068	0.0015	0.0105	-0.0008	-7.2	31
0.0075	0.0112	0.0007	-0.0008	-7.3	31
0.0082	0.0022	-0.0008	0.0007	-7.2	31
0.0172	-0.012	-0.0091	0.0007	-7.1	31
0.0202	-0.0173	-0.0158	0.0007	-7.5	31
0.006	-0.0015	-0.0181	0.003	-6.8	31
-0.0091	0.018	-0.0233	0.006	-7.2	31
-0.033	0.0292	-0.0233	0.009	-7.2	31
-0.06	0.0202	-0.0158	0.012	-7.2	31
-0.0443	0.0105	-0.0083	0.0112	-7.2	31
0.0015	0.0075	-0.0233	0.0067	-7.1	31
0.033	0.0157	-0.0495	0.0015	-7.4	31
0.033	0.018	-0.0488	0	-6.9	31
0.0082	0.0195	-0.0383	0.0015	-7.4	31
0.0277	0.0217	-0.0346	0.0037	-7	31
0.033	0.003	-0.03	0.0007	-7.2	31
-0.0165	-0.0233	-0.0143	-0.0053	-7.3	31
-0.0165	-0.021	0.0022	-0.0068	-7.2	31
-0.003	-0.0008	0.0015	-0.0075	-7.2	31
-0.0008	-0.0143	0.0187	-0.0083	-7.2	31
0.012	-0.0068	0.0495	-0.0015	-7.3	31
0.0045	-0.0046	0.078	-0.0008	-7.1	31
-0.0091	-0.0511	0.0705	-0.0075	-7.4	31
-0.0173	-0.0675	0.0405	-0.0083	-7	31
-0.024	-0.048	0.0142	-0.0075	-7.4	31
-0.024	-0.0181	-0.0315	-0.0068	-7	31
-0.0098	0.0007	-0.0623	-0.006	-7.2	31
0.0045	0.0142	-0.063	-0.0053	-7.1	31
0.0082	0.0187	-0.0398	-0.0038	-7.2	31
0.0052	0.0112	0.0105	-0.0038	-7.2	31
-0.0128	0.0022	0.054	-0.003	-7	31
-0.0091	-0.0015	0.0652	0.0022	-7.3	31
0.0052	0.0165	0.0457	0.0082	-7.1	31
0.012	0.0292	0.0045	0.0112	-7	31
0.0307	0.0247	-0.0248	0.0097	-7.1	31
0.0405	-0.0015	-0.0638	0.0105	-7.2	31
0.0345	-0.012	-0.1208	0.0127	-7	31
0.027	0.0232	-0.1388	0.0082	-7.2	31
0.0172	0.027	-0.132	0.0007	-7.1	31
-0.0105	0.0052	-0.0998	-0.0046	-7.1	31
-0.0225	0.0165	-0.0113	-0.003	-7.1	31
-0.0068	0.0255	0.0847	-0.0038	-7	31
-0.012	0.0052	0.1837	-0.0046	-7.3	31
0.0037	-0.0098	0.2655	-0.0068	-6.9	31
0.0255	-0.0105	0.2775	-0.0083	-7.1	31
0.0082	-0.006	0.24	-0.0091	-6.9	31
-0.0218	-0.027	0.1485	-0.0113	-7.2	31
-0.0691	-0.06	0.069	-0.0075	-7	31
-0.0968	-0.0533	0.0105	-0.0068	-7	31
-0.0818	-0.054	-0.0233	-0.0068	-7	31
-0.0383	-0.0375	-0.0315	-0.0046	-7.2	31
-0.0181	-0.0068	-0.045	-0.0046	-6.8	31
-0.0083	-0.0075	-0.0533	-0.0015	-7.2	31
0.0052	0.0112	-0.06	0.0022	-7.1	31
0.0067	0.0195	-0.0563	0.0045	-7.1	31
0.0097	0.0202	-0.0555	0.0022	-7.1	31
0	0.018	-0.054	0.0045	-7	31
0.0105	0.0172	-0.0555	0.0075	-7.1	31
0.0157	0.0232	-0.0555	0.006	-6.8	31
0.0202	0.0202	-0.0608	0.0082	-7	31
0.039	0.0202	-0.0713	0.009	-7.1	31
0.0307	-0.0068	-0.066	0.006	-7	31
0.0135	-0.0203	-0.0675	0.0067	-7.2	31
0.0022	-0.0143	-0.0653	0.0082	-6.8	31
0.0082	-0.0158	-0.0518	0.0052	-6.9	31
0.0127	-0.0083	-0.0353	0.0067	-6.9	31
0.0082	0.0097	-0.0233	0.0067	-7	31
0.018	0.0217	-0.0105	0.0082	-6.8	31
0.0412	0.0292	0.012	0.0105	-7.1	31
0.0397	0.0262	0.0157	0.0022	-6.8	31
0.0217	0.0007	0.0052	-0.0068	-7.2	31
0.009	-0.0233	0.0007	-0.0083	-6.7	31
-0.0053	-0.0105	0.003	-0.0053	-6.9	31
-0.0158	0.003	0.0165	-0.006	-6.4	31
-0.012	-0.0143	0.0345	-0.0053	-6.8	31
-0.0053	-0.0143	0.0375	-0.0038	-6.7	31
-0.0165	-0.0315	0.0232	-0.0038	-6.7	31
-0.0203	-0.0346	0.0052	-0.0015	-6.8	31
-0.0165	0.0007	0.0022	0	-6.6	31
-0.0105	-0.003	-0.0015	-0.0015	-6.8	31
-0.0023	0.0007	-0.0173	-0.0015	-6.6	31
-0.0105	0.0052	-0.0218	-0.0015	-6.8	31
-0.0068	-0.003	-0.0256	-0.0038	-6.6	31
-0.0015	0.0015	-0.039	-0.003	-6.8	31
0.0067	0.0045	-0.0555	-0.0015	-6.4	31
0.0187	0.0052	-0.054	-0.0008	-6.7	31
0.0052	0.0112	-0.0473	0.003	-6.4	31
0.012	0.0442	-0.048	0.0045	-6.5	31
0.0157	0.078	-0.0353	0.0067	-6.5	31
-0.0008	0.063	-0.0075	0.003	-6.3	31
-0.0008	0.0187	0.0375	-0.0008	-6.5	31
-0.0113	-0.027	0.0532	-0.0015	-6.3	31
-0.0008	-0.0691	0.0427	-0.0038	-6.7	31
0.0217	-0.0803	0.048	-0.003	-6.1	31
0.018	-0.0653	0.042	-0.006	-6.6	31
0.0202	-0.033	0.039	-0.0038	-6.5	31
0.0097	-0.0098	0.0532	-0.003	-6.3	31
-0.0173	-0.0083	0.0667	-0.0068	-6.2	31
-0.0518	0.003	0.0712	-0.0053	-6.3	31
-0.048	-0.0015	0.0592	-0.0053	-6.2	31
-0.0218	-0.0068	0.0457	-0.0023	-6.3	31
-0.0143	-0.0105	0.0195	0	-6.5	31
-0.003	-0.0053	0	0.0015	-6.2	31
0.0022	0.0015	-0.0083	0.0007	-6.3	31
0.0067	-0.0008	-0.0233	-0.0015	-6.2	31
0.0067	0.0022	-0.033	-0.003	-6.6	31
-0.0015	0.0007	-0.0368	-0.0038	-6	31
-0.0158	0.0037	-0.033	-0.0023	-6.3	31
-0.0203	0.0045	-0.03	0	-6.1	31
0.009	0.009	-0.024	0.0015	-6.4	31
0.0307	0.018	-0.0128	0.0045	-6.1	31
0.0172	0.0202	-0.0105	0.006	-6.2	31
0.0082	0.0157	-0.0128	0.0067	-6.3	31
0.018	0.003	-0.0128	0.0075	-6.2	31
0.012	0.003	-0.0091	0.0037	-6.1	31
0.0067	-0.0023	-0.012	0.0015	-6.3	31
-0.0053	-0.0143	-0.0091	0	-6.2	31
-0.0428	-0.0233	0.0082	-0.003	-6	31
-0.0518	-0.0225	0.0135	0	-6.3	31
-0.0256	-0.0053	0.0097	0.0022	-6.1	31
-0.0098	0.0015	-0.0008	0.003	-6.2	31
-0.0113	0.003	-0.0015	0.0007	-6.1	31
0.0075	0.0022	0.0037	-0.003	-6.1	31
0.021	0.0007	-0.0083	-0.003	-6.1	31
0.0165	-0.0038	-0.0143	0.0007	-6	31
0.0285	-0.0113	-0.0113	0.0022	-6.3	31
0.0315	0.0015	-0.0195	0.0045	-5.9	31
0.0255	0.0187	-0.0218	0.0037	-6.3	31
0.033	0.024	-0.0195	0.0007	-6.1	31
0.0367	0.033	-0.0233	-0.0008	-6.1	31
0.0195	0.033	-0.015	-0.0023	-6.3	31
-0.0128	0.0127	-0.0008	-0.0046	-6.2	31
-0.0368	-0.0008	0.012	-0.0015	-5.9	31
-0.0436	-0.006	0.024	0	-6.2	31
-0.0338	-0.0128	0.033	0.0007	-5.9	31
-0.0128	-0.0256	0.0367	0.0007	-6.4	31
-0.0098	-0.0398	0.0195	0.0007	-5.8	31
-0.0143	-0.0323	0.0037	0.0022	-6.2	31
-0.0181	-0.0083	-0.006	0.0007	-6	31
-0.0293	-0.0015	-0.0181	-0.0023	-6.2	31
-0.0173	-0.0075	-0.015	-0.0015	-6.2	31
-0.003	0.0075	-0.0023	-0.003	-6	31
0.003	0.018	0.0082	-0.0053	-6.2	31
0.0202	0.0105	0.0007	-0.006	-6	31
0.0405	-0.024	-0.0091	-0.0098	-6	31
0.054	-0.0473	-0.0128	-0.0143	-6	31
0.0517	-0.0218	-0.0256	-0.0128	-6.1	31
0.0202	-0.0046	-0.0165	-0.0075	-5.9	31
0.0075	0.015	0.0165	-0.003	-6.3	31
0.012	0.042	0.0352	0.0007	-6	31
-0.0015	0.042	0.0315	0.0052	-6.1	31
0.0157	0.0352	0.0202	0.0052	-6.1	31
0.0112	0.0277	0.0202	0.0052	-6.1	31
-0.0405	-0.0256	0.0195	0.0007	-6.3	31
-0.0803	-0.0578	0.0052	-0.003	-5.8	31
-0.0885	-0.0195	0.0105	-0.003	-6.3	31
-0.042	-0.0158	0.0337	-0.006	-6	31
-0.0128	-0.0256	0.0375	-0.0053	-6.3	31
-0.0091	-0.0203	0.0307	-0.0023	-5.9	31
-0.0023	-0.0443	0.0142	0.0007	-6	31
-0.0105	-0.0338	-0.0323	0.0015	-6.2	31
-0.012	0.009	-0.0915	0.003	-6.2	31
-0.0053	0.033	-0.1373	0.0015	-6.3	31
0.009	0.057	-0.1396	0.0037	-6.2	31
0.0405	0.066	-0.1028	0.0067	-6.4	31
0.0802	0.054	-0.0758	0.0082	-6	31
0.1012	0.042	-0.057	0.0127	-6.5	31
0.0862	0.0202	-0.0278	0.0082	-6	31
0.027	-0.027	0.0232	-0.0008	-6.5	31
0.0045	-0.081	0.0645	-0.0038	-6	31
0.0367	-0.0788	0.0847	-0.0038	-6.3	31
0.0517	-0.0315	0.1267	-0.0068	-6.2	31
0.0457	-0.0091	0.144	-0.0091	-6.2	31
-0.0248	-0.027	0.1485	-0.012	-6.3	31
-0.1193	-0.0413	0.144	-0.0158	-6.2	31
-0.1381	-0.0398	0.1065	-0.012	-6.3	31
-0.1006	-0.0195	0.0555	-0.0091	-6.3	31
-0.081	-0.0165	-0.0008	-0.0075	-6.4	31
-0.0555	-0.015	-0.0308	-0.003	-6.4	31
-0.0181	0.006	-0.0436	0.0007	-6.5	31
-0.0113	-0.0053	-0.045	0.0007	-6.1	31
0.0015	0.003	-0.0465	0.003	-6.5	31
0.0195	0.0082	-0.048	0.0052	-6.3	31
0.039	0.0142	-0.0405	0.0067	-6.3	31
0.0397	0.03	-0.0353	0.0067	-6.4	31
0.0255	0.033	-0.0278	0.0082	-6.3	31
0.0255	0.0382	-0.0375	0.0112	-6.3	31
0.0165	0.0345	-0.0488	0.0127	-6.1	31
-0.006	0.0202	-0.0315	0.012	-6.6	31
-0.0113	-0.012	-0.0233	0.0097	-6.2	31
-0.003	-0.0098	-0.0278	0.0082	-6.5	31
-0.0158	0.0067	-0.0218	0.0052	-6.3	31
-0.0173	-0.0091	-0.0135	0.0015	-6.3	31
0.0172	-0.0023	-0.0068	0.0015	-6.4	31
0.039	0.0075	-0.0098	-0.0023	-6.5	31
0.0442	-0.0053	-0.0135	-0.0015	-6.3	31
0.0382	0.0015	-0.0046	0.003	-6.5	31
0.0052	0.0142	-0.006	0.003	-6.2	31
-0.0008	0.0232	-0.0173	0.0022	-6.3	31
0.003	0.0165	-0.0233	0.0022	-6.3	31
-0.0113	-0.0098	-0.0091	0.0015	-6.4	31
-0.0173	-0.027	0.003	0	-6.3	31
-0.0023	-0.0315	-0.0046	-0.0015	-6.3	31
0.0165	-0.0233	-0.012	-0.0015	-6.4	31
0.0067	-0.0046	-0.0188	-0.0008	-6.2	31
0.0015	0.0052	-0.0173	0.0007	-6.3	31
0.0045	0.003	-0.0053	-0.0008	-6.3	31
0.0082	0.0142	-0.0015	-0.0015	-6.3	31
0.0105	0.0217	0.0127	-0.0038	-6.4	31
0.0075	0.0187	0.0277	-0.0068	-6.2	31
-0.0105	0.0015	0.0315	-0.012	-6.2	31
-0.024	-0.0165	0.0337	-0.0128	-6.3	31
-0.0195	-0.0158	0.0307	-0.0091	-6.3	31
-0.0053	-0.0068	0.0202	-0.0075	-6.1	31
0.003	-0.0135	0.0015	-0.0068	-6.3	31
-0.0158	-0.0375	-0.0158	-0.0091	-6	31
-0.0203	-0.042	-0.0158	-0.0091	-6.5	31
-0.0143	-0.0143	-0.0165	-0.0023	-6.1	31
-0.0068	0.0067	-0.0256	0.0015	-6.4	31
0.0105	0.0202	-0.0233	0.0052	-6.1	31
0.0232	0.033	-0.0181	0.0015	-6.1	31
0.015	0.0202	-0.0091	-0.0038	-6.3	31
0.0052	0.0157	-0.0068	-0.003	-6	31
0.0082	0.0277	0.0015	-0.0008	-6.1	31
0.015	0.0322	0.0255	0.0045	-6.2	31
0.0195	0.0105	0.0382	-0.0015	-6.3	31
0.0052	-0.0158	0.0502	-0.0083	-6.2	31
-0.0015	-0.0233	0.048	-0.0075	-6.4	31
-0.003	-0.0256	0.0345	-0.0091	-6.1	31
-0.0105	-0.024	0.0352	-0.0083	-6.5	31
-0.0128	-0.0263	0.0315	-0.0091	-6	31
-0.027	-0.0361	0.0217	-0.0105	-6.3	31
-0.0383	-0.0458	0.0112	-0.0083	-6.2	31
-0.0278	-0.0225	-0.0091	-0.003	-6.2	31
-0.0113	-0.0075	-0.0181	0.0037	-6.3	31
0.0045	0	-0.021	0.0082	-6.1	31
0.015	0.0142	-0.0248	0.0105	-6.4	31
0.012	0.0075	-0.0143	0.0112	-6	31
0.0075	-0.0046	-0.006	0.0105	-6.5	31
0.0082	-0.006	-0.012	0.0082	-6.3	31
0.0052	0.009	-0.0181	0.0082	-6.3	31
-0.0091	0.012	-0.0233	0.006	-6.3	31
-0.0098	0.0112	-0.0225	0.003	-6.2	31
-0.006	0.0172	-0.0323	0.003	-6.2	31
-0.015	0.0232	-0.0495	0.0015	-6.3	31
-0.0015	0.0277	-0.0533	0.0015	-6.3	31
0.0082	0.0142	-0.0578	-0.0015	-6.1	31
0.009	-0.0181	-0.0563	-0.0068	-6.4	31
0.0255	-0.033	-0.0256	-0.0083	-6	31
0.0277	-0.012	0.0187	-0.0053	-6.4	31
0.0202	0.009	0.0652	-0.0046	-6	31
0.0202	0.0045	0.0825	-0.0023	-6.3	31
0.0127	-0.0308	0.0622	0	-6.2	31
0.0037	-0.0405	0.0435	0.0022	-6.2	31
0.0022	-0.0075	0.0315	0.0045	-6.3	31
-0.0181	0.009	-0.0023	0.0022	-6.2	31
-0.0008	0.0127	-0.0383	0.0045	-6.3	31
0.0225	0.0232	-0.045	0.0067	-6.1	31
0.009	0.0427	-0.0488	0.0075	-6	31
-0.0068	0.0682	-0.0165	0.0052	-6.3	31
-0.0465	0.054	0.0367	0.0007	-6.3	31
-0.0458	-0.0165	0.0532	-0.0023	-6.1	31
-0.0173	-0.057	0.0517	-0.003	-6.3	31
0	-0.0188	0.051	-0.0008	-6	31
0.018	0.0022	0.0337	0.0015	-6.3	31
-0.0008	-0.0293	0	0.0015	-6.1	31
-0.0105	-0.039	-0.0083	0.0007	-6.2	31
-0.027	-0.0346	-0.0083	-0.0038	-6.3	31
-0.0503	-0.045	-0.0046	-0.0083	-6.1	31
-0.0473	-0.0405	0.0165	-0.006	-6.5	31
-0.027	-0.033	0.0195	-0.0015	-6.2	31
0.009	-0.0165	-0.0338	0.0007	-6.3	31
0.0345	0.0232	-0.081	0.003	-6.3	31
0.0277	0.0337	-0.06	0.0015	-6.3	31
-0.0008	0.042	-0.054	0.0007	-6.2	31
0.0135	0.051	-0.0848	0.0037	-6.5	31
0.0352	0.0615	-0.0878	0.006	-6.2	31
0.0052	0.0877	-0.057	0.0082	-6.6	31
-0.015	0.0667	-0.0091	0.0052	-6.3	31
0.0045	0.027	0.024	0.0067	-6.3	31
0.0315	-0.024	0.0555	0.0045	-6.3	31
0.027	-0.1058	0.0855	-0.0023	-6.3	31
-0.0098	-0.1463	0.0967	-0.0113	-6.4	31
-0.045	-0.1238	0.1012	-0.0128	-6.3	31
-0.0383	-0.0825	0.0967	-0.0083	-6.6	31
-0.0218	-0.0533	0.0682	-0.0046	-6.3	31
-0.0143	-0.0293	0.0307	-0.0008	-6.3	31
0.0022	-0.0038	-0.0015	-0.0008	-6.3	31
0.0202	0.012	-0.0173	0.0007	-6.4	31
0.0382	0.0277	-0.0256	0.003	-6.4	31
0.0232	0.0307	-0.0256	0.0007	-6.6	31
0.0052	0.024	-0.0173	0.0007	-6.3	31
0.0157	0.0255	-0.0143	0.0015	-6.3	31
0.0217	0.0142	-0.0173	0.003	-6.4	31
0.015	-0.0008	-0.033	0.0015	-6.3	31
0.0292	0.0045	-0.045	0.003	-6.6	31
0.0487	0.0202	-0.042	0.0045	-6	31
0.0307	0.0165	-0.027	0.003	-6.7	31
0.009	0.0075	-0.0165	0.0045	-6.4	31
-0.0008	0.0082	-0.0181	0.0052	-6.5	31
-0.0173	0.0142	-0.012	0.003	-6.3	31
-0.048	0.0217	-0.0038	0.0015	-6.5	31
-0.0578	0.018	0.0045	-0.0008	-6.4	31
-0.0203	0.0127	0.0097	-0.0068	-6.3	31
0.003	0.0075	0.0105	-0.0046	-6.3	31
0.009	0.0142	0.0142	-0.0008	-6.5	31
0.0225	0.012	0.0067	0	-6.4	31
0.0097	-0.0075	-0.0046	0.0007	-6.2	31
-0.0053	-0.0181	-0.0053	0.0015	-6.5	31
-0.0046	-0.0203	-0.0128	0.0037	-6.1	31
-0.0105	-0.0143	-0.0428	0.0037	-6.5	31
-0.0091	-0.0135	-0.0878	0.0015	-6.3	31
0.0022	-0.0105	-0.1006	0	-6.4	31
-0.003	-0.003	-0.0735	0.0015	-6.3	31
-0.0015	0.0007	-0.0578	0.0067	-6.2	31
0.0292	0.0082	-0.054	0.0067	-6.5	31
0.0367	0.0157	-0.0405	-0.0008	-6.1	31
0.0007	0.0262	0.0082	-0.0105	-6.4	31
-0.0413	0.018	0.0457	-0.0128	-6.2	31
-0.0608	0.009	0.0352	-0.0068	-6.2	31
-0.054	0.027	0.0217	-0.003	-6.2	31
-0.0113	0.0585	0.021	-0.0008	-6.3	31
0.0382	0.0645	0.0442	0.0015	-6.3	31
0.0495	0.027	0.0952	0.003	-6.3	31
0.015	-0.0285	0.1215	-0.0008	-6.2	31
-0.0083	-0.0585	0.1117	-0.0038	-6.2	31
0.015	-0.0638	0.0982	-0.0046	-6.3	31
0.0277	-0.0563	0.0817	-0.0053	-6.1	31
0.0322	-0.0203	0.063	-0.0068	-6.3	31
0.0067	-0.0158	0.0442	-0.012	-6.1	31
-0.0383	-0.0346	0.042	-0.012	-6.4	31
-0.042	-0.0165	0.033	-0.0091	-6.1	31
-0.0158	0.003	0.0052	-0.0046	-6.4	31
-0.0053	0.0142	-0.0233	0.0007	-6.3	31
-0.0181	0.015	-0.0361	0.0007	-6.3	31
-0.0128	-0.0008	-0.0338	0.0022	-6.3	31
-0.003	-0.0046	-0.0413	0.0045	-6.4	31
0.0007	0.0075	-0.0405	0.0052	-6.3	31
0.006	0.0075	-0.045	0.003	-6.3	31
0.0135	-0.0068	-0.0443	0	-6.2	31
0.018	0.0067	-0.0405	-0.0008	-6.3	31
0.0337	0.0187	-0.0488	-0.0023	-6.3	31
0.0405	-0.0015	-0.0413	-0.0015	-6.3	31
0.0075	-0.0165	-0.0353	-0.0038	-6.3	31
-0.0436	-0.0158	-0.0263	-0.0053	-6.3	31
-0.0803	-0.0293	-0.024	-0.0023	-6.3	31
-0.054	-0.0285	-0.0165	-0.0008	-6.2	31
-0.0263	-0.006	-0.0046	0.0015	-6.1	31
-0.015	-0.0105	-0.003	0.0007	-6.4	31
0.0082	-0.0083	0.0015	0.0015	-6.1	31
0.0052	-0.0053	0.0067	0.0015	-6.4	31
-0.0105	-0.0038	0.006	-0.0008	-6.3	31
-0.0038	-0.0015	-0.0038	-0.003	-6.3	31
0.0225	0.0045	-0.0053	-0.0008	-6.3	31
0.0165	0.0105	-0.0053	0.0015	-6.3	31
0.0007	-0.0023	-0.0091	0.0015	-6.2	31
-0.0046	0	-0.033	0.003	-6.5	31
-0.0143	0.009	-0.0638	0.0045	-6.2	31
-0.0105	0.0225	-0.0698	0.006	-6.5	31
0.015	0.03	-0.0465	0.0067	-6	31
0.024	0.03	0.009	0.0045	-6.3	31
0.0082	0.0337	0.0525	0.003	-6.1	31
0.0165	0.0255	0.069	0.0022	-6.2	31
0.021	0.0135	0.0547	0	-6.3	31
0.0082	0.0082	0.0165	-0.0038	-6.1	31
0.0232	-0.0128	-0.0233	-0.0091	-6.3	31
0.0247	-0.0383	-0.0353	-0.0113	-6.3	31
-0.0083	-0.0383	-0.0218	-0.0083	-6.2	31
0.0097	-0.0278	-0.003	-0.0023	-6.3	31
0.0247	-0.012	0.027	0.0045	-6.2	31
-0.003	-0.0105	0.0525	0.0037	-6	31
-0.024	-0.0495	0.0615	-0.0091	-6.4	31
-0.0368	-0.0555	0.0367	-0.0128	-6.3	31
-0.024	-0.0068	0.0015	-0.0105	-6.2	31
-0.0105	0.033	-0.0233	-0.0083	-6.3	31
-0.0046	0.048	-0.0293	-0.0023	-6.1	31
0.0052	0.0217	-0.015	-0.003	-6.4	31
0.0142	-0.0105	-0.0113	-0.003	-6	31
0.015	-0.0293	-0.0053	-0.003	-6.3	31
0.006	-0.048	0.009	-0.003	-6.2	31
0.0015	-0.0473	0.0172	-0.0023	-6.3	31
-0.0105	-0.0353	0.027	-0.0023	-6.2	31
-0.0158	-0.0218	0.0292	0.0007	-6.3	31
-0.0091	-0.0165	0.018	0.0007	-6.3	31
0.0045	-0.0105	-0.0023	0.0045	-6.3	31
0.0315	0.0037	-0.0233	0.0052	-6.3	31
0.0352	0.012	-0.024	0.006	-6.1	31
0.0135	0.0112	-0.0181	0.0037	-6.3	31
0.0045	0.0112	-0.0256	0.0022	-6	31
0.003	0.0157	-0.0278	0.003	-6.4	31
0.0112	0.0285	-0.0181	0.0015	-6	31
0.0195	0.033	-0.0158	0.0007	-6.3	31
0.0037	0.0307	-0.003	0.0007	-6.3	31
0.006	0.0367	0.003	0.0007	-6.2	31
0.024	0.03	-0.0218	-0.0023	-6.4	31
0.0232	0.0217	-0.042	-0.0023	-6.1	31
-0.0038	0.0157	-0.0428	-0.003	-6.5	31
-0.0488	0.009	-0.0256	-0.003	-6.1	31
-0.054	-0.0008	-0.0068	-0.0008	-6.3	31
-0.0181	-0.0233	0.0105	-0.0008	-6.4	31
-0.0015	-0.0338	0.027	0	-6.3	31
-0.0046	-0.0555	0.0345	-0.0008	-6.2	31
-0.0346	-0.0585	0.0315	-0.003	-6.3	31
-0.0511	-0.0375	0.0345	-0.0038	-6.3	31
-0.0128	-0.0436	0.0217	-0.0046	-6.2	31
-0.0008	-0.024	-0.012	-0.003	-6.5	31
0.0045	0.003	-0.0593	0.0007	-6.2	31
0.0225	0.027	-0.075	0.003	-6.4	31
0.0232	0.0532	-0.0315	0.0052	-6.2	31
0.021	0.0465	0.0082	0.009	-6.6	31
0.012	0.0202	0.072	0.0105	-6.2	31
0.027	-0.0308	0.1245	0.0082	-6.5	31
0.0345	-0.042	0.1177	0.0052	-6.2	31
0.0352	-0.0128	0.093	0.003	-6.3	31
0.0345	-0.0046	0.039	0.0045	-6.3	31
0.003	0.024	-0.0143	0.0067	-6.3	31
-0.0323	0.0172	-0.0728	-0.0023	-6.3	31
-0.063	-0.012	-0.1103	-0.0091	-6.5	31
-0.0975	-0.0128	-0.09	-0.0075	-6.3	31
-0.0953	-0.0135	-0.0706	-0.0068	-6.3	31
-0.006	0.0052	-0.033	-0.0053	-6.3	31
0.0525	0.027	0.0307	-0.003	-6.2	31
0.0577	0.0442	0.0727	-0.0008	-6.5	31
0.042	0.0217	0.0937	-0.0038	-6.3	31
-0.0465	-0.0315	0.0915	-0.0075	-6.4	31
-0.093	-0.0293	0.072	-0.0068	-6.3	31
-0.0668	-0.003	0.0457	-0.0046	-6.3	31
-0.0293	-0.0023	0.0292	-0.0038	-6.6	31
0.003	-0.012	0.0232	-0.0015	-6.1	31
0.0067	-0.0578	-0.0038	-0.0038	-6.7	31
-0.0128	-0.0713	-0.0765	-0.006	-6.3	31
-0.0248	-0.0165	-0.1515	-0.0008	-6.4	31
-0.003	0.015	-0.1575	0.003	-6.3	31
0.039	0.0292	-0.1275	0.0045	-6.3	31
0.0682	0.0517	-0.0623	0.0052	-6.2	31
0.0795	0.0645	0.0097	0.0052	-6.5	31
0.0667	0.057	0.0427	0.0007	-6.2	31
0.0217	0.0337	0.078	-0.003	-6.5	31
0.012	-0.0165	0.0907	-0.003	-6.3	31
0.0255	-0.0638	0.0532	-0.003	-6.3	31
0.0262	-0.0495	0.0067	-0.003	-6.3	31
0.048	-0.027	-0.0091	-0.0046	-6.3	31
0.0465	-0.0105	0.0067	-0.0015	-6.4	31
0.0277	-0.003	0.0322	-0.0053	-6.2	31
-0.0091	-0.0511	0.0682	-0.015	-6.4	31
-0.0728	-0.0773	0.0937	-0.0135	-6.1	31
-0.0675	-0.0443	0.0795	-0.0083	-6.3	31
-0.0308	-0.0181	0.0577	-0.0015	-6.3	31
-0.0218	-0.0105	0.0232	0.0037	-6.3	31
-0.0068	0.0015	-0.0075	0.009	-6.3	31
-0.0008	0.0232	-0.0218	0.0105	-6.4	31
0.0015	0.0367	-0.0495	0.0052	-6.2	31
-0.0091	0.048	-0.078	0.0045	-6.3	31
-0.0158	0.0405	-0.0878	0.006	-6.4	31
-0.0128	0.0075	-0.0706	0.0067	-6.2	31
0.0007	-0.012	-0.0615	0.0097	-6.5	31
0.018	-0.0008	-0.057	0.0075	-6.2	31
0.0007	0.0187	-0.0525	0.0052	-6.5	31
-0.0128	0.039	-0.039	0.003	-6.1	31
-0.0256	0.0802	-0.021	0.0007	-6.3	31
-0.0256	0.0855	-0.0165	-0.0008	-6.3	31
-0.0015	0.0082	0.0105	-0.0015	-6.3	31
-0.0038	-0.0735	0.0352	-0.0038	-6.2	31
-0.0015	-0.0803	0.0465	-0.0046	-6.3	31
0.0157	-0.0428	0.0495	0.0007	-6.2	31
0.0135	-0.0323	0.0382	-0.0008	-6.2	31
0.0052	-0.0315	0.009	-0.003	-6.3	31
-0.0008	-0.0181	-0.0285	-0.0008	-6	31
0.0135	-0.0068	-0.0383	0.003	-6.5	31
0.0367	0.0052	-0.0368	0.0037	-6	31
0.0337	0.0052	-0.0293	0.0007	-6.3	31
0.0225	0.0157	-0.0068	-0.0008	-6	31
0.0022	0.0172	0.0127	-0.0046	-6.3	31
-0.0023	0.0195	0.0322	-0.003	-6.1	31
0	0.0255	0.0345	-0.0053	-6.2	31
-0.0053	0.0142	0.0307	-0.0068	-6.2	31
-0.0015	0.0007	0.0307	-0.006	-6	31
-0.012	-0.0158	0.024	-0.0068	-6.3	31
-0.0181	-0.0158	0.0067	-0.0083	-6.1	31
-0.0256	-0.003	-0.015	-0.0083	-6.3	31
-0.0293	0.006	-0.0181	-0.0053	-6.1	31
-0.015	0.0082	-0.0165	-0.003	-6.1	31
-0.012	0.0082	-0.012	0.0015	-6	31
-0.006	0.009	-0.0098	0.0052	-6.3	31
0.009	0.015	-0.0165	0.012	-5.9	31
0.024	0.0195	-0.0285	0.0165	-6.2	31
0.0232	0.0285	-0.0383	0.018	-6.2	31
0.0157	0.0412	-0.0383	0.0172	-6.1	31
0.0045	0.0435	-0.0495	0.0127	-6.1	31
-0.0038	0.033	-0.0743	0.0082	-6	31
0.009	-0.0113	-0.0856	0.0045	-6.3	31
0.006	-0.0728	-0.0555	0.0022	-5.9	31
-0.0135	-0.0818	-0.0248	-0.003	-6.3	31
-0.0233	-0.0398	0.018	-0.0068	-5.9	31
-0.0098	-0.0368	0.0435	-0.0105	-6	31
0.0082	-0.0346	0.024	-0.0105	-5.9	31
0.024	-0.0068	-0.0293	-0.003	-6.1	31
0.0345	0.0082	-0.0953	-0.0015	-5.9	31
0.012	0.0165	-0.0803	-0.0075	-6.2	31
-0.0075	0.0097	-0.0473	-0.0105	-6	31
0.0022	0.006	0.0352	-0.0068	-6	31
0.0232	0.0105	0.1725	-0.0083	-5.9	31
0.0247	0.0052	0.2437	-0.0091	-5.8	31
-0.0068	-0.0263	0.2767	-0.0091	-6	31
-0.0428	-0.039	0.2527	-0.0091	-5.8	31
-0.045	-0.0308	0.2025	-0.0091	-5.9	31
-0.0188	-0.0173	0.1132	-0.0068	-5.9	31
-0.0068	0.003	-0.0075	-0.003	-6	31
0.0195	0.0082	-0.0668	-0.0015	-6	31
0.0562	0.0105	-0.0788	0	-5.8	31
0.0682	-0.0015	-0.0698	0.0007	-5.8	31
0.0637	0.0105	-0.0856	0.006	-6	31
0.0495	0.0367	-0.1125	0.0082	-6	31
0.0345	0.0532	-0.1215	0.009	-6	31
0.003	0.0705	-0.1148	0.0082	-5.9	31
-0.0443	0.0547	-0.0968	0.0067	-5.8	31
-0.0938	0.0217	-0.0555	0.0075	-6	31
-0.1575	-0.0315	-0.0053	0.0082	-5.6	31
-0.135	-0.0758	0.021	0.009	-6	31
-0.0465	-0.0908	0.0195	0.0052	-5.6	31
-0.0233	-0.0668	-0.0346	0.0045	-5.9	31
0.0232	-0.0143	-0.1313	0.003	-5.7	31
0.0457	-0.006	-0.1756	0.0007	-5.9	31
0.0067	-0.0023	-0.1411	0.0037	-5.8	31
-0.0195	0.018	-0.081	0.0067	-5.8	31
-0.0533	0.042	0.0315	0.0082	-5.9	31
-0.0143	0.0255	0.1237	0.0015	-5.6	31
0.0532	0.006	0.1552	-0.0053	-5.8	31
0.0622	0.0135	0.18	-0.0023	-5.7	31
0.0075	-0.039	0.1575	-0.003	-5.7	31
-0.0465	-0.0848	0.102	-0.0038	-5.4	31
-0.027	-0.0833	0.0525	-0.003	-5.9	31
0.0097	-0.0413	0.006	-0.0053	-5.5	31
0.0337	0.0007	0.003	-0.0075	-5.8	31
0.0397	0.03	0.0262	-0.012	-5.7	31
0.0292	0.0442	0.027	-0.012	-5.6	31
0.0022	0.0007	0.0195	-0.0113	-5.6	31
-0.0143	-0.0143	-0.012	-0.0105	-5.4	31
0.0022	-0.003	-0.0315	-0.0023	-5.8	31
0.0165	0.0157	-0.0458	0.0015	-5.4	31
0.0322	0.0315	-0.0668	0.0022	-5.9	31
0.0262	0.0465	-0.057	0.006	-5.5	31
0.006	0.0592	-0.0511	0.0067	-5.6	31
-0.0023	0.0202	-0.0428	0.0067	-5.6	31
-0.006	-0.0195	-0.0293	0.0067	-5.5	31
0.0105	-0.0375	-0.027	0.0075	-5.5	31
0.0187	-0.024	-0.0263	0.0052	-5.7	31
-0.0015	-0.0361	-0.0256	0.0007	-5.4	31
-0.0353	-0.0308	-0.0195	-0.0023	-5.4	31
-0.0346	0.0007	-0.012	-0.0046	-5.7	31
-0.0188	-0.0105	-0.0068	-0.0046	-5.5	31
-0.0068	0.0045	-0.003	-0.003	-5.7	31
0.0067	0.0097	-0.0015	-0.0038	-5.4	31
0.0045	0.012	0.0045	-0.0008	-5.9	31
0.0195	0.0195	0.0135	0.0015	-5.3	31
0.0217	0.0082	0.0165	0.003	-5.7	31
0.0142	0.0052	0.0052	0.0037	-5.4	31
0.0067	0.003	-0.0015	0.0015	-5.4	31
-0.0053	-0.0053	0.0082	-0.0046	-5.5	31
0.015	-0.0195	0.0225	-0.0075	-5.4	31
0.0427	0.0015	0.0232	-0.003	-5.5	31
0.0607	0.0232	0.009	-0.003	-5.6	31
0.0247	0.0105	0.0135	-0.0046	-5.6	31
-0.0413	-0.0091	0.0255	-0.0053	-5.4	31
-0.0548	-0.0195	0.0217	-0.0083	-5.6	31
-0.0443	-0.0105	0.0082	-0.0083	-5.4	31
-0.0353	-0.0203	-0.0105	-0.0075	-5.6	31
-0.0181	-0.0203	-0.0188	-0.0068	-5.4	31
-0.0105	-0.0068	-0.0173	-0.003	-5.5	31
-0.0128	-0.0023	-0.0128	-0.0008	-5.6	31
-0.0053	0.0052	-0.0128	-0.0008	-5.3	31
-0.0015	0.009	-0.0165	0.0037	-5.7	31
-0.0008	0.0165	-0.033	0.006	-5.4	31
-0.0023	0.024	-0.0518	0.006	-5.4	31
0.0022	0.0352	-0.0503	0.0067	-5.4	31
0.0112	0.0495	-0.0518	0.0052	-5.4	31
0.0142	0.0487	-0.048	0.003	-5.5	31
0.0217	0.0217	-0.0233	-0.0008	-5.7	31
0.0165	-0.0143	0.0052	-0.003	-5.2	31
-0.0083	-0.0405	0.0367	-0.0053	-5.7	31
-0.0218	-0.0495	0.0682	-0.0053	-5.4	31
-0.0068	-0.0428	0.0787	-0.0068	-5.6	31
0.0142	-0.0008	0.0705	-0.0046	-5.5	31
0.0255	0.0015	0.0585	-0.0015	-5.4	31
0.012	-0.0233	0.0345	0	-5.6	31
-0.0083	-0.0008	0.009	0.0045	-5.4	31
-0.0105	-0.0256	0	0.0052	-5.7	31
-0.0083	-0.0518	-0.006	0.0037	-5.4	31
-0.003	-0.042	-0.0105	0.0037	-5.6	31
-0.0008	-0.0098	-0.0083	0.0045	-5.6	31
0.0022	0.0037	-0.0143	0.0022	-5.5	31
0.0187	0.0045	-0.0256	0.0045	-5.6	31
0.0465	0.0255	-0.0165	0.0052	-5.4	31
0.0517	0.0172	-0.0083	0.0037	-5.4	31
0.0247	0.0315	-0.0233	0.0045	-5.4	31
0.0165	0.0532	-0.0263	0.0052	-5.7	31
0.0067	0.042	-0.0143	0.0045	-5.4	31
0.0007	-0.0053	-0.0293	0.0037	-5.8	31
-0.0008	-0.027	-0.0968	0.0045	-5.4	31
-0.0158	0.0045	-0.1711	0.0052	-5.7	31
-0.0495	0.0165	-0.1665	0	-5.4	31
-0.0608	0.0202	-0.1073	-0.0053	-5.7	31
0.0292	0.0397	-0.024	0.0007	-5.4	31
0.0832	0.0705	0.0877	0.0037	-5.6	31
0.0607	0.0532	0.1845	0	-5.7	31
-0.012	-0.0675	0.225	-0.0091	-5.4	31
-0.1163	-0.177	0.1935	-0.0158	-5.6	31
-0.093	-0.1553	0.1312	-0.0165	-5.4	31
-0.0645	-0.0795	0.0712	-0.0105	-5.6	31
-0.0765	-0.024	0.0367	-0.0038	-5.4	31
-0.0555	0.0142	0.0517	-0.0015	-5.7	31
-0.054	0.0127	0.0547	0	-5.4	31
-0.039	-0.003	0.021	0.003	-5.8	31
-0.0218	-0.0181	-0.0308	0.0045	-5.4	31
0.0142	-0.0038	-0.0668	0.0052	-5.7	31
0.0592	0.0195	-0.0728	0.0037	-5.7	31
0.0682	0.0315	-0.0728	0.003	-5.6	31
0.0735	0.0465	-0.057	0.0037	-5.8	31
0.0832	0.045	-0.039	0.0037	-5.5	31
0.0855	0.033	-0.0308	-0.0008	-5.9	31
0.045	-0.0143	-0.0128	-0.0091	-5.4	31
-0.0293	-0.0383	0.0142	-0.0113	-5.6	31
-0.0668	-0.0218	0.0045	-0.0098	-5.6	31
-0.0923	0.0022	-0.0053	-0.0068	-5.7	31
-0.0758	0.0292	0.0052	-0.003	-5.7	31
0.0015	0.0375	0.0195	-0.0015	-5.7	31
0.0105	0.0232	0.0375	0	-5.6	31
0.0075	-0.0128	0.0202	-0.0015	-5.5	31
0.024	-0.042	0.0105	0	-5.7	31
0.0142	-0.06	-0.0038	-0.0015	-5.4	31
0.0052	-0.0315	-0.0181	-0.0008	-5.8	31
-0.0046	0.0015	-0.0188	-0.003	-5.4	31
-0.0023	-0.0046	-0.0308	-0.0046	-5.8	31
-0.0046	0.0045	-0.0233	0.0007	-5.4	31
0.003	0.0082	-0.024	0.0007	-5.7	31
0.0052	0.012	-0.0233	0.0022	-5.4	31
0.0105	0.0157	-0.015	0.003	-5.5	31
0.018	0.0232	-0.0135	0.003	-5.8	31
0.0052	0.0517	-0.0188	0.003	-5.7	31
0.0097	0.0525	-0.0233	-0.0008	-5.5	31
0.012	0.021	-0.0165	0	-5.7	31
0.0165	-0.024	-0.0165	0.0007	-5.6	31
0.0165	-0.0488	-0.0181	-0.0008	-5.5	31
0.018	-0.0518	-0.0203	-0.0008	-5.7	31
0.0165	-0.0353	-0.0165	0	-5.3	31
-0.0091	0.0022	-0.0023	0	-5.6	31
-0.0203	0.0082	0.003	-0.0015	-5.5	31
-0.012	0.0097	-0.0008	0.0015	-5.5	31
0.003	0.0157	-0.0046	0.0067	-5.7	31
0.0075	0.0112	-0.003	0.0045	-5.2	31
0.0007	0.0165	-0.0075	0.003	-5.7	31
0.0015	0.015	-0.012	0.003	-5.3	31
-0.0105	0.0127	-0.0105	0.0007	-5.7	31
-0.0053	-0.0053	-0.0083	0	-5.4	31
0.006	-0.0203	-0.0083	-0.0023	-5.5	31
-0.0046	-0.0165	-0.0053	-0.0023	-5.4	31
0	-0.0113	-0.0105	0	-5.5	31
0.0082	0.0007	-0.0218	0.0045	-5.3	31
0.0105	0.0067	-0.0128	0.0037	-5.6	31
0.0045	-0.0023	0.0045	0.003	-5.4	31
-0.0015	-0.0083	0.0157	0.0007	-5.4	31
0.0015	0.003	0.0315	-0.0008	-5.6	31
-0.0008	0.0105	0.0457	-0.0008	-5.4	31
-0.0105	0.0082	0.0525	-0.0008	-5.5	31
-0.0143	0.0052	0.0435	-0.0008	-5.3	31
-0.0091	-0.0015	0.0352	-0.0015	-5.4	31
-0.003	-0.0068	0.0277	0	-5.5	31
0.0082	-0.0128	0.0135	0.0045	-5.4	31
0.0105	-0.0105	-0.0015	0.0022	-5.4	31
0.0075	0	-0.0158	0.0007	-5.3	31
0.0195	0.0015	-0.0173	0.0045	-5.4	31
0.0277	0.012	-0.0225	0.003	-5.5	31
0.0165	0.0195	-0.0278	0.0015	-5.3	31
0.0022	0.0165	-0.0165	0.003	-5.2	31
-0.006	0.0105	-0.0053	0.0045	-5.4	31
-0.0158	0.003	-0.0008	0.0007	-5.1	31
-0.0256	0.003	0.0082	-0.0015	-5.5	31
-0.0248	-0.0053	0.012	-0.006	-5	31
-0.0233	-0.0158	0.0015	-0.0091	-5.4	31
-0.0203	-0.0256	-0.0105	-0.0053	-5.2	31
-0.0068	-0.0173	-0.0158	0.0007	-5.4	31
-0.0105	-0.006	-0.0165	0.0045	-5.4	31
-0.0128	-0.0015	-0.024	0.0045	-5.3	31
0.003	-0.003	-0.0233	0.0015	-5.5	31
0.009	-0.0315	-0.021	0	-5.2	31
0.003	-0.0293	-0.0143	-0.0023	-5.3	31
0	-0.0173	-0.003	-0.0046	-5.4	31
0.003	-0.021	-0.0046	-0.0046	-5.2	31
0.0082	0.0045	0.0052	-0.0046	-5.2	31
0.0015	0.0202	0.0315	-0.0046	-5.5	31
-0.0008	0.0232	0.0465	-0.0008	-5.4	31
-0.0008	0.018	0.0232	0.0022	-5.3	31
-0.027	-0.0105	0.0157	0.0022	-5.5	31
-0.039	-0.039	0.0285	0.0037	-5.1	31
-0.0323	-0.0383	0.0285	0.0052	-5.6	31
-0.0293	-0.021	0.0457	0.0037	-5.2	31
-0.0091	0.0015	0.0532	0.0045	-5.7	31
0.0315	0.0382	0.039	0.0052	-5.3	31
0.075	0.0532	-0.0083	0.0045	-5.5	31
0.0907	0.0712	-0.0563	0.0007	-5.4	31
0.0862	0.0517	-0.0706	0.0007	-5.4	31
0.0727	-0.0075	-0.057	0.0007	-5.4	31
0.0457	-0.0158	-0.0233	0.0015	-5.3	31
0.0255	-0.0105	-0.033	-0.0008	-5.4	31
-0.0105	-0.0713	-0.0405	-0.012	-5.5	31
-0.075	-0.117	-0.024	-0.0135	-5.4	31
-0.1013	-0.0803	-0.0443	-0.0068	-5.3	31
-0.0608	-0.0225	-0.0721	0.0022	-5.7	31
-0.0278	0.018	-0.0795	0.0052	-5.1	31
-0.0308	0.0292	-0.057	0.0045	-5.4	31
-0.0233	0.033	0.021	0.0037	-5.4	31
-0.0225	0.027	0.1087	0.0022	-5.6	31
-0.0353	0.0277	0.165	0.0015	-5.4	31
-0.0293	0.0165	0.1875	0	-5.4	31
-0.0165	-0.048	0.156	-0.003	-5.7	31
-0.0068	-0.0743	0.1087	-0.0053	-5.2	31
0.0382	-0.0158	0.0427	-0.0023	-5.8	31
0.069	0.036	-0.0128	-0.0023	-5.4	31
0.042	0.0217	-0.0368	-0.0038	-5.5	31
0.021	0.0007	-0.0473	-0.0008	-5.4	31
0.0427	0.006	-0.0668	-0.0015	-5.4	31
0.0547	0.0217	-0.0953	-0.0053	-5.5	31
0.012	0.0217	-0.0983	-0.0068	-5.6	31
-0.0368	0.0105	-0.1006	-0.003	-5.6	31
-0.084	0.012	-0.0691	-0.0008	-5.4	31
-0.063	-0.0091	-0.033	0.0037	-5.7	31
0	-0.027	-0.0218	0.0105	-5.4	31
0.0097	-0.0075	-0.015	0.0105	-5.7	31
0.0412	0.009	-0.0135	0.0075	-5.4	31
0.0502	0.018	-0.0046	0.0067	-5.7	31
0.0502	0.0367	-0.0053	0.0045	-5.4	31
0.0307	0.0442	0.0165	-0.0008	-5.7	31
-0.0293	0.0255	0.048	-0.0053	-5.6	31
-0.0743	-0.0053	0.0907	-0.012	-5.5	31
-0.1073	-0.0285	0.1065	-0.0165	-5.4	31
-0.0706	-0.0458	0.0787	-0.0128	-5.6	31
-0.0256	-0.054	0.0577	-0.0068	-5.4	31
-0.0046	-0.0533	0.0202	-0.0046	-5.5	31
0.0082	-0.0428	-0.015	-0.006	-5.4	31
0.009	-0.0128	-0.0361	-0.0023	-5.4	31
0.0187	-0.0008	-0.0278	0.0037	-5.5	31
0.0165	0.0067	-0.0315	0.0052	-5.4	31
0.0255	0.0052	-0.0436	0.003	-5.6	31
0.0187	0.0007	-0.0428	0.003	-5.4	31
0.0127	0.009	-0.0436	0.0045	-5.6	31
0.0142	0.0127	-0.0383	0.0045	-5.5	31
0.009	0.0217	-0.0405	0.003	-5.4	31
0.021	0.0195	-0.042	0.003	-5.6	31
0.0292	0.0195	-0.0465	0.0007	-5.3	31
0.0142	0.0157	-0.0308	0.0007	-5.6	31
-0.0128	0.0105	-0.0053	0.0007	-5.5	31
-0.0248	-0.0068	0.0082	-0.0015	-5.4	31
-0.0158	-0.0128	0.0112	-0.003	-5.4	31
-0.0091	0.0105	0.0082	-0.0053	-5.7	31
-0.0098	0.012	-0.0008	-0.0053	-5.4	31
0.0022	0.018	-0.0233	-0.006	-5.8	31
0.0097	0.0285	-0.027	-0.006	-5.3	31
0.003	0.0217	-0.0248	-0.0053	-5.6	31
0.0022	-0.0008	-0.0353	-0.0091	-5.4	31
0.012	-0.0293	-0.0353	-0.0091	-5.5	31
0.027	-0.0323	-0.0105	-0.0038	-5.6	31
0.027	-0.0173	0.0277	-0.0015	-5.4	31
0.027	-0.006	0.0577	-0.0015	-5.6	31
0.0277	-0.0053	0.084	-0.0008	-5.4	31
-0.0068	-0.0158	0.1027	0.0015	-5.6	31
-0.039	-0.027	0.099	0.0015	-5.6	31
-0.027	-0.0181	0.081	0.003	-5.5	31
-0.0105	0.012	0.0442	0.0052	-5.6	31
-0.0015	0.0225	0.0067	0.0075	-5.6	31
0.0105	0.0105	-0.0233	0.0045	-5.4	31
0.0045	-0.0075	-0.042	0.003	-5.5	31
0.0067	-0.0233	-0.0323	0.0045	-5.5	31
0.0105	-0.027	-0.0323	0.0045	-5.4	31
-0.0083	-0.024	-0.0353	0.003	-5.6	31
-0.0105	-0.0053	-0.0158	0.0007	-5.3	31
0.0105	0.0135	-0.0128	0.0015	-5.7	31
0.012	0.0247	-0.0353	0.003	-5.3	31
0.0015	0.039	-0.0608	0.0052	-5.9	31
-0.015	0.0345	-0.078	0.0052	-5.4	31
-0.0383	0.027	-0.0721	0	-5.5	31
-0.0293	0.0075	-0.066	0.0007	-5.5	31
-0.0105	-0.0091	-0.0465	0	-5.4	31
0.0045	-0.0098	0.0052	0.003	-5.4	31
0.0352	-0.0443	0.0367	0.0052	-5.5	31
0.06	-0.0668	0.051	0.0022	-5.4	31
0.0577	-0.0353	0.066	-0.0008	-5.3	31
0.0217	0.015	0.066	-0.0046	-5.8	31
0.0007	-0.0015	0.0675	-0.0091	-5.3	31
-0.0068	-0.0315	0.063	-0.0068	-5.7	31
-0.0195	0.0082	0.06	-0.006	-5.4	31
-0.0256	0.018	0.0517	-0.0091	-5.7	31
-0.0308	0.0075	0.0217	-0.0075	-5.6	31
-0.012	0.0037	-0.0098	-0.0046	-5.5	31
-0.0173	-0.0173	-0.0383	-0.0053	-5.7	31
-0.0405	-0.0346	-0.0263	-0.0053	-5.3	31
-0.0285	-0.021	-0.0068	-0.0023	-5.8	31
-0.0008	-0.0046	-0.0113	-0.0008	-5.4	31
0.0052	0.006	-0.0091	0.0015	-5.6	31
-0.0008	0.018	-0.012	0.003	-5.4	31
0.0195	0.012	-0.021	0	-5.5	31
0.0127	0.0165	-0.0293	-0.0008	-5.5	31
0.0045	0.0202	-0.0203	0.003	-5.7	31
0.0045	0.0127	-0.0105	0.0045	-5.5	31
0.0007	-0.0158	-0.0105	0.0037	-5.4	31
0.0307	-0.024	-0.024	0.006	-5.6	31
0.0555	0.009	-0.06	0.0097	-5.4	31
0.0472	0.0165	-0.0683	0.0075	-5.7	31
0.0157	0.0067	-0.0353	0.0045	-5.4	31
-0.0053	0.0082	-0.0053	0.0007	-5.8	31
-0.0083	0.0007	0.018	-0.0038	-5.4	31
0	-0.012	0.0405	-0.006	-5.7	31
-0.0135	-0.0308	0.0502	-0.0083	-5.4	31
-0.0533	-0.0405	0.0607	-0.0068	-5.4	31
-0.0863	-0.027	0.0427	-0.0015	-5.4	31
-0.078	-0.0008	-0.0165	0	-5.7	31
-0.0091	0.0165	-0.093	0.0015	-5.7	31
0.0202	0.012	-0.1013	0.003	-5.5	31
0.0157	0.0135	-0.0383	0.0022	-5.6	31
0.0022	0.0277	0.003	-0.0008	-5.4	31
-0.0008	0.0195	0.078	0	-5.7	31
0.0082	0.0052	0.1252	-0.0015	-5.5	31
-0.0015	0.0195	0.096	-0.0068	-5.8	31
-0.0008	0.024	0.0082	-0.0105	-5.7	31
-0.0308	0.0307	-0.0668	-0.0128	-5.6	31
-0.0503	0.0075	-0.0863	-0.012	-5.7	31
-0.0128	-0.0398	-0.1013	-0.0053	-5.4	31
0.0127	-0.0578	-0.0436	-0.0008	-5.7	31
-0.003	-0.057	0.015	0	-5.2	31
0.0045	-0.0158	0.0622	-0.0008	-5.7	31
0.027	-0.0068	0.108	-0.0015	-5.5	31
0.0127	-0.0158	0.1065	-0.0053	-5.5	31
0.009	0.0127	0.1065	-0.0046	-5.6	31
0.024	0.0262	0.0862	-0.0015	-5.7	31
-0.003	-0.0046	0.0607	-0.0053	-5.4	31
-0.0293	-0.0458	0.033	-0.006	-5.8	31
-0.0181	-0.063	0.0037	0	-5.4	31
-0.0181	-0.0383	-0.0293	0.0045	-5.8	31
-0.0113	0.0007	-0.0503	0.0045	-5.7	31
0.0022	-0.0023	-0.0383	0.0007	-5.7	31
0.018	0.0067	-0.0458	-0.003	-5.7	31
0.0277	0.0157	-0.0405	-0.0015	-5.5	31
0.0277	0.0202	-0.0308	0.0007	-5.9	31
0.0142	0.024	-0.0285	0.0022	-5.6	31
0.0052	0.0052	-0.0293	0.003	-5.8	31
0.021	-0.0038	-0.0428	0.0015	-5.7	31
0.0007	-0.0128	-0.0518	-0.0008	-5.7	31
-0.0046	-0.003	-0.0585	-0.0023	-5.7	31
0.0262	0.0097	-0.0473	0.0022	-5.7	31
0.0547	0.0285	-0.027	0.0075	-5.6	31
0.0855	0.0427	-0.0068	0.0075	-5.9	31
0.075	0.0195	0.0165	0.0015	-5.7	31
0.039	-0.0068	0.0322	-0.0008	-5.6	31
0.012	-0.0158	0.033	0	-5.9	31
0.0075	-0.0195	0.0232	-0.0015	-5.5	31
-0.0068	-0.0233	0.0067	-0.0015	-5.9	31
-0.0383	-0.0203	-0.0091	-0.0023	-5.4	31
-0.0555	-0.0015	-0.0098	0.0007	-5.9	31
-0.0945	0.0202	-0.0046	0.0015	-5.7	31
-0.1043	0.0232	0.009	-0.0015	-5.8	31
-0.0458	0.0105	0.0142	-0.0008	-5.6	31
-0.0068	0.0015	0.006	-0.0008	-5.7	31
-0.0015	-0.0015	0.0082	-0.0023	-5.7	31
0.0015	-0.0068	-0.0023	-0.0015	-5.5	31
-0.012	-0.0053	-0.0143	0.0015	-5.6	31
-0.0181	-0.0015	-0.0158	0.003	-5.6	31
-0.0181	-0.0023	-0.027	0.003	-5.7	31
-0.0143	0.0007	-0.0248	0.003	-5.4	31
-0.0015	0.0007	-0.0203	0.0052	-5.6	31
0.0052	0.0037	-0.0188	0.0037	-5.5	31
0.0037	0.009	-0.0068	0.0015	-5.9	31
-0.0046	0.0172	-0.006	0.003	-5.5	31
0.0112	0.0202	-0.0105	0.003	-5.7	31
0.0262	-0.0015	-0.0165	0.0015	-5.7	31
0.0427	-0.021	-0.0091	-0.0015	-5.5	31
0.0532	-0.0143	0.0142	0.0007	-5.8	31
0.039	-0.0053	0.036	-0.0008	-5.4	31
0.0217	-0.015	0.0532	-0.0046	-5.6	31
0.0075	-0.0068	0.0577	-0.0038	-5.6	31
-0.012	0.0045	0.0517	-0.0053	-5.7	31
-0.021	-0.0053	0.0315	-0.0068	-5.5	31
-0.012	-0.003	0.006	-0.0046	-5.8	31
-0.0038	-0.0053	-0.0105	0	-5.5	31
-0.006	-0.0015	-0.0105	0.0037	-5.6	31
-0.0158	0.0045	-0.0165	0.0015	-5.7	31
-0.015	0	-0.033	0	-5.5	31
-0.0083	0.006	-0.0518	0.0022	-5.8	31
-0.003	0.0037	-0.09	0.003	-5.4	31
-0.0046	-0.0023	-0.0833	0.0022	-5.8	31
0.0015	-0.0068	-0.039	0.0045	-5.6	31
0.0045	-0.0165	-0.0008	0.0045	-5.7	31
-0.006	-0.0135	0.0465	0.0015	-5.5	31
-0.0008	0.0277	0.0697	0	-5.7	31
0.0052	0.027	0.081	-0.0046	-5.7	31
0.0112	-0.0375	0.0802	-0.0068	-5.7	31
0.012	-0.0683	0.0517	-0.0046	-5.5	31
0.0015	-0.0218	0.0045	-0.003	-5.7	31
-0.003	0.0277	-0.0233	-0.0008	-5.5	31
-0.003	0.0465	-0.0083	-0.0008	-5.4	31
0.012	0.0592	-0.0083	0.0037	-5.9	31
0.0375	0.039	-0.024	0.0052	-5.5	31
0.024	0.0082	-0.0293	0.003	-5.7	31
0.0052	-0.039	-0.0263	0.0045	-5.5	31
0.0187	-0.0871	-0.0195	0.003	-5.5	31
0.0067	-0.0691	-0.012	-0.0023	-5.7	31
-0.0195	-0.003	0.0142	-0.0046	-5.3	31
-0.0458	0.0075	0.0442	-0.0083	-5.9	31
-0.057	-0.0346	0.0577	-0.0113	-5.3	31
-0.048	-0.0533	0.0525	-0.0083	-5.7	31
-0.045	-0.0248	0.0292	-0.0046	-5.6	31
-0.0068	0.0075	0.0052	0.0015	-5.6	31
0.0307	0.0082	-0.0203	0.003	-5.5	31
0.0405	-0.0046	-0.042	0.003	-5.6	31
0.03	-0.0128	-0.0495	0.0045	-5.5	31
0.012	0.0052	-0.0428	0.0052	-5.8	31
0.0075	0.0007	-0.0465	0.003	-5.5	31
0.0067	-0.0046	-0.084	0.0015	-5.6	31
0.0187	0.0052	-0.099	0.003	-5.8	31
0.012	0.009	-0.084	0.0052	-5.5	31
-0.0203	0.033	-0.093	0.003	-5.7	31
-0.0743	0.0517	-0.0893	0.0015	-5.6	31
-0.0623	0.0742	-0.0638	0.0052	-5.7	31
0.0322	0.069	0.0067	0.0052	-5.7	31
0.0555	0.0307	0.0967	0.003	-5.5	31
0.042	-0.0038	0.1612	-0.0015	-5.7	31
0.012	-0.0368	0.189	-0.015	-5.7	31
-0.057	-0.0721	0.1462	-0.0218	-5.7	31
-0.0818	-0.093	0.1335	-0.012	-5.6	31
-0.0375	-0.0728	0.1305	-0.0038	-5.5	31
0.0015	-0.0293	0.0855	-0.0008	-5.4	31
0.0052	-0.0173	0.039	-0.0015	-5.9	31
0.009	-0.0173	0.0082	-0.0015	-5.4	31
0.015	0.0105	-0.0165	0	-6	31
0.0142	0.0075	-0.0533	-0.0008	-5.6	31
-0.0015	-0.0046	-0.0608	0.003	-5.8	31
-0.0038	0.0067	-0.0548	0.0052	-5.7	31
0.0112	0.0202	-0.0511	0.0052	-5.8	31
0.0165	0.0352	-0.0458	0.0045	-5.8	31
0.018	0.0225	-0.027	0.003	-5.6	31
0.0142	-0.003	-0.0195	-0.0008	-5.9	31
0.0112	-0.006	-0.0293	0	-5.5	31
0.012	0.0165	-0.0263	0.0037	-5.6	31
0.015	0.0195	-0.0353	0.0007	-5.9	31
0.009	0.024	-0.0615	-0.0008	-5.7	31
0.0165	0.0292	-0.0968	-0.0008	-5.6	31
0.0322	0.0082	-0.09	0.0015	-5.9	31
0.018	0.0037	-0.0578	0.0052	-5.7	31
-0.0008	0.0127	-0.0165	0.0082	-5.7	31
-0.0181	0.0187	0.0255	0.0045	-5.8	31
-0.0315	0.0015	0.0277	-0.0015	-5.4	31
-0.0128	0.0045	0.0307	-0.0046	-5.8	31
0	0.0172	0.0367	-0.0068	-5.4	31
-0.003	0.0187	0.0262	-0.0091	-5.9	31
-0.0083	0.003	0.0082	-0.0105	-5.5	31
-0.0098	-0.03	0.012	-0.0046	-5.8	31
0.0007	-0.0503	0.0315	0.0015	-5.6	31
-0.015	-0.0706	0.0382	-0.0015	-5.7	31
-0.0218	-0.0495	0.0382	-0.0075	-5.7	31
-0.0135	-0.024	0.033	-0.0083	-5.6	31
-0.012	-0.012	0.0187	-0.0046	-5.6	31
-0.0008	0.0082	-0.006	-0.0038	-5.7	31
0.003	0.012	-0.0173	-0.0015	-5.7	31
0.0165	0.012	-0.0203	-0.003	-5.4	31
0.0232	0.003	-0.015	0.0015	-5.7	31
0.0082	-0.012	0.0007	0.0007	-5.5	31
-0.0075	-0.024	-0.0135	-0.0008	-5.7	31
-0.0053	-0.024	-0.042	0.0007	-5.4	31
0.0142	-0.0091	-0.0645	-0.0008	-5.8	31
0.0097	0.0142	-0.0555	0.0007	-5.6	31
-0.0143	0.021	-0.0353	0.0007	-5.6	31
-0.0225	0.027	-0.0278	0.0007	-5.7	31
0.0007	0.0292	-0.0098	0.0015	-5.4	31
0.0277	0.0195	0.0015	0	-5.8	31
0.0292	0.0022	0.021	-0.0015	-5.7	31
0.0075	-0.0203	0.033	-0.003	-5.7	31
-0.0046	-0.0158	0.0427	-0.0046	-5.6	31
0.006	-0.0038	0.066	0.0007	-5.5	31
0.006	-0.0091	0.0652	0.0015	-5.4	31
-0.006	-0.021	0.0615	0.0015	-5.6	31
-0.012	-0.0218	0.06	0.0052	-5.6	31
-0.0083	-0.012	0.0337	0.0067	-5.5	31
-0.012	-0.003	0.0045	0.0075	-5.7	31
-0.0218	0.0045	-0.0091	0.006	-5.3	31
-0.0165	0.0052	-0.0181	0.0075	-5.7	31
0.0015	0.0105	-0.0165	0.0052	-5.2	31
0.009	0.009	-0.0188	0.0022	-5.7	31
0.0082	0.006	-0.0195	0.0007	-5.3	31
0.009	0.0052	-0.0165	0	-5.7	31
0.0097	0.0052	-0.0105	0.0007	-5.5	31
0.009	0.0052	-0.0038	-0.0015	-5.5	31
0.0007	0.003	-0.0068	-0.0015	-5.5	31
-0.0068	0.0015	-0.0053	-0.0015	-5.5	31
-0.0143	-0.003	-0.0105	-0.0023	-5.3	31
-0.0233	-0.0023	-0.0218	-0.003	-5.8	31
-0.024	-0.0008	-0.0315	-0.0015	-5.4	31
-0.0015	0.0075	-0.033	0.003	-5.6	31
0.0105	0.0142	-0.0375	0.003	-5.6	31
-0.012	-0.0015	-0.027	0.0007	-5.4	31
-0.0083	-0.003	0.0007	0.0037	-5.6	31
-0.0008	0.006	0.0067	0.0015	-5.4	31
-0.0098	0.003	-0.0008	-0.0008	-5.6	31
0.0022	0.0007	-0.0188	0	-5.4	31
0.0105	0.0082	-0.0323	-0.0008	-5.4	31
0.0142	0.0172	-0.0248	-0.0008	-5.4	31
0.0232	0.0165	-0.0113	0.0007	-5.3	31
0.0195	-0.0046	0.0105	0	-5.4	31
-0.0023	-0.0488	0.0465	-0.0008	-5.4	31
-0.0083	-0.0473	0.0667	0.0015	-5.6	31
-0.0098	-0.0128	0.0562	0.0007	-5.4	31
-0.0256	-0.024	0.0217	-0.003	-5.6	31
-0.021	-0.0256	-0.0225	-0.003	-5.3	31
-0.012	-0.0181	-0.0368	-0.0046	-5.7	31
0.0007	-0.0143	-0.0405	-0.0008	-5.1	31
0.0067	-0.0008	-0.0285	0.0015	-5.5	31
0.0157	0.003	0.006	0.0022	-5.4	31
0.0322	0.0352	0.0142	0.0037	-5.5	31
0.027	0.0615	0.0135	0.0007	-5.5	31
0.0165	0.051	0.009	0.0007	-5.4	31
0.0202	0.0337	-0.024	0.0007	-5.6	31
0.0082	0.0142	-0.033	-0.0008	-5.4	31
-0.0091	-0.0158	0.006	0.0007	-5.6	31
0.012	-0.0593	0.0315	0	-5.4	31
0.027	-0.0645	0.0517	-0.0015	-5.4	31
0.0052	-0.0203	0.0712	-0.0068	-5.5	31
-0.024	0.0075	0.0577	-0.0091	-5.7	31
-0.0233	0.0292	0.0142	-0.006	-5.4	31
-0.0008	0.0202	-0.024	-0.003	-5.7	31
0.0105	-0.0233	-0.0338	-0.0015	-5.5	31
0.009	-0.0361	-0.0158	0.0015	-5.6	31
-0.0233	-0.048	0.012	0.0015	-5.7	31
-0.042	-0.054	0.0277	-0.006	-5.2	31
-0.0323	-0.0368	0.0405	-0.0083	-5.8	31
-0.0173	-0.0203	0.0322	-0.0053	-5.4	31
-0.006	-0.021	0.003	-0.006	-5.8	31
-0.0083	-0.012	-0.0218	-0.0068	-5.5	31
-0.003	0.0105	-0.0473	-0.003	-5.8	31
0.009	0.0337	-0.0458	-0.0008	-5.8	31
0.0105	0.0495	-0.0293	0.0022	-5.7	31
-0.012	0.042	-0.0203	0.0015	-5.7	31
-0.0128	0.0232	-0.0091	-0.003	-5.7	31
0.0015	0.0015	-0.006	-0.0046	-5.7	31
-0.006	-0.0158	-0.006	-0.006	-5.6	31
0.0007	-0.0315	-0.0165	-0.006	-5.9	31
0.0105	-0.015	-0.0218	-0.003	-5.6	31
0.0195	0.012	-0.0256	0	-6	31
0.0217	0.0097	-0.027	0.0045	-5.7	31
0.015	0.0157	-0.0195	0.0082	-5.7	31
0.027	0.0127	-0.0181	0.0075	-5.9	31
0.0322	0	-0.0091	0.0067	-5.6	31
0.0285	0.0015	-0.0023	0.009	-5.9	31
0.0247	0.0165	-0.0128	0.009	-5.7	31
0.0082	0.0247	-0.0428	0.0067	-6	31
-0.0038	0.0202	-0.0758	0.0037	-5.8	31
0.0015	0.0292	-0.0825	0.0022	-5.9	31
-0.0008	0.0495	-0.0593	0	-5.7	31
-0.0285	0.039	-0.0158	-0.0053	-5.7	31
-0.0533	-0.0015	0.024	-0.0046	-5.6	31
-0.0233	-0.0165	0.0495	0.0007	-5.8	31
0	-0.0128	0.0667	-0.0008	-5.9	31
-0.0195	-0.0293	0.0825	-0.003	-5.7	31
-0.0511	-0.0675	0.075	-0.0098	-6	31
-0.09	-0.084	0.054	-0.012	-5.6	31
-0.033	-0.042	0.0532	-0.0083	-5.9	31
0.0352	-0.0113	0.042	-0.0038	-5.5	31
0.0255	-0.0105	0.0225	0.0007	-6	31
0.015	-0.0008	-0.0143	0.0022	-5.5	31
0	0.012	-0.0863	-0.0015	-5.9	31
0.009	-0.0053	-0.1058	-0.0083	-5.8	31
0.0067	-0.0135	-0.0465	-0.006	-5.6	31
0.0045	0.021	0.0015	0	-5.8	31
0.03	0.042	0.027	0.0097	-5.8	31
0.0382	0.0465	0.0525	0.0127	-5.8	31
0.0367	0.0322	0.0892	0.0105	-5.7	31
0.0112	-0.0293	0.1215	0.0067	-5.8	31
-0.0173	-0.0758	0.102	0.0015	-5.5	31
-0.006	-0.0645	0.069	0.0007	-5.9	31
0.027	-0.024	0.0352	0.0007	-5.6	31
0.0285	0.0127	0.0082	0.0052	-5.8	31
0.0255	0.0315	0.0015	0.0075	-5.8	31
0.0255	0.0127	-0.006	0.0082	-5.6	31
0.0097	-0.012	-0.0158	0.003	-5.9	31
0.0067	-0.0188	-0.0458	-0.0015	-5.5	31
0.0007	-0.0053	-0.0735	0.0015	-5.9	31
-0.0383	0.0045	-0.0923	0.003	-5.5	31
-0.0878	0.012	-0.1028	0.003	-5.8	31
-0.0623	0.027	-0.0765	0.0037	-5.7	31
-0.0181	0.03	-0.0458	0.0037	-5.7	31
-0.0346	0.024	-0.012	0.0015	-5.6	31
-0.0195	0.0135	0.0277	0.003	-5.9	31
-0.003	0.0255	0.0577	0.0015	-5.4	31
-0.012	0.0217	0.0502	-0.0046	-5.9	31
-0.0195	-0.0143	0.0315	-0.0083	-5.4	31
-0.0181	-0.0293	0.027	-0.0091	-5.9	31
0.0112	-0.0188	0.0097	-0.006	-5.7	31
0.0195	-0.0083	0.009	-0.003	-5.4	31
0.0165	-0.0105	0.0067	-0.0053	-5.8	31
0.009	-0.0135	-0.0053	-0.0046	-5.3	31
0.0052	-0.0135	-0.0143	-0.0023	-5.8	31
0.0135	-0.0113	-0.024	-0.003	-5.4	31
0.0195	-0.0091	-0.0218	0.0007	-5.5	31
0.0142	-0.0143	-0.0181	0.0015	-5.6	31
0.0045	-0.0105	-0.012	-0.0008	-5.6	31
0.009	-0.003	-0.0173	-0.0008	-5.7	31
0.0105	0.0037	-0.0173	-0.0015	-5.6	31
0.0045	0.0052	-0.0098	0	-5.6	31
-0.0053	-0.003	-0.0083	-0.0008	-5.7	31
-0.0083	-0.003	-0.0091	0	-5.6	31
-0.0053	0	-0.0053	0.0007	-5.5	31
-0.0008	0.009	-0.003	0.0007	-5.9	31
0.0105	0.0315	-0.0188	0.0037	-5.5	31
0.0217	0.0382	-0.0315	0.003	-5.7	31
0.0217	0.0225	-0.042	0.0015	-5.5	31
0.0187	-0.0023	-0.0458	0.0007	-5.7	31
0.0187	-0.0188	-0.0248	-0.0015	-5.4	31
0.0067	-0.0256	-0.0008	-0.0008	-5.7	31
-0.0008	-0.0263	0.0127	0.0015	-5.6	31
-0.0083	-0.0203	0.0315	0.0052	-5.6	31
-0.0068	-0.033	0.0457	0.0052	-5.5	31
-0.0128	-0.0195	0.048	0.0015	-5.6	31
-0.0263	0.003	0.0315	0	-5.5	31
-0.0068	-0.0135	0.0142	0.0007	-5.4	31
0.0082	-0.003	-0.0165	0.0045	-5.8	31
0.0067	0.0015	-0.0683	0.0037	-5.4	31
-0.006	0.0052	-0.075	0.003	-5.7	31
-0.0008	0.0135	-0.045	0.0045	-5.2	31
0.0195	0.0082	-0.006	0.0052	-5.7	31
0.024	0.003	0.042	0.0075	-5.5	31
0.0315	0.0037	0.0592	0.0067	-5.5	31
0.0442	0.0345	0.0382	0.0082	-5.6	31
0.0315	0.045	0.0255	0.0045	-5.4	31
0.0082	0.0352	0.0187	-0.003	-5.8	31
-0.0068	0.0217	-0.006	-0.0068	-5.4	31
-0.03	-0.0135	-0.003	-0.006	-5.6	31
-0.027	-0.0458	0.0277	-0.0046	-5.6	31
-0.0428	-0.0495	0.0457	-0.0075	-5.5	31
-0.0856	-0.0263	0.0427	-0.0128	-5.7	31
-0.066	-0.0315	0.024	-0.0105	-5.8	31
-0.0278	-0.042	-0.0015	-0.0083	-5.6	31
0.0105	-0.0098	-0.012	-0.006	-5.7	31
0.027	0.0045	-0.0008	-0.0046	-5.7	31
-0.0008	-0.0091	0.015	-0.0091	-5.5	31
-0.0165	-0.0308	0.0135	-0.0105	-5.7	31
-0.0091	-0.0315	-0.0046	-0.0091	-5.4	31
0.0022	-0.0195	-0.015	-0.0053	-5.9	31
0.0135	-0.021	-0.024	-0.003	-5.4	31
0.0262	-0.0113	-0.045	-0.003	-5.9	31
0.024	0.0045	-0.063	-0.0023	-5.6	31
0.027	0.0307	-0.078	0.0007	-5.9	31
0.027	0.0487	-0.0856	0.0007	-5.8	31
0.024	0.048	-0.0818	-0.0008	-5.8	31
0.0427	0.0637	-0.0675	-0.0015	-5.6	31
0.0487	0.0637	-0.0638	-0.0023	-5.9	31
-0.012	0.015	-0.0473	-0.003	-5.6	31
-0.0893	-0.0105	0.0165	-0.0008	-5.7	31
-0.066	0.003	0.0787	0.0007	-5.6	31
-0.033	-0.045	0.1282	-0.003	-5.7	31
-0.0405	-0.0818	0.1545	-0.0068	-5.6	31
-0.0218	-0.0638	0.1192	-0.0053	-5.5	31
-0.0091	-0.045	0.0712	-0.0038	-5.8	31
0.0045	-0.024	0.039	-0.003	-5.7	31
0.0127	-0.0173	0.0225	-0.0008	-5.8	31
0.0232	-0.0015	0.0082	0.0022	-5.7	31
0.0195	0.0067	0.0067	0.0037	-5.6	31
-0.003	0.0067	0.0195	0.0052	-5.8	31
-0.0008	0.012	0.0157	0.0037	-5.5	31
-0.0015	0.0067	0.0015	0.0037	-5.7	31
-0.0105	0.0037	-0.027	0.0067	-5.8	31
-0.0046	0.0045	-0.042	0.009	-5.6	31
0.0015	0.012	-0.057	0.0105	-5.4	31
0.0022	0.0315	-0.057	0.009	-5.9	31
0.0082	0.0562	-0.0375	0.0045	-5.4	31
0.0277	0.0757	-0.0218	0.0015	-6	31
0.042	0.057	0.009	-0.0038	-5.4	31
0.0405	-0.0105	0.024	-0.0068	-5.8	31
0.0405	-0.0548	0.0307	-0.0053	-5.4	31
0.0202	-0.0495	0.018	-0.0083	-5.7	31
-0.003	-0.0555	-0.0046	-0.0038	-5.6	31
-0.0158	-0.03	-0.012	0.0022	-5.6	31
-0.0091	0.0015	-0.0158	0.0075	-5.8	31
0.003	-0.0068	-0.0181	0.0082	-5.5	31
-0.0091	0.0045	-0.0428	0.0022	-5.6	31
-0.0098	0.012	-0.063	0.003	-5.6	31
-0.0015	0.024	-0.084	0.0022	-5.5	31
-0.0008	0.0165	-0.0608	0.0045	-5.5	31
0.009	-0.0091	-0.0038	0.0045	-5.8	31
0.0157	0.0007	0.0202	0.0015	-5.4	31
-0.0256	-0.0143	0.0427	0	-5.8	31
-0.0555	-0.0383	0.048	0.0045	-5.4	31
-0.0293	-0.0383	0.0435	0.006	-5.7	31
-0.0046	-0.027	0.0337	0.003	-5.7	31
0.024	-0.0015	0.0352	0.0067	-5.6	31
0.027	0.0292	0.0142	0.0052	-5.7	31
0.0052	0.0555	-0.021	0.0007	-5.4	31
-0.0143	0.0547	-0.0225	-0.0046	-6	31
-0.0203	0.0525	-0.0256	-0.003	-5.4	31
0.006	0.0285	-0.015	-0.0046	-5.7	31
0.0135	-0.0443	-0.012	-0.0083	-5.5	31
0.0165	-0.0638	-0.0068	-0.0083	-5.7	31
0.0127	-0.0323	0.024	-0.006	-5.7	31
-0.003	-0.0263	0.0345	-0.0015	-5.6	31
-0.012	-0.0233	0.036	-0.0023	-5.7	31
-0.0128	-0.0083	0.0345	0	-5.5	31
-0.0158	0.0015	0.021	0.0007	-5.7	31
-0.0308	0.0015	-0.003	0.003	-5.5	31
-0.0338	-0.0038	-0.024	0.0015	-5.7	31
-0.024	-0.0256	-0.0233	-0.003	-5.4	31
0.0045	-0.015	-0.0195	-0.0008	-5.8	31
0.021	-0.0015	-0.0098	-0.0038	-5.4	31
0.0262	-0.0083	0.0075	-0.0068	-5.7	31
0.0435	0.003	0.012	-0.0068	-5.5	31
0.0547	0.0015	0.0105	-0.006	-5.7	31
0.0502	0.009	0.0045	-0.0053	-5.8	31
0.033	0.0157	0.003	-0.0046	-5.7	31
0.0247	0.0187	-0.003	-0.003	-5.5	31
-0.0023	0.0195	-0.0083	-0.0046	-5.5	31
-0.0533	0.0105	-0.015	-0.006	-5.6	31
-0.0975	-0.0091	-0.0233	-0.0053	-5.5	31
-0.0668	-0.0375	-0.0195	-0.006	-5.6	31
-0.0091	-0.0158	-0.0165	-0.0053	-5.4	31
-0.0113	0.0052	-0.0158	-0.0038	-5.7	31
-0.0053	0.0075	-0.0285	-0.0038	-5.5	31
-0.0083	0.0172	-0.0518	-0.0008	-5.6	31
-0.0091	0.0075	-0.0728	-0.0023	-5.7	31
0.0052	0.0075	-0.0623	-0.003	-5.4	31
0.0067	0.003	-0.033	-0.0015	-5.9	31
0.009	0.003	0.0007	0	-5.4	31
0.0052	0.012	0.0382	0.0037	-5.6	31
0.0015	0.0187	0.0577	0.003	-5.4	31
-0.0015	0.0315	0.0712	0.003	-5.7	31
0.0105	0.0232	0.0667	0.0022	-5.7	31
0.0255	0.0075	0.0292	0.0007	-5.6	31
0.027	-0.0105	-0.012	0	-5.4	31
0.0082	-0.0465	-0.0128	-0.0023	-5.7	31
-0.0105	-0.0615	0.0067	-0.003	-5.5	31
-0.0091	-0.0368	0	-0.0023	-5.6	31
-0.0105	-0.0181	-0.0113	-0.0015	-5.6	31
0.0015	-0.003	-0.0143	0.003	-5.6	31
0.0082	0.0232	-0.0225	0.0037	-5.8	31
0.009	0.024	-0.033	0.0045	-5.5	31
-0.003	-0.0008	-0.0353	0.0045	-5.6	31
-0.0098	-0.0278	-0.0263	0	-5.6	31
-0.0038	-0.0233	-0.0181	0.0007	-5.7	31
0.009	-0.0038	-0.0008	0.0052	-5.7	31
0.0292	0.0082	0.0225	0	-5.5	31
0.0225	0.0097	0.0487	-0.006	-5.6	31
0.0105	-0.0105	0.0802	-0.0053	-5.6	31
-0.0105	-0.0105	0.075	-0.0046	-5.7	31
-0.0128	0.0105	0.048	-0.0023	-5.8	31
-0.0165	0.0217	0.0127	0.003	-5.7	31
-0.0225	0.0165	-0.0083	0.0045	-5.7	31
-0.0008	-0.0068	-0.0158	0.003	-5.9	31
0.0007	-0.0263	-0.0278	-0.0008	-5.4	31
0.0127	-0.0413	-0.042	-0.003	-5.9	31
0.0157	-0.0315	-0.0765	-0.003	-5.4	31
0.0142	0.012	-0.0788	-0.0038	-5.8	31
0.0225	0.0382	-0.0518	-0.0015	-5.7	31
0.0247	0.0352	-0.0195	0.0007	-5.6	31
0.0427	0.0315	0.0165	0.0015	-5.9	31
0.0277	0.0142	0.0502	0.0007	-5.6	31
-0.0218	0.0045	0.0652	0.0007	-5.8	31
-0.0563	0.0277	0.0435	0.0007	-5.7	31
-0.048	0.0307	0.0307	0.0015	-5.6	31
-0.024	0.0082	0.015	0.0045	-5.7	31
-0.0218	-0.033	0.0165	0.0037	-5.9	31
-0.0405	-0.081	0.0247	0	-5.5	31
-0.0503	-0.0608	0.0165	-0.0008	-5.9	31
-0.048	-0.042	0.0082	-0.0015	-5.6	31
-0.0165	-0.0323	0.0075	-0.0015	-5.6	31
0.024	0.0217	0.0075	-0.0008	-5.7	31
0.0352	0.0262	-0.0165	-0.0015	-5.6	31
0.042	0.0217	-0.0353	-0.0015	-6	31
0.0262	-0.0083	-0.0383	-0.0015	-5.6	31
0.0022	-0.0436	-0.0218	-0.0083	-5.9	31
0.0015	-0.003	-0.0105	-0.0091	-5.6	31
0.0105	0.0067	-0.0135	-0.0023	-5.9	31
0.0045	0.0082	0.0052	0.0007	-6	31
-0.027	-0.0023	0.0097	0.0007	-5.8	31
-0.0398	-0.0278	0.0217	0	-5.7	31
-0.0165	-0.0233	0.0435	0	-5.8	31
-0.0038	-0.024	0.0375	0.003	-5.8	31
0	-0.0083	0.0232	0.0015	-5.8	31
0.0127	0.0082	0.0135	0.0007	-6	31
0.0127	0.0067	0.0015	0.0022	-5.7	31
0.0142	0.006	-0.0218	0.003	-6	31
0.0082	0.003	-0.0398	0.0022	-5.7	31
0.0067	0.003	-0.0578	0.003	-6	31
0.0112	0.0142	-0.0691	0.003	-5.7	31
0.003	0.0382	-0.0765	0.0037	-5.9	31
-0.0015	0.0487	-0.0915	0.0045	-5.9	31
-0.0015	0.0292	-0.0938	0.0037	-5.8	31
-0.0008	0.0135	-0.084	0.003	-6	31
0.018	0.0195	-0.0315	0.0015	-5.7	31
0.0352	0.0097	0.0352	-0.0023	-5.7	31
0.0217	-0.0256	0.0855	-0.0053	-5.7	31
0.0187	-0.039	0.12	-0.0068	-5.7	31
0.012	-0.0181	0.1305	-0.0053	-5.9	31
-0.0091	-0.012	0.126	-0.0046	-5.9	31
-0.0158	-0.0158	0.0915	-0.0068	-5.7	31
-0.0278	-0.0195	0.0525	-0.0083	-6	31
-0.015	-0.0203	0.0232	-0.0083	-5.9	31
0.0232	0.003	-0.0195	-0.0015	-5.7	31
0.0345	0.0195	-0.0503	0.003	-5.8	31
0.0195	0.033	-0.0525	0.003	-5.5	31
0.024	0.0367	-0.0465	0.0045	-6	31
0.0277	0.039	-0.0413	0.0045	-5.7	31
0.0067	0.0345	-0.0375	0.0022	-6	31
-0.024	-0.0105	-0.033	-0.0008	-5.6	31
-0.078	-0.0443	-0.0278	-0.003	-5.8	31
-0.1013	-0.042	-0.0203	-0.0038	-5.8	31
-0.048	-0.0368	-0.003	-0.003	-5.7	31
0	-0.0158	0.0112	0.0015	-5.8	31
0.0007	-0.0053	0.0142	0.0022	-5.9	31
0.0157	-0.0098	0.0082	0.0015	-5.5	31
0.0165	-0.0008	0.0082	0.0045	-5.8	31
-0.003	-0.0038	0.0157	0.003	-5.6	31
-0.0015	0.0007	0.0165	0.0052	-5.6	31
-0.0053	0.0082	0.0067	0.0052	-5.8	31
-0.0068	0.0045	-0.0143	0.003	-5.7	31
-0.0008	-0.0008	-0.0315	0.0015	-5.9	31
0.0082	0	-0.0555	0.0007	-5.6	31
0.0195	-0.0015	-0.0706	0.0007	-5.6	31
0.018	-0.0158	-0.0518	-0.0015	-5.8	31
0.0007	-0.0308	-0.0135	-0.0015	-5.5	31
-0.0105	-0.0278	0.027	0	-5.7	31
-0.0008	-0.003	0.0457	0.0052	-5.6	31
0.0067	0.0082	0.0592	0.0082	-5.6	31
0.0135	0.0135	0.0577	0.009	-5.7	31
0.021	0.018	0.0337	0.009	-5.7	31
0.0202	0.0195	0.003	0.009	-5.4	31
0.0105	0.0157	-0.0195	0.0067	-5.8	31
-0.0023	0.0037	-0.0233	0.0052	-5.4	31
0.0112	0.0105	-0.0346	0.0045	-5.8	31
0.0255	-0.0008	-0.0398	0.0007	-5.5	31
0.0097	-0.0256	-0.0218	-0.0023	-5.6	31
-0.0091	-0.0068	-0.003	-0.0075	-5.5	31
-0.0263	0.0157	0.0135	-0.0083	-5.4	31
-0.0293	0.009	0.0255	-0.0053	-5.7	31
0.0007	0.0067	0.0307	-0.0038	-5.5	31
0.0075	-0.0158	0.042	-0.0015	-5.7	31
-0.0008	-0.054	0.039	0.0015	-5.6	31
0.0007	-0.0428	0.0232	0	-5.4	31
-0.0143	-0.0135	0.015	-0.0023	-5.5	31
-0.0098	-0.0053	0.0015	-0.0038	-5.5	31
-0.0083	-0.0105	-0.0053	-0.0053	-5.2	31
-0.0046	-0.0046	-0.0128	-0.0068	-5.8	31
0.0082	-0.0046	-0.021	-0.0083	-5.5	31
0.0165	-0.0105	-0.027	-0.0091	-5.6	31
0.0105	-0.0015	-0.048	-0.0098	-5.7	31
-0.0046	-0.0038	-0.0706	-0.0091	-5.4	31
0.0075	0.0015	-0.0743	-0.0105	-6	31
0.015	-0.0008	-0.0645	-0.0105	-5.4	31
0.0045	-0.0053	-0.0443	-0.0091	-5.7	31
0.0067	0.0052	-0.006	-0.0053	-5.3	31
0.0277	0.015	0.0337	-0.0023	-5.7	31
0.0195	0.0202	0.0592	-0.0008	-5.5	31
-0.0383	0.0052	0.0697	0.0015	-5.4	31
-0.0713	0.0015	0.0697	0.0037	-5.5	31
-0.0511	0.0075	0.0705	0.0052	-5.6	31
-0.0203	-0.0015	0.0682	-0.0008	-5.6	31
-0.006	-0.012	0.0532	-0.003	-5.6	31
-0.0053	-0.0105	0.0225	-0.0008	-5.7	31
-0.0091	0.0007	-0.0023	0.0007	-5.4	31
-0.003	0.0135	-0.0233	-0.0015	-5.9	31
0.003	0.0165	-0.0488	-0.0053	-5.5	31
-0.003	0.0135	-0.063	-0.0046	-5.8	31
-0.0008	0.0187	-0.0533	-0.0023	-5.6	31
0.021	0.0292	-0.0315	-0.0008	-5.7	31
0.0345	0.0382	-0.0091	-0.0008	-5.8	31
0.0277	0.0127	0.024	-0.0015	-5.4	31
0.0165	-0.0436	0.057	-0.0015	-5.8	31
-0.003	-0.0683	0.0652	-0.0008	-5.5	31
-0.0181	-0.0533	0.0442	-0.0015	-5.7	31
-0.0105	-0.0263	0.0187	0.0007	-5.7	31
0.0037	-0.0091	-0.0098	0.0022	-5.5	31
0.0015	-0.0046	-0.0293	0.0015	-5.7	31
-0.0015	0	-0.021	0.0052	-5.9	31
-0.0046	0.0037	-0.021	0.0045	-5.7	31
-0.0075	0.006	-0.0158	0.006	-5.8	31
0.003	0.0067	-0.0068	0.0075	-5.8	31
0.0082	0.0097	-0.0053	0.0082	-5.5	31
0.0082	0.012	0.003	0.0105	-5.9	31
0	-0.0015	-0.0015	0.0067	-5.6	31
0.003	-0.003	-0.0091	0.003	-6	31
0.0082	0.0157	-0.0128	-0.0008	-5.6	31
0.009	0.0142	-0.0158	-0.0046	-6	31
0.0195	-0.0046	-0.0165	-0.0053	-5.6	31
0.0157	-0.0218	-0.0203	-0.0068	-5.9	31
0.003	-0.0338	-0.0278	-0.003	-5.7	31
-0.0165	-0.03	-0.027	0.0007	-5.8	31
-0.0158	-0.0038	-0.0128	0.0052	-5.8	31
0.0052	0.0075	-0.0046	0.0067	-5.7	31
-0.0008	0	-0.0023	0.0052	-5.7	31
0	0.009	-0.003	0.0082	-5.7	31
-0.003	0.0082	-0.0008	0.0097	-5.9	31
-0.0105	0.003	0.009	0.0082	-5.6	31
-0.003	-0.0053	0.009	0.006	-5.8	31
-0.0091	-0.0083	0.0067	0.0045	-5.7	31
-0.0091	0.0022	0.0037	0.003	-5.9	31
-0.0053	0	-0.003	0.0015	-5.7	31
-0.003	0.003	-0.0046	-0.0015	-5.7	31
0.0045	0.003	-0.0075	-0.003	-5.9	31
0.0037	0.0037	-0.0068	-0.0008	-5.7	31
0.003	0.0045	-0.0046	-0.0008	-5.9	31
0.0045	0.0037	-0.003	-0.0008	-5.7	31
0.009	0.0022	-0.0015	0.0015	-5.9	31
0.0135	0.0007	-0.0023	0.0045	-5.9	31
0.018	0.0052	-0.0046	0.009	-5.8	31
0.0135	0.0052	-0.0015	0.0075	-5.7	31
-0.006	-0.0008	0.0015	0.0015	-5.9	31
-0.0015	-0.0038	-0.0008	-0.0015	-5.7	31
0.0202	0	-0.012	-0.0008	-5.9	31
0.015	0.006	-0.0346	0.0007	-5.8	31
0.009	0.012	-0.0361	-0.003	-5.9	31
-0.0046	0.0127	-0.0263	-0.006	-6	31
-0.0158	0.0075	-0.027	-0.006	-5.8	31
-0.0046	-0.0015	-0.015	-0.0053	-5.9	31
-0.0008	-0.0068	-0.0008	-0.0068	-5.9	31
-0.0053	0.0007	0.0157	-0.0091	-5.8	31
-0.0128	0.0105	0.0247	-0.0098	-5.9	31
0.0015	0.0202	0.0307	-0.0083	-5.7	31
0.0127	0.0202	0.0435	-0.0068	-5.9	31
-0.0075	-0.0068	0.0532	-0.0083	-5.9	31
-0.0248	-0.048	0.0562	-0.0068	-5.7	31
-0.0256	-0.0593	0.0495	-0.0083	-5.7	31
-0.0233	-0.0428	0.0322	-0.0075	-5.9	31
-0.0181	-0.027	0.0157	-0.0015	-5.5	31
-0.0113	-0.0181	0.0052	-0.0008	-6	31
-0.0165	-0.0083	-0.0218	0	-5.6	31
-0.0135	0.0127	-0.0495	0.0015	-5.9	31
-0.0053	0.0277	-0.0735	0.0022	-5.8	31
0.0105	0.06	-0.0863	0.0067	-5.8	31
0.0375	0.0945	-0.054	0.0045	-5.8	31
0.0525	0.0577	-0.0128	-0.0008	-5.8	31
0.0375	-0.024	0.0337	-0.0068	-6	31
0.0127	-0.0638	0.075	-0.0083	-5.7	31
0.027	-0.0706	0.0847	-0.0091	-5.9	31
0.0217	-0.0518	0.0547	-0.0098	-5.9	31
0.0097	0.009	-0.0105	-0.006	-5.9	31
0.018	0.009	-0.0413	-0.0053	-5.9	31
-0.003	-0.0256	-0.0405	-0.0023	-6.1	31
-0.048	-0.0383	-0.0195	-0.003	-5.8	31
-0.1043	-0.0256	0.018	-0.0075	-5.9	31
-0.09	0.0007	0.0345	-0.0091	-5.8	31
-0.0308	-0.0008	0.048	-0.0046	-5.9	31
-0.0105	-0.0181	0.0405	-0.003	-6.1	31
0.0007	-0.0585	0.0225	-0.0008	-5.7	31
0.0045	-0.048	0.0172	0.0082	-6.1	31
0.0165	0.0015	0.0082	0.0112	-5.8	31
0.012	0.0307	-0.0165	0.009	-6	31
-0.0046	0.039	-0.0443	0.0082	-5.9	31
-0.0023	0.018	-0.0375	0.0067	-5.9	31
-0.0053	-0.003	-0.027	0.0045	-6	31
-0.0015	-0.0203	-0.0135	0.003	-5.8	31
0.0067	-0.0248	0.0067	0.0045	-5.9	31
0.0217	-0.0128	0.0225	0.0067	-5.9	31
0.0195	0.0142	0.033	0.0045	-6.3	31
0.0082	0.0292	0.0277	0.0022	-5.7	31
0.0217	0.0397	0.0105	0.003	-6	31
0.0255	0.045	-0.012	0.003	-5.8	31
0.0052	0.018	-0.0263	0.0007	-6	31
-0.0195	-0.0068	-0.0405	-0.0008	-5.8	31
-0.027	-0.0091	-0.0518	-0.0015	-5.8	31
-0.0195	-0.0038	-0.0443	-0.0008	-6	31
-0.0075	-0.024	-0.0368	-0.003	-5.7	31
0.0157	-0.0346	-0.0436	-0.0015	-6.2	31
0.0277	-0.0158	-0.0518	0.0007	-5.8	31
0.036	0.0037	-0.0383	0.0045	-6.2	31
0.0345	0.0307	-0.006	0.0052	-5.9	31
0.0277	0.039	0.0375	0.0045	-5.8	31
0.0202	0.0217	0.0622	0.003	-5.8	31
-0.0023	0.0067	0.0705	0.0015	-5.8	31
-0.012	-0.0091	0.072	0.0007	-5.9	31
-0.0083	-0.0173	0.0502	-0.0008	-5.8	31
-0.0143	-0.0105	0.0262	-0.0015	-6.1	31
-0.0218	-0.0113	0.0135	-0.0038	-5.7	31
-0.0143	-0.0105	0.0082	-0.003	-6	31
-0.0105	0.0007	0	-0.0015	-5.5	31
-0.0113	0.003	-0.0098	-0.0015	-6.1	31
-0.0008	0.0037	-0.0143	0	-5.8	31
0.0202	0.0075	-0.0256	0.0007	-5.9	31
0.0345	0.0097	-0.0293	0.0007	-5.9	31
0.027	0.0052	-0.027	-0.0008	-5.8	31
0.0315	-0.0083	-0.0278	0.0015	-6.3	31
0.03	-0.0195	-0.024	0.0007	-5.7	31
0.0165	-0.012	-0.0195	-0.0015	-6	31
-0.003	0.006	-0.0128	-0.003	-5.8	31
-0.0428	0.0127	-0.0075	-0.0023	-5.9	31
-0.0908	0.0022	0.0007	-0.0008	-5.7	31
-0.0975	-0.0218	0.0052	-0.003	-5.9	31
-0.0511	-0.0233	-0.0023	-0.0046	-5.9	31
-0.0308	-0.0188	-0.0098	-0.003	-5.9	31
-0.012	-0.0135	-0.0143	0.0015	-5.9	31
0.0142	0.012	-0.0323	0.0045	-5.7	31
0.0127	0.0165	-0.0383	0	-6.1	31
-0.003	0.0097	-0.0233	-0.0038	-5.5	31
0.0007	0.0045	-0.0091	-0.0046	-6	31
0.0217	0.0082	0	-0.0023	-5.6	31
-0.0053	0	0.0157	0.0007	-5.9	31
-0.0143	-0.0285	0.0285	0.0045	-5.6	31
0.009	-0.0256	0.0067	0.006	-5.7	31
0.009	-0.0053	-0.0188	0.0067	-5.9	31
0.0007	0.0007	-0.0008	0.0052	-5.8	31
0.0187	-0.0053	0.0195	0.0067	-5.8	31
0.048	0	0.033	0.0067	-6	31
0.048	0.0052	0.0465	0.003	-5.7	31
0.0405	0.012	0.0525	0.0007	-5.9	31
0.0292	0.0067	0.0645	0.003	-6	31
0.0105	-0.0143	0.0637	0	-5.8	31
-0.0158	-0.0218	0.0397	-0.0068	-5.9	31
-0.0443	-0.0203	-0.0075	-0.0075	-5.6	31
-0.03	-0.0195	-0.0518	-0.0068	-5.8	31
0.0015	-0.0105	-0.0533	-0.0053	-6	31
0.0105	-0.0015	-0.0368	-0.0046	-5.7	31
0.0142	0.003	-0.0218	-0.003	-6	31
0.021	0.012	-0.0068	0.0015	-5.7	31
0.024	0.018	0.0082	0.0015	-6	31
0.0292	0.0232	0.0195	0.0007	-6	31
-0.003	0.0105	0.0202	-0.0038	-5.9	31
-0.0368	0.003	0.0165	-0.0068	-5.9	31
-0.0375	-0.012	0.0015	-0.0068	-6.1	31
-0.0346	-0.0233	-0.0135	-0.0068	-5.8	31
-0.0293	-0.0113	-0.0195	-0.0038	-6.1	31
-0.021	-0.0113	-0.0181	-0.0023	-5.6	31
-0.0068	-0.0015	-0.0143	-0.0008	-6	31
0.0022	0.0127	-0.0135	0.0015	-5.9	31
0.0105	0.027	-0.0143	0.0037	-5.8	31
0.0127	0.021	-0.0128	0.0037	-6.1	31
0.0037	0	-0.0098	0.006	-5.9	31
0.0015	-0.0188	-0.0091	0.0067	-6.1	31
-0.0015	-0.0308	-0.0105	0.0052	-5.8	31
-0.0015	-0.0293	-0.0091	0.003	-6	31
-0.0023	-0.0165	-0.0053	0.0007	-6.1	31
0	-0.0015	-0.006	-0.0015	-5.9	31
0.0075	-0.0053	-0.0083	-0.0038	-6	31
0.0127	-0.003	-0.0068	-0.0008	-6.1	31
0.012	0.003	-0.0083	0.003	-6	31
0.0022	0.0067	-0.0068	0.0022	-6.1	31
-0.0068	-0.0008	-0.0008	0.0007	-6	31
-0.0098	-0.0046	-0.0053	0.0007	-6	31
-0.0068	0.0022	-0.0165	0.0007	-6.3	31
-0.0038	-0.0023	-0.0195	-0.0015	-5.9	31
0.0007	0.003	-0.027	-0.0015	-6.3	31
-0.0046	0.0045	-0.0443	-0.0015	-5.8	31
-0.012	0.0045	-0.0503	-0.0023	-6.2	31
-0.0113	0.006	-0.0645	0.0015	-6.1	31
-0.0068	0.0097	-0.0706	0.0007	-6	31
0.003	0.0135	-0.0353	0.0007	-6.1	31
0.0165	0.0142	0.0165	0.003	-6	31
0.0142	0.0067	0.075	0.0007	-6.1	31
0.012	-0.0015	0.1102	0.0015	-6	31
0.03	0.0037	0.1275	0.0007	-6.1	31
0.0195	0.0007	0.132	-0.003	-5.9	31
0	0.003	0.1147	-0.0083	-6.2	31
0.0052	0.0007	0.0727	-0.0091	-5.9	31
-0.0068	-0.003	0.0195	-0.0091	-6.1	31
-0.0195	-0.006	0.0097	-0.0091	-6	31
-0.0098	-0.0173	0.0067	-0.0091	-6.1	31
-0.003	-0.0053	-0.0091	-0.0083	-6.1	31
0.0015	-0.0008	-0.0158	-0.0075	-5.9	31
-0.003	-0.0038	-0.027	-0.0046	-6.3	31
-0.0105	-0.0015	-0.0203	-0.0053	-5.7	31
-0.0053	-0.0023	-0.0143	-0.003	-6.2	31
0.0067	0.006	-0.0233	-0.0015	-6	31
0.0127	0.03	-0.0346	-0.0008	-6.2	31
0.0157	0.0532	-0.042	0.003	-6	31
0.0165	0.0502	-0.0503	0.0052	-6	31
0.009	0.0442	-0.0623	0.0082	-6	31
0.0022	0.0382	-0.0698	0.009	-6.1	31
0.0097	0.027	-0.0623	0.0112	-6.3	31
0.0075	0.0067	-0.0323	0.0105	-5.9	31
-0.0158	-0.0465	-0.0188	0.0052	-6.1	31
-0.012	-0.1223	-0.0083	-0.0038	-5.8	31
-0.003	-0.1463	0.0187	-0.0098	-6.3	31
-0.0158	-0.0758	0.036	-0.0098	-5.9	31
-0.0091	-0.0488	0.0142	-0.012	-6.2	31
0.012	-0.0203	-0.0113	-0.012	-5.9	31
0.0307	0.009	-0.006	-0.0091	-6	31
0.0292	-0.0248	0.0067	-0.0083	-6	31
0.0045	-0.015	0.0217	-0.0075	-5.8	31
-0.0368	-0.0128	0.0292	-0.0038	-6.1	31
-0.0578	-0.003	0.0367	0	-6.1	31
-0.042	0.0067	0.0435	0.0015	-6	31
-0.0188	0.0045	0.0465	0.0007	-5.9	31
-0.0068	0.0052	0.0465	0.0022	-6.1	31
-0.0143	0.0052	0.0367	0.0052	-5.9	31
-0.0128	0.0232	0.0127	0.0052	-5.9	31
-0.0083	0.0255	-0.0091	0.006	-6	31
-0.0008	0.0307	-0.0008	0.0045	-5.9	31
0.0105	0.024	-0.0068	0.0007	-6	31
0.0165	0.0195	-0.0203	0	-5.9	31
0.018	0.0277	-0.0181	-0.0015	-6.2	31
0.0015	0.0367	-0.0225	-0.0053	-5.7	31
-0.0023	0.0225	-0.021	-0.0053	-6.2	31
0.0007	-0.006	-0.0278	-0.003	-5.7	31
0.009	-0.0105	-0.0353	0.0015	-5.9	31
0.0052	-0.0128	-0.0361	0.0037	-6	31
-0.0263	-0.0181	-0.0323	0.003	-5.9	31
-0.0405	-0.027	-0.0233	0.0007	-6	31
-0.0195	-0.0128	-0.0181	-0.0008	-6.2	31
0.003	-0.0038	-0.012	0.0015	-5.7	31
0.0105	-0.0015	-0.0091	0.0037	-6	31
0.0127	0.0097	-0.006	0.006	-6	31
0.0202	0.0007	-0.003	0.0052	-5.8	31
0.0337	-0.006	0.018	0.0045	-6	31
0.0397	-0.0068	0.0427	0.003	-5.9	31
0.0345	-0.0053	0.042	0.003	-6.1	31
0.015	-0.0105	0.0262	-0.0008	-6	31
-0.003	-0.0143	0.0022	-0.0015	-5.9	31
-0.006	-0.0188	-0.015	-0.0015	-6.1	31
0.0007	-0.0181	-0.0218	-0.0023	-5.7	31
0.0082	0.0112	-0.0135	-0.0008	-6	31
0.0082	0.0337	0.0007	0.0015	-6.1	31
0.0052	0.03	0.012	0	-6	31
0.0015	0.0082	0.0165	-0.0023	-6	31
0.0172	-0.012	0.0217	-0.0008	-6.1	31
0.0232	-0.0218	0.0172	0.0015	-5.8	31
-0.012	-0.0293	0.0112	0.0007	-6.2	31
-0.039	-0.0375	0.0112	0	-5.7	31
-0.042	-0.0256	-0.003	0	-6.2	31
-0.0195	-0.0053	-0.0113	0.0007	-5.8	31
-0.0075	0.003	-0.0083	-0.0008	-5.9	31
-0.0038	0.0037	-0.0068	0.0007	-6.1	31
-0.0008	0.0022	-0.0083	0.0015	-5.9	31
-0.0091	0.0052	-0.0083	0	-6	31
-0.0113	0.0007	-0.0091	-0.0008	-5.8	31
-0.0233	0	-0.0091	-0.0008	-6.1	31
-0.0143	0.0015	-0.0105	0.003	-6.1	31
0.0045	0.0015	-0.0181	0.0015	-6	31
0.0105	0.0015	-0.0285	0.0015	-6	31
0.027	0.0037	-0.048	0.003	-5.8	31
0.0345	0.0067	-0.054	0.003	-5.8	31
0.0322	0.012	-0.054	0.003	-6.2	31
0.0285	0.024	-0.0383	0.0015	-6	31
0.0165	0.0292	-0.0068	0.0007	-5.9	31
0.006	0.0277	0.0105	-0.0008	-6.2	31
0.0067	0.0217	0.0217	-0.0008	-5.9	31
0.0262	0.0187	0.0195	-0.0008	-6.3	31
0.0202	-0.0053	0.0195	-0.0053	-5.8	31
-0.0083	-0.0443	0.033	-0.0105	-6.3	31
-0.0203	-0.0315	0.0345	-0.0068	-5.8	31
-0.0405	-0.0165	0.0337	-0.003	-6.2	31
-0.0721	-0.003	0.0465	0.0007	-6.1	31
-0.1006	-0.0015	0.0442	-0.003	-5.9	31
-0.0691	-0.03	0.0232	-0.006	-6.1	31
-0.0203	-0.0128	0.0015	-0.003	-6	31
-0.012	-0.0038	-0.0091	-0.0008	-6.2	31
0.0067	-0.0173	0.0052	0.0015	-6	31
0.0157	-0.0098	0.0232	0.0022	-6.3	31
0.03	0.0127	0.0255	0.0007	-5.9	31
0.0442	0.0262	-0.0046	-0.0008	-6.3	31
0.0375	0.0225	-0.0608	0.0015	-5.9	31
0.0532	0.033	-0.0833	0.0037	-6.2	31
0.0667	0.0727	-0.0788	0.0037	-6	31
0.0592	0.0802	-0.0713	0.0045	-6	31
0.027	0.0142	-0.048	0.0007	-6.3	31
-0.0046	-0.0315	-0.0038	0	-6	31
-0.021	-0.0548	0.0517	-0.0023	-6.3	31
-0.0533	-0.0885	0.0855	-0.003	-5.8	31
-0.0473	-0.0915	0.1237	-0.0008	-6.1	31
-0.0368	-0.075	0.138	0	-6	31
-0.048	-0.0675	0.108	-0.0053	-6	31
-0.0458	-0.0668	0.0772	-0.0068	-6.1	31
-0.0346	-0.0293	0.0217	-0.0046	-6.3	31
-0.0015	0.0172	-0.0458	-0.0053	-6	31
0.0195	0.036	-0.0915	-0.0015	-6.3	31
0.0135	0.0472	-0.0863	-0.0008	-6.1	31
0.0135	0.057	-0.0645	-0.0053	-6	31
0.0322	0.0637	-0.0518	-0.0053	-6.3	31
0.0307	0.012	-0.0165	-0.0068	-6	31
-0.0083	-0.0503	-0.0008	-0.0105	-6.3	31
-0.0165	-0.0548	0.009	-0.0105	-6	31
-0.003	-0.033	0.0315	-0.006	-6.3	31
0.0015	-0.0128	0.039	-0.0015	-5.9	31
0.0112	0.003	0.0382	0.0007	-6.2	31
0.018	0.0142	0.0285	0.0067	-6.2	31
0.0165	0.015	0.0112	0.0105	-6.1	31
-0.0038	0.0202	-0.0173	0.009	-6.1	31
-0.0165	0.0172	-0.0203	0.0105	-6.2	31
-0.0083	0.0187	-0.0091	0.012	-6	31
-0.0053	0.0187	-0.0256	0.0097	-6	31
0.0015	0.0187	-0.0315	0.009	-6.1	31
0.0045	0.0292	-0.03	0.0097	-6	31
0.0127	0.0367	-0.0368	0.009	-6	31
0.0142	0.042	-0.0375	0.0052	-5.9	31
0.0105	0.0255	-0.0413	0.006	-6	31
0.0195	-0.0181	-0.0383	0.0052	-6	31
0.003	-0.0585	-0.0263	0.0045	-6	31
0.0022	-0.0593	-0.0188	0.0052	-6.2	31
0.0052	-0.027	-0.0158	0.0067	-5.7	31
-0.0053	0.0052	-0.0075	0.0067	-6.3	31
-0.0015	-0.0023	0.0142	0.0015	-6.1	31
-0.0218	-0.0105	0.0255	-0.0046	-5.8	31
-0.033	-0.0068	0.0217	-0.0075	-6	31
-0.0135	-0.0113	0.0127	-0.0098	-5.9	31
0.0052	-0.0068	0.0082	-0.0105	-5.7	31
0.0165	-0.0046	0.0082	-0.0083	-6.2	31
0.0255	0.003	0	-0.0083	-5.7	31
0.015	0.0052	-0.0046	-0.0046	-6.1	31
0.0037	0.0097	-0.0091	-0.003	-5.9	31
-0.0008	0.0082	-0.0068	-0.0053	-5.9	31
-0.0091	0.0037	0.0157	-0.0038	-6.1	31
-0.0098	0.0022	0.0232	-0.003	-5.8	31
-0.0181	-0.003	0.0165	-0.003	-6	31
-0.0181	0.003	0.0037	-0.0038	-5.9	31
-0.0098	-0.0091	-0.0046	-0.0053	-6	31
-0.0128	-0.0195	-0.0143	-0.0068	-5.9	31
-0.012	-0.0143	-0.0248	-0.0053	-5.9	31
-0.0075	-0.0083	-0.0203	-0.0015	-6	31
-0.012	0.0015	-0.0113	0.0022	-5.9	31
-0.0158	-0.0083	0.0007	0.0045	-5.9	31
-0.0053	-0.0083	0.0142	0.0052	-6	31
0.0067	0.0022	0.027	0.0067	-6	31
0.0165	0.0037	0.027	0.0045	-5.9	31
0.0292	0.0067	0.018	0.0045	-6.3	31
0.0307	0.012	0.0157	0.0067	-5.7	31
0.024	0.0127	0.0082	0.0082	-6.3	31
0.012	0.0112	-0.003	0.0052	-5.8	31
0.0045	0.009	-0.0046	0.0015	-6	31
0	0.0015	-0.003	-0.0008	-5.9	31
0.0015	-0.0015	-0.0038	-0.0015	-5.9	31
-0.003	-0.0158	-0.0023	-0.0068	-6	31
-0.0165	-0.0263	-0.0015	-0.0091	-5.8	31
-0.021	-0.0165	-0.0023	-0.0083	-6	31
-0.0195	-0.012	-0.0046	-0.0068	-5.9	31
-0.0203	-0.0083	-0.0023	-0.0046	-6	31
-0.0218	-0.0053	0.0022	-0.0023	-6.1	31
-0.0053	-0.0023	0	-0.003	-6.1	31
0.0022	0.0045	-0.0046	-0.003	-5.8	31
-0.0023	0.0157	-0.0091	0.0007	-6.2	31
0.0037	0.0352	-0.012	0.0007	-5.8	31
0.0045	0.036	-0.0113	0	-6	31
0.0127	0.0195	-0.0128	-0.0008	-6	31
0.0255	0.0015	-0.0173	-0.0008	-5.9	31
0.0397	-0.0173	-0.0225	0.0015	-6.2	31
0.0367	-0.0293	-0.024	-0.0023	-5.7	31
0.003	-0.0375	-0.0285	-0.0105	-6.1	31
-0.0158	-0.033	-0.039	-0.0098	-5.7	31
-0.0158	-0.0203	-0.0368	-0.0083	-6.2	31
-0.0105	-0.0218	-0.0181	-0.0053	-6	31
-0.003	-0.0165	0.0007	-0.003	-6	31
0.0052	-0.0143	0.0157	-0.003	-6	31
0.012	-0.0195	0.0262	0	-6	31
0.0045	-0.0083	0.0352	0.0015	-5.9	31
-0.0046	0.0015	0.0307	0.003	-5.9	31
-0.0091	0.009	0.0067	0.0052	-6.1	31
-0.0008	0.0142	-0.0046	0.0045	-5.9	31
0.0127	0.0127	-0.0113	0.003	-6.3	31
0.0142	0.0097	-0.0158	0.003	-5.8	31
0.0037	0.0075	-0.0053	0.0045	-6.2	31
-0.0233	0	0.0285	0.003	-5.8	31
-0.0413	-0.0053	0.069	0.0007	-6	31
-0.0218	0.0052	0.0915	0	-6	31
-0.0068	-0.0015	0.0907	-0.0008	-6	31
-0.0053	-0.0046	0.0765	-0.0023	-6.2	31
-0.003	-0.0053	0.0547	-0.0023	-6	31
0.0007	-0.006	0.0142	-0.0015	-6	31
0.0172	0.0097	-0.024	0.0007	-6	31
0.0277	0.0142	-0.0563	0.0007	-5.9	31
0.015	0.0187	-0.0578	0.0022	-6.1	31
-0.0203	0.0135	-0.0346	0.0022	-6	31
-0.045	0.0105	-0.0368	0.0015	-5.9	31
-0.048	0.0105	-0.0353	0.006	-6.1	31
-0.033	-0.0143	-0.0188	0.0067	-6	31
0.0105	-0.042	-0.0046	0.0007	-6	31
0.0352	-0.0285	0.0082	-0.0008	-6	31
0.0442	-0.003	0.0127	0.0015	-6	31
0.0345	-0.0128	0.0075	0.0007	-6.1	31
0.0045	-0.0046	-0.024	0.0007	-6	31
-0.0158	0.018	-0.0615	0.003	-6.2	31
-0.0083	0.0187	-0.0578	0.0037	-5.8	31
0.009	0.0217	-0.0323	0.0022	-6	31
0.009	0.0105	-0.0015	-0.0008	-6.1	31
0.018	-0.0195	0.03	-0.0046	-5.9	31
0.0135	-0.0203	0.0345	-0.0053	-5.9	31
-0.0008	-0.012	0.0292	-0.0046	-6.3	31
-0.0053	-0.0143	0.0165	-0.0038	-5.8	31
-0.0203	-0.0053	-0.006	-0.0008	-6.2	31
-0.0165	-0.003	-0.0263	0.0015	-5.8	31
-0.012	0.0097	-0.024	0.003	-6.1	31
-0.0053	0.018	-0.0038	0.003	-6.1	31
-0.0105	0.0157	0.012	-0.0008	-5.9	31
-0.0263	-0.0008	0.0165	-0.003	-6.2	31
0.0037	-0.0256	0.0135	-0.0023	-5.9	31
0.0217	-0.0135	0.012	-0.0015	-6	31
0.021	0.0105	0.0075	0	-5.9	31
0.0127	0.0232	0.0045	0.0007	-6	31
-0.0098	0.006	0.0007	0.0022	-5.9	31
-0.0083	-0.0158	-0.0038	0.0037	-5.9	31
-0.0038	-0.0105	-0.0098	0.003	-5.9	31
0.0082	0.0015	-0.0195	-0.0008	-6.1	31
0.0135	-0.0053	-0.0181	-0.0046	-5.9	31
0	-0.0248	-0.0053	-0.0053	-5.9	31
-0.0075	-0.027	-0.003	-0.0046	-6	31
-0.012	-0.0173	-0.0046	-0.0075	-5.9	31
-0.0113	-0.0083	-0.0008	-0.0083	-6	31
-0.0105	-0.0083	0	-0.006	-5.8	31
-0.0068	-0.0046	-0.0008	-0.006	-6.1	31
-0.0046	0.0022	-0.0053	-0.003	-5.8	31
-0.0008	0.0075	-0.0143	-0.0008	-6.2	31
0.009	0.0105	-0.0165	0.0015	-6	31
0.0105	0.024	-0.0181	0.0037	-6	31
0.009	0.0352	-0.0165	0.003	-6.1	31
0.0045	0.0285	-0.0068	0.0015	-6	31
0.0052	0.0165	-0.003	0.0015	-6	31
0.0142	0.0007	-0.0046	0.0045	-6.1	31
0.0157	-0.0105	-0.0173	0.0052	-5.9	31
0.0015	-0.012	-0.0263	0.003	-5.8	31
-0.012	-0.0181	-0.0083	0.0007	-6.2	31
-0.0195	-0.0458	0.0052	-0.0008	-5.7	31
-0.0105	-0.0233	0.0135	0.0015	-6.2	31
0.0052	0.0457	0.0232	0.0045	-5.9	31
-0.0053	0.0532	0.0232	0.0052	-6	31
-0.0068	0.0367	0.0202	0.003	-6	31
-0.006	0.0097	0.0172	0	-6	31
-0.0038	-0.0525	0.0105	-0.0008	-6.3	31
-0.003	-0.0923	0.0075	0	-5.8	31
-0.0195	-0.0615	0.012	0.0007	-6.1	31
-0.0113	-0.0083	0.015	-0.003	-6	31
-0.0046	-0.003	0.0142	-0.0098	-6	31
0.0007	-0.0053	0.0165	-0.0091	-5.9	31
0.0082	0.0007	0.0232	-0.006	-5.9	31
0.0045	-0.0068	0.012	-0.0046	-5.9	31
0.009	-0.0068	-0.0053	-0.0023	-6	31
-0.003	-0.0105	-0.0128	-0.003	-6.2	31
-0.0053	-0.0135	-0.0083	0.0022	-5.9	31
0.0255	-0.0008	-0.0008	0.0052	-6	31
0.0427	0.0045	-0.0113	0.006	-5.8	31
0.0292	0.009	-0.0278	0.0082	-6.3	31
0.0135	0.018	-0.0458	0.0075	-5.8	31
0.0127	0.0277	-0.0691	0.009	-6.2	31
0.0015	0.0337	-0.0765	0.0075	-5.9	31
-0.0188	0.0307	-0.066	0.0052	-6	31
-0.0188	0.0277	-0.0465	0.0052	-6.1	31
-0.0188	-0.0023	-0.006	-0.0008	-5.8	31
-0.0165	-0.0256	0.0225	-0.006	-6	31
-0.0015	-0.015	0.0367	-0.012	-6.1	31
0	-0.021	0.0637	-0.015	-6	31
-0.006	-0.0105	0.075	-0.0105	-6	31
-0.033	0.0022	0.063	-0.012	-6.2	31
-0.0488	-0.003	0.027	-0.0105	-5.9	31
-0.0143	-0.0015	-0.0015	-0.0046	-6.1	31
0.009	-0.0105	0.0052	0.0007	-5.9	31
0.018	-0.0023	0.033	0.0052	-6	31
0.0232	-0.0083	0.057	0.0015	-6.1	31
-0.0053	-0.0188	0.054	0.0022	-5.9	31
-0.024	-0.0091	0.024	0.0015	-6.2	31
-0.0165	-0.0023	0.0075	0.0007	-5.9	31
0.0045	0.0052	-0.0083	0.0015	-6.3	31
0.0315	0.0105	-0.0375	0.0007	-5.9	31
0.0322	0.021	-0.0443	0.0015	-6.2	31
0.0142	0.0165	-0.0405	0.0015	-6	31
0.0082	0.0007	-0.0278	0.0022	-6	31
-0.0038	-0.024	-0.0225	0.0015	-6	31
-0.0181	-0.0278	-0.0105	0.0007	-6.2	31
-0.0135	0.0007	0.0082	0.0015	-5.8	31
-0.0053	0.0022	0.0015	0	-6.1	31
0.0067	0.0045	-0.0008	0	-5.9	31
0.0015	0.015	0.0045	-0.0008	-6	31
-0.0091	-0.0008	0.0037	-0.003	-5.9	31
0.0007	-0.0068	0	0.0015	-6	31
-0.0068	-0.0038	-0.0068	0.003	-6.2	31
-0.015	-0.003	-0.0098	0.0045	-5.9	31
-0.0105	0.0067	0.0052	0.0045	-6.2	31
-0.0023	0.0105	0.0142	0.0037	-5.9	31
0.0157	0.0097	0.0135	0.0007	-6	31
0.0195	0.0127	0.0127	0.0007	-6	31
0.0277	0.0172	-0.0098	-0.0008	-5.9	31
0.0495	0.0187	-0.0353	0.0007	-6	31
0.0367	0.0157	-0.0405	0	-6	31
0.0045	0.012	-0.0368	-0.0023	-5.9	31
0.0007	0.0255	-0.0338	-0.003	-6	31
0.0015	0.0337	-0.0181	-0.006	-6.1	31
-0.0075	0.0202	0.0067	-0.0083	-5.9	31
-0.0091	-0.0083	0.024	-0.0083	-6.3	31
-0.015	-0.0398	0.0315	-0.0105	-5.7	31
-0.0203	-0.0465	0.03	-0.0113	-6.1	31
-0.0323	-0.0443	0.0217	-0.0105	-5.8	31
-0.033	-0.03	0.009	-0.0046	-6.1	31
-0.0083	-0.0308	-0.006	0.0015	-5.9	31
-0.0015	-0.0473	-0.0075	0.0007	-5.9	31
0.0082	-0.015	0.0052	0.006	-6	31
0.0097	0.0052	0.0082	0.0082	-5.9	31
-0.0091	0.003	-0.0015	0.006	-5.9	31
-0.0195	0.0052	-0.0315	0.0022	-6	31
-0.0233	-0.0038	-0.0428	-0.0023	-6	31
-0.0181	-0.0075	-0.0308	-0.0023	-5.8	31
-0.0098	-0.012	-0.021	-0.0023	-6.1	31
-0.0038	-0.0015	0.0045	0.0007	-5.6	31
0.0022	0.0045	0.0232	0.0007	-6.1	31
0	-0.0128	0.0315	-0.0008	-5.5	31
-0.0015	-0.0098	0.033	-0.0015	-6	31
-0.0023	-0.0143	0.0157	-0.0015	-5.8	31
0.0075	-0.0195	-0.006	0.0015	-6	31
0.0247	0.0045	-0.0053	0.0045	-5.9	31
0.0315	0.0135	0.0052	0.006	-5.9	31
0.0165	0.0165	0.0082	0.003	-5.9	31
-0.0008	0.0157	0.0105	0.0015	-5.7	31
-0.0068	0.0045	0.012	0	-5.9	31
-0.0015	0.0045	0.0007	0.0007	-5.9	31
0	0.0067	-0.0143	0.0022	-5.8	31
-0.0046	0.0067	-0.012	0.0015	-5.9	31
0.0165	0.0015	-0.0113	0.0015	-6	31
0.0157	-0.0105	-0.0128	0.0007	-5.8	31
-0.0015	-0.0083	-0.003	0.0007	-6.1	31
0.003	-0.0015	0.0045	0.0007	-5.8	31
0.003	-0.021	0.009	-0.0023	-5.9	31
0.0067	-0.0158	0.003	0	-6	31
-0.0008	0.006	-0.0053	0.0037	-5.8	31
-0.0128	0.0015	-0.0068	0.0022	-6.2	31
-0.0143	0.0007	0	0.003	-5.6	31
-0.0195	0.0007	-0.0053	0.0007	-6.1	31
-0.0128	0.0015	-0.024	-0.0015	-5.6	31
0.0067	0.006	-0.039	-0.0046	-5.9	31
0.009	0.0082	-0.039	-0.006	-5.9	31
0.003	0.009	-0.0293	-0.003	-5.7	31
0.018	0.0052	-0.0323	-0.0015	-5.8	31
0.0315	0.0015	-0.0218	-0.0008	-5.9	31
0.012	0.0165	0.0045	0.0007	-5.7	31
-0.0053	0.012	0.024	0.0015	-6	31
-0.0256	-0.0218	0.045	-0.0008	-5.9	31
-0.0428	-0.033	0.0517	-0.003	-5.9	31
-0.0181	-0.0195	0.048	0.0015	-6	31
-0.0053	0.009	0.0382	0.0045	-5.7	31
-0.0015	0.0232	0.0172	0.0037	-6	31
0.0052	0.0397	-0.003	0	-6.1	31
-0.0008	0.0277	-0.0285	-0.0015	-5.9	31
0.0007	-0.0083	-0.0728	-0.0023	-6.1	31
0.0097	-0.0083	-0.0885	-0.0008	-5.7	31
0.0075	-0.0091	-0.063	-0.0008	-6.1	31
-0.0046	0.0105	-0.039	0.0007	-6	31
0.006	0.0427	0.003	0.0037	-6	31
0.0157	0.045	0.0465	0.0022	-6	31
0.0202	-0.0023	0.0615	0	-5.9	31
0.018	-0.0533	0.051	-0.0083	-5.6	31
0.0045	-0.042	0.0255	-0.0091	-6.2	31
0.0045	-0.0338	0.0195	-0.0053	-5.9	31
-0.0083	-0.0803	0.0165	-0.0075	-6	31
-0.0195	-0.0803	-0.0008	-0.0053	-6	31
-0.0135	-0.0443	-0.0143	-0.003	-6	31
-0.012	-0.0346	-0.0053	-0.0008	-6.3	31
-0.0068	-0.0083	0.0037	-0.003	-5.9	31
-0.0233	0.0007	0.012	-0.003	-6	31
-0.0495	0.0082	0.042	-0.0015	-5.9	31
-0.0293	0.0172	0.0502	-0.0015	-5.9	31
-0.0068	0.0135	0.0427	-0.0046	-6.1	31
-0.0053	0.012	0.0367	-0.0068	-5.9	31
0.0045	-0.012	0.0345	-0.0053	-6	31
0.009	-0.0233	0.027	-0.0008	-6.1	31
0.0052	0.0067	0.009	0.003	-6	31
-0.003	0.0352	-0.0128	0.0082	-5.9	31
0.0007	0.0315	-0.0285	0.0105	-6.3	31
0.0195	0.018	-0.0405	0.009	-6	31
0.0247	-0.0046	-0.0518	0.0067	-6.3	31
0.0225	-0.0188	-0.0555	0.003	-5.8	31
0.0277	-0.0195	-0.0458	0.0022	-6.2	31
0.0315	-0.003	-0.0293	0.0022	-6	31
0.0142	0.015	-0.0098	-0.0023	-6.1	31
0.0015	-0.0091	0.0082	-0.0046	-6.2	31
-0.0023	-0.0181	0.0142	-0.0053	-5.9	31
-0.0098	0.0015	0.0127	0.0015	-6.3	31
-0.0098	0.024	0.0165	0.0037	-6	31
-0.0181	0.0285	0.0202	0.0007	-6	31
-0.012	0.0165	0.0067	0	-6.3	31
0.0067	0.0202	-0.0195	-0.0023	-6	31
0.0135	0.0172	-0.033	0.0007	-6	31
0.0037	0.009	-0.033	0.0015	-6.2	31
-0.0218	-0.0038	-0.03	0.0015	-6.1	31
-0.0165	0.0097	-0.0181	0.0022	-6.2	31
0.006	0.0292	-0.0091	0	-6.3	31
0.0202	0.0217	-0.0023	-0.0008	-6	31
0.0217	0.009	0.009	-0.0015	-6.3	31
0	-0.0068	0.0105	-0.0008	-5.8	31
-0.0105	-0.0143	0.0105	0.0015	-6.3	31
-0.0015	-0.0293	0.0007	0.0007	-6	31
0.0022	-0.0278	-0.0143	-0.003	-6.2	31
0.0037	-0.0128	-0.0195	-0.0068	-6	31
0.009	-0.0158	-0.0233	-0.0068	-6	31
0.0195	-0.0165	-0.015	-0.0068	-6.1	31
0.0217	-0.0083	-0.0083	-0.0083	-6	31
0.0232	-0.0008	0	-0.0046	-6.2	31
0.0292	-0.0023	0.009	-0.0023	-6.1	31
0.0007	-0.0015	0.0127	-0.0023	-6.2	31
-0.057	-0.0015	0.015	0	-5.8	31
-0.057	-0.0023	0.0052	0.0052	-6.3	31
-0.0128	0.0127	0.0052	0.0067	-5.9	31
-0.0083	0.0157	0.0135	0.006	-6.1	31
-0.0165	-0.0128	0.018	0.0015	-5.9	31
-0.0091	-0.027	0.0157	-0.0008	-6	31
-0.0181	-0.0135	0.0127	0	-6.1	31
-0.0248	-0.0053	0.0105	-0.0015	-5.8	31
-0.0105	-0.0046	0.0082	-0.0008	-6.2	31
0.0067	-0.0008	0.0067	0.0007	-5.8	31
0.0082	-0.0068	0.0075	-0.0015	-6.1	31
0.0045	-0.0158	0.0127	-0.0053	-5.9	31
0.009	-0.0098	0.0105	-0.0068	-6	31
0.0082	-0.0023	0.0015	-0.006	-6	31
-0.003	-0.006	-0.015	-0.0053	-5.9	31
-0.0128	-0.0075	-0.0225	-0.0046	-5.9	31
-0.0105	-0.0046	-0.0278	0.0007	-5.9	31
-0.0008	0.0037	-0.0398	0.003	-6	31
0.0052	0.0052	-0.0158	0.003	-5.7	31
0.0067	-0.003	0.0075	0.0037	-6.1	31
0.012	-0.0083	0.0045	0.0052	-5.7	31
0.03	-0.0098	-0.0023	0.0045	-6	31
0.0315	-0.0091	-0.012	0.0037	-5.7	31
0.0255	-0.0046	-0.0113	0.0045	-6	31
0.0142	-0.0008	-0.0105	0.0037	-5.8	31
-0.0008	-0.0038	-0.0128	0.0007	-6	31
-0.0008	-0.003	-0.0091	0.0007	-6.1	31
0.0067	0.0052	-0.0008	0.003	-5.9	31
0.0127	0.0225	0	0.0075	-5.9	31
0.0022	0.0247	0.009	0.0045	-5.9	31
-0.0293	0.0082	0.0352	-0.0015	-5.8	31
-0.0458	0.003	0.0427	-0.0046	-5.9	31
-0.0083	0.0067	0.033	-0.0046	-6	31
0.0135	-0.0083	0.0217	-0.0053	-5.8	31
-0.003	-0.0181	0.0045	-0.0091	-6.1	31
-0.0053	-0.0128	-0.0105	-0.0068	-5.9	31
-0.0046	-0.0323	-0.039	-0.0068	-6	31
-0.003	-0.042	-0.0645	-0.0075	-5.8	31
-0.0091	-0.012	-0.0578	-0.0046	-5.9	31
-0.012	-0.0008	-0.033	-0.0015	-5.9	31
-0.0046	-0.0158	-0.0053	-0.0008	-5.7	31
0.0067	-0.003	0.0157	0.003	-6	31
0.015	0.0015	0.027	0.0007	-5.7	31
-0.012	-0.0091	0.0157	-0.0053	-5.8	31
-0.0181	-0.0113	0.015	-0.0046	-5.9	31
0.0045	-0.0128	0.012	-0.0023	-5.8	31
0.0052	-0.0038	0.0052	0	-5.8	31
-0.0038	0	0.0307	0.0007	-6.2	31
-0.0068	0.0075	0.0472	0	-5.7	31
-0.003	0.024	0.0502	0	-6	31
-0.0015	0.0345	0.048	0.0007	-5.7	31
-0.003	0.0262	0.03	0.0022	-5.9	31
0.0015	0.003	-0.0105	0.0067	-5.9	31
0.012	-0.0113	-0.033	0.0105	-5.7	31
0.0135	-0.024	-0.027	0.0067	-6.1	31
-0.0053	-0.0233	-0.0203	0.003	-5.7	31
-0.0225	-0.0083	-0.015	0.0015	-5.9	31
-0.0165	-0.0023	-0.021	0.0007	-6	31
-0.0015	-0.0046	-0.033	0	-5.9	31
0.006	0.0142	-0.0533	-0.0015	-5.9	31
0.0127	0.0232	-0.0728	-0.003	-5.9	31
0.0307	0.0247	-0.081	-0.0008	-5.8	31
0.0405	0.054	-0.0856	0.0007	-6.1	31
0.0292	0.0577	-0.0653	-0.003	-5.9	31
0.0165	0.024	-0.0188	-0.0046	-6	31
-0.0068	-0.015	0.0285	-0.0046	-6	31
-0.015	-0.0473	0.0712	-0.0046	-5.8	31
-0.0105	-0.078	0.1072	-0.0038	-6.2	31
-0.0203	-0.0691	0.1252	-0.003	-5.7	31
-0.0158	-0.0308	0.1162	-0.0023	-6.1	31
-0.0225	-0.0165	0.072	0.0015	-5.9	31
-0.0293	-0.0128	0.033	0.0015	-6.1	31
-0.012	-0.0218	0.018	0.003	-5.8	31
0	0.0037	0.009	0.0067	-6	31
0.0045	0.0082	-0.0023	0.0045	-6	31
0.0007	0.0045	-0.0165	0.003	-6	31
-0.0015	0.0165	-0.0278	0.003	-6	31
0.0135	0.0105	-0.0361	0.0037	-5.9	31
0.0127	0.0307	-0.048	0.003	-6.1	31
0.0037	0.0225	-0.0555	0.003	-5.8	31
0.0067	0.0067	-0.0518	0.0052	-6.2	31
0.0097	-0.0083	-0.0443	0.0052	-5.9	31
0.0105	-0.003	-0.045	0.0067	-6.2	31
0.0022	-0.0038	-0.0518	0.0045	-5.9	31
-0.012	-0.0143	-0.0383	0.003	-6.1	31
-0.0218	0.0112	-0.015	0.0037	-6	31
-0.0135	0.0045	-0.003	0.003	-5.9	31
0.0277	0.0082	0.0127	0.0015	-6.3	31
0.0532	0.03	0.024	-0.0008	-5.9	31
0.021	0.0367	0.0405	-0.0053	-6.3	31
-0.0248	0.024	0.066	-0.0105	-6	31
-0.0353	0.0007	0.0705	-0.0128	-6.1	31
-0.0353	-0.0195	0.0495	-0.0105	-6	31
-0.027	-0.0503	0.0292	-0.0046	-6	31
-0.0091	-0.0653	0.0075	-0.0008	-5.9	31
-0.006	-0.0368	-0.0143	0.0015	-6.1	31
-0.0038	-0.0053	-0.0278	0.0037	-6.2	31
-0.0015	-0.0068	-0.0368	0.0052	-6	31
0.012	0.003	-0.0368	0.0075	-6.2	31
0.0292	0.0037	-0.0308	0.0052	-6	31
0.0382	0.018	-0.0233	0.0052	-6.2	31
0.0382	0.0495	-0.0195	0.0037	-5.8	31
0.0457	0.054	-0.0091	0.0015	-6.1	31
0.0502	0.0532	0.0135	0.0022	-5.9	31
0.027	0.0405	0.0217	0.0015	-6.2	31
0.003	0	0.0067	-0.0015	-6	31
-0.033	-0.0533	0.0082	-0.0068	-5.9	31
-0.0758	-0.0653	0.0172	-0.0098	-6	31
-0.0983	-0.0458	0.0037	-0.0113	-5.9	31
-0.0953	-0.0375	-0.0053	-0.012	-5.9	31
-0.042	-0.024	-0.0158	-0.0105	-6	31
0.0037	-0.003	-0.0375	-0.0053	-6	31
0.003	0.0157	-0.0721	-0.0038	-5.9	31
-0.0038	0.0232	-0.1013	0	-6.2	31
-0.0091	0.0277	-0.1028	0.0015	-6	31
0.006	0.0337	-0.0863	0.0007	-6	31
0.0397	0.0232	-0.0375	0.0037	-6	31
0.0562	0.0172	0.0277	0.0037	-5.9	31
0.039	0.0075	0.0862	-0.0008	-6.1	31
0.0067	-0.0091	0.1387	-0.0046	-5.9	31
-0.0135	-0.0525	0.156	-0.0075	-6.1	31
-0.0181	-0.0908	0.1417	-0.0091	-5.7	31
-0.003	-0.0706	0.1005	-0.0053	-6	31
-0.0015	-0.0256	0.0637	-0.0008	-5.9	31
-0.0023	0.0007	0.0307	0.0022	-5.9	31
0.0052	-0.0023	-0.0038	0.0015	-6	31
0.0007	0.003	-0.0023	0.0015	-6.2	31
0.0015	0.0007	-0.0046	-0.0008	-5.8	31
0.0082	0.0037	-0.0053	0.0007	-6.2	31
0.0067	0.0067	-0.006	0.0007	-5.9	31
-0.0008	0.0105	-0.0105	0.0045	-6.1	31
0.0082	0.0225	-0.012	0.0067	-5.9	31
0.021	0.021	-0.0285	0.0045	-5.9	31
0.015	0.0232	-0.033	0.003	-6.1	31
0.0015	0.0172	-0.0368	0.0015	-5.8	31
-0.0023	0.012	-0.0383	0.0015	-6.1	31
-0.0053	0.0105	-0.0346	0.0007	-5.8	31
-0.024	0.006	-0.0398	-0.0038	-5.9	31
-0.0181	-0.003	-0.0413	-0.0068	-5.9	31
-0.0083	-0.0053	-0.0353	-0.0068	-5.9	31
-0.0158	-0.0075	-0.024	-0.0075	-5.9	31
-0.0023	-0.006	-0.012	-0.0083	-5.9	31
0.0157	-0.0105	-0.0105	-0.0083	-5.7	31
0.024	-0.015	-0.0128	-0.0083	-5.9	31
0.0217	0.0037	-0.0105	-0.006	-6	31
0.0037	0.0075	-0.0135	-0.0053	-5.7	31
-0.0158	0.0052	-0.0083	-0.003	-6	31
-0.0248	0.0007	0.006	-0.003	-5.7	31
-0.0225	-0.003	0.0165	-0.0008	-6.1	31
0.0037	0.0007	0.015	0.0007	-5.6	31
0.012	-0.0053	-0.0038	0	-6	31
-0.0068	0.0007	-0.0165	0.003	-5.8	31
-0.0046	0.0052	-0.0256	0.0045	-5.9	31
-0.0046	-0.0046	-0.0488	0.0052	-6	31
0.009	-0.0015	-0.063	0.006	-5.9	31
0.027	0.0142	-0.039	0.0067	-5.8	31
0.0285	0.0157	-0.0083	0.0067	-5.8	31
0.0082	-0.0015	0.0352	0.0045	-6	31
-0.003	-0.0173	0.0787	0.0015	-5.7	31
0.0172	-0.0203	0.0817	0.0007	-6.1	31
0.0195	-0.0075	0.066	0.0037	-5.6	31
0.0255	-0.0046	0.0405	0.003	-6	31
-0.0023	-0.006	-0.0015	0.0022	-5.8	31
-0.0361	0	-0.0383	0.0045	-6.1	31
-0.0346	0.0067	-0.039	0.0045	-5.9	31
-0.0256	0.0112	-0.0195	0.0082	-5.9	31
-0.0113	0.0165	-0.0135	0.009	-6	31
-0.003	0.0232	-0.0053	0.0045	-5.7	31
0.0067	0.0202	0.0165	-0.0015	-6.1	31
0.012	0.039	0.018	-0.0015	-5.6	31
0.0157	0.0307	0.009	-0.0046	-6	31
0.0052	-0.0308	0.0022	-0.0053	-6	31
-0.0135	-0.0638	-0.0128	-0.003	-6	31
-0.021	-0.057	-0.0165	-0.0015	-5.9	31
-0.0285	-0.0375	-0.003	-0.0046	-5.9	31
-0.0225	-0.0158	0.0232	-0.0053	-6	31
0.0045	-0.0135	0.039	-0.003	-5.8	31
0.0157	-0.048	0.0435	-0.0046	-6	31
0.0135	-0.033	0.036	-0.0008	-5.8	31
0.0292	-0.0091	0.0105	0.003	-6.2	31
0.03	-0.0105	-0.0158	0.003	-5.7	31
0.0217	0.006	-0.027	0.0015	-6.3	31
0.0157	0.009	-0.0256	-0.0008	-5.9	31
0.0067	0.0195	-0.0256	-0.0023	-6.1	31
0	0.021	-0.0218	-0.0068	-5.9	31
-0.0091	0.0277	-0.0203	-0.0083	-6	31
-0.0398	0.0315	-0.0248	-0.0068	-6.1	31
-0.0653	0.0142	-0.0285	-0.0038	-6	31
-0.0503	0.0007	-0.0346	0.0007	-6	31
-0.0346	-0.0165	-0.0293	0.0067	-6	31
-0.0128	-0.0346	-0.0083	0.009	-6	31
0.0105	-0.039	0.0097	0.0067	-5.9	31
0.0165	-0.0053	0.021	0.0045	-6.3	31
0.0277	0.0037	0.0427	-0.003	-5.9	31
0.0172	0.0157	0.0495	-0.003	-6	31
0.0255	0.0637	0.024	0.0015	-6	31
0.0322	0.0607	0.0142	0.0007	-6	31
-0.0023	0.0337	-0.0181	-0.0008	-6.2	31
-0.0165	0.003	-0.0525	-0.0046	-5.8	31
-0.0203	-0.027	-0.0315	-0.0038	-6.1	31
-0.0203	-0.0653	-0.0233	-0.003	-5.8	31
-0.0105	-0.0878	0.0015	0.003	-6.2	31
0	-0.0263	0.0427	0.0067	-6.1	31
-0.0075	0.0345	0.0592	0.0082	-6	31
-0.0143	0.0277	0.063	0.009	-6	31
0.0165	0.0127	0.048	0.0082	-5.9	31
0.045	-0.0188	0.0352	0.0075	-5.9	31
0.0367	-0.042	0.0052	0.003	-6.1	31
0.0067	-0.0346	-0.015	-0.0015	-6.1	31
-0.0181	-0.0233	-0.0195	-0.0053	-6	31
-0.012	-0.003	-0.0308	-0.0023	-6	31
0.0052	0.009	-0.0323	-0.0008	-5.9	31
0.0112	0.0142	-0.027	0	-6.1	31
0.0135	0.0067	-0.0143	-0.0008	-5.9	31
0.0105	-0.0105	-0.0046	0.0007	-5.9	31
0	-0.0165	0.0022	0.0015	-6	31
-0.0128	-0.0091	-0.0105	-0.0023	-5.9	31
-0.0195	0.0007	-0.0105	-0.0053	-6	31
-0.0128	0.009	0.0037	-0.0068	-6	31
-0.0008	0.009	-0.0083	-0.0053	-6	31
0.0157	0.0082	-0.0143	-0.0053	-6	31
0.0225	0.0015	-0.0091	-0.0038	-5.9	31
0.0067	0.0007	0.0037	-0.0023	-5.9	31
-0.0158	0.003	0	-0.0023	-6.2	31
-0.0195	0.0007	-0.0068	-0.0008	-5.7	31
-0.0046	0.0105	-0.0188	0.0022	-6.2	31
0.0097	0.0255	-0.0443	0.0037	-5.8	31
0.0127	0.0435	-0.0368	0.0052	-6.1	31
0.0067	0.027	-0.0353	0.0045	-6	31
0.003	0.0015	-0.0278	0.0007	-6	31
0.0082	0.0097	0.0217	-0.0008	-5.9	31
0.0037	0	0.0607	-0.003	-5.8	31
-0.0053	-0.0383	0.0712	-0.003	-5.9	31
-0.0173	-0.06	0.0705	-0.0038	-5.8	31
-0.0203	-0.048	0.0697	-0.0046	-5.9	31
-0.0113	-0.0263	0.051	-0.003	-6	31
-0.0015	-0.003	0.0067	-0.0008	-5.9	31
0.0045	0.0082	-0.024	0	-5.8	31
0.0007	0.0142	-0.03	0.0007	-6	31
0.0007	0.0135	-0.0338	0.0007	-5.7	31
-0.0046	0.0022	-0.024	-0.0015	-5.9	31
0.0022	-0.0105	-0.015	-0.0046	-6	31
0.0112	-0.0165	-0.0165	-0.0068	-5.8	31
-0.0038	-0.0053	-0.0203	-0.0068	-6.2	31
-0.0128	0.0015	-0.024	-0.0075	-5.5	31
-0.0098	0.0127	-0.0225	-0.0068	-6.1	31
0.012	0.0262	-0.0233	-0.003	-5.9	31
0.0292	0.0367	-0.0203	-0.0015	-6.2	31
0.0232	0.0255	-0.0135	-0.0023	-5.8	31
0.0075	0.0052	-0.0038	-0.0023	-6	31
0.0045	-0.0128	0	-0.0053	-5.8	31
0.0045	-0.042	-0.0046	-0.0083	-5.7	31
-0.0083	-0.0383	-0.0091	-0.0068	-6	31
-0.0083	-0.0308	-0.0053	-0.0053	-5.8	31
-0.0083	-0.0195	-0.0015	-0.0053	-6	31
-0.0083	-0.0068	0.0007	-0.0015	-5.8	31
-0.0083	-0.0128	0.0015	-0.0008	-6	31
-0.0128	-0.0023	0.0007	-0.0008	-5.5	31
-0.0158	0.0045	0.0075	0	-6.1	31
-0.0203	-0.0015	0.0142	0	-5.5	31
-0.0233	-0.003	0.0195	0.0007	-5.8	31
-0.0293	-0.003	0.0082	0.0007	-5.8	31
-0.0165	-0.0008	-0.03	0.0015	-5.8	31
0.0045	0.0217	-0.0645	0.0015	-5.9	31
0.006	0.0457	-0.0518	0.0007	-5.7	31
0.015	0.0427	-0.0353	0.0015	-5.9	31
0.0277	0.0217	-0.0218	0.0022	-5.8	31
0.0315	-0.0091	0.024	0.0022	-5.7	31
0.0157	-0.0278	0.051	0.0015	-5.7	31
-0.0068	-0.0353	0.0555	0.003	-5.7	31
-0.0173	-0.0465	0.0645	0.0007	-5.6	31
-0.012	-0.027	0.0495	0.0015	-5.9	31
0	-0.0015	0.0105	0.0015	-5.9	31
0.0067	0.0052	0.003	0.0015	-5.6	31
0.0015	0.0067	-0.0015	-0.0015	-5.9	31
-0.0015	-0.0008	-0.012	-0.0046	-5.6	31
-0.0008	0.003	-0.0135	-0.0068	-6	31
-0.0008	0.0037	-0.0203	-0.0068	-5.5	31
0.0165	0.0105	-0.0038	-0.003	-5.9	31
0.0187	0.0112	0.0112	-0.0038	-5.6	31
-0.0135	0.003	0.024	-0.003	-5.8	31
-0.0525	0.0052	0.0382	-0.0023	-5.8	31
-0.063	-0.0075	0.033	0.0007	-5.9	31
-0.0218	-0.0098	0.0195	0.003	-5.7	31
0.0052	0.0007	0.0045	0.006	-5.7	31
-0.0008	-0.0015	-0.0083	0.0045	-5.7	31
0.0075	-0.0098	-0.0165	0.003	-6	31
0.0045	-0.0105	-0.0173	0.0045	-5.8	31
0.0135	-0.0015	-0.0195	0.0037	-5.7	31
0.033	-0.0038	-0.021	0.0037	-6	31
0.0217	-0.0075	-0.0195	0	-5.7	31
0.0157	0.0007	-0.0248	-0.0008	-5.9	31
0.0135	0.012	-0.0338	-0.0008	-5.8	31
0.012	0.012	-0.0315	0.0015	-5.9	31
0.0255	0.0127	-0.0285	0.0045	-5.9	31
0.027	0.021	-0.0225	0.0082	-5.9	31
-0.0008	0.0277	0.0007	0.009	-5.9	31
-0.0173	0.0165	0.0172	0.0015	-5.6	31
-0.0165	-0.015	0.0045	-0.0008	-5.9	31
-0.0128	-0.033	-0.0105	0.0007	-5.9	31
-0.0068	-0.0278	-0.0068	0.0037	-5.7	31
-0.006	-0.0098	0.0097	0.0052	-5.8	31
0.0007	0.0105	0.0247	0.006	-6.1	31
0.0097	0.0405	0.0255	0.0082	-5.6	31
0.0075	0.078	0.018	0.0067	-6	31
0.0015	0.0817	0.0082	0.006	-5.8	31
0.003	0.0277	-0.0075	0.0045	-6	31
0.0202	-0.0361	-0.027	0.0045	-5.9	31
0.0427	-0.1043	-0.0315	0.0037	-5.9	31
0.03	-0.1103	-0.0195	-0.0015	-5.9	31
-0.0083	-0.0383	-0.012	-0.0046	-5.9	31
-0.0323	-0.0068	0.0052	-0.003	-6.1	31
-0.0285	0.0067	0.0277	-0.0008	-5.9	31
-0.0195	-0.0105	0.0255	-0.0015	-5.9	31
-0.0218	-0.042	0.0315	-0.0046	-5.9	31
-0.0158	-0.0225	0.039	-0.0098	-6	31
-0.0405	-0.0233	0.0292	-0.0135	-5.9	31
-0.0338	-0.0195	0.009	-0.0083	-6	31
0.0007	-0.0046	-0.0038	-0.0046	-5.9	31
0.0187	0.009	-0.0053	-0.003	-5.9	31
0.039	0.0105	-0.012	-0.003	-6	31
0.0195	-0.0015	-0.015	-0.0023	-5.8	31
0.0037	0.006	-0.0113	-0.003	-6.1	31
-0.0188	0.0007	-0.0023	-0.003	-5.7	31
-0.0353	-0.0053	0.0052	-0.0008	-6.1	31
-0.0113	0.0015	0.0045	0	-5.7	31
0.0037	0.0082	0.0082	0	-5.9	31
0.0112	0.0135	0.0142	-0.0008	-5.9	31
0.018	0.0187	0.0097	-0.0008	-6	31
0.0142	0.0232	-0.0046	0.0007	-5.9	31
0.009	0.0285	-0.0173	0.0052	-6	31
0.0052	0.0315	-0.0195	0.0067	-6	31
-0.0053	0.0255	-0.0225	0.0082	-5.9	31
0.0082	0.0217	-0.0233	0.009	-6	31
0.0322	0.024	-0.0053	0.0067	-5.7	31
0.0315	0.0045	0.012	0.0045	-6	31
0.0277	-0.0398	0.0082	0.0007	-5.9	31
0.0105	-0.0743	0.0052	-0.0008	-5.9	31
-0.0015	-0.042	0.0007	-0.0015	-5.7	31
-0.0046	0.003	-0.0105	-0.0023	-5.9	31
-0.024	0.0172	-0.0091	-0.003	-6	31
-0.0473	0.027	-0.012	-0.0046	-5.8	31
-0.0511	0.0007	-0.0128	-0.0053	-6.1	31
-0.0293	-0.0143	-0.0023	-0.0083	-5.6	31
-0.0203	-0.0173	0.003	-0.0091	-6.1	31
-0.024	-0.0308	0.0097	-0.0068	-5.9	31
-0.0105	-0.0218	0.0082	-0.0015	-5.9	31
-0.003	-0.0008	-0.0023	-0.0023	-5.7	31
0.0187	-0.0091	-0.012	-0.003	-6	31
0.042	-0.0181	-0.0195	-0.0015	-5.8	31
0.0307	-0.0046	-0.0248	0.0007	-5.9	31
0.0165	-0.0015	-0.0285	0.0007	-5.9	31
0.0015	-0.003	-0.0413	0.0015	-5.6	31
-0.0015	-0.0046	-0.0668	0.0052	-6	31
0.0007	0.0232	-0.0825	0.0067	-5.6	31
0.0015	0.0442	-0.075	0.0052	-5.9	31
0.0067	0.0345	-0.0405	-0.0015	-5.7	31
0	0.0105	0.003	-0.0091	-6	31
-0.0218	-0.015	0.0397	-0.012	-5.7	31
-0.027	-0.0195	0.072	-0.0091	-5.7	31
-0.0068	-0.0091	0.0937	-0.0053	-5.9	31
-0.0083	0.033	0.1192	-0.0068	-5.6	31
-0.0173	0.018	0.135	-0.006	-5.7	31
-0.021	-0.0368	0.1185	-0.0053	-5.8	31
-0.0135	-0.048	0.0727	-0.0008	-5.8	31
-0.0015	-0.0368	0.0255	0.0037	-5.7	31
0.006	-0.0181	-0.0075	0.0067	-5.9	31
0.0165	-0.0105	-0.0188	0.0082	-5.7	31
0.0105	0.0007	-0.0165	0.009	-5.8	31
0.012	0.0037	-0.0188	0.0127	-5.7	31
0.0187	0.003	-0.0173	0.015	-5.8	31
0.015	0.0015	-0.024	0.0127	-5.9	31
0.0007	0.0007	-0.0285	0.0082	-5.6	31
-0.012	0.006	-0.0443	0.0082	-5.9	31
-0.003	0.006	-0.0713	0.006	-5.5	31
0.009	0.0105	-0.0788	0.003	-5.8	31
0.0232	0.0082	-0.0803	-0.0008	-5.6	31
0.0307	0.0082	-0.0683	-0.003	-5.7	31
0.0292	0.0127	-0.0346	-0.003	-5.5	31
0.0292	0.0082	-0.0015	-0.0046	-5.8	31
0.009	-0.0015	0.0262	-0.0038	-5.7	31
-0.0075	-0.0015	0.033	-0.0053	-5.8	31
-0.0158	-0.0038	0.0367	-0.0053	-5.5	31
-0.0353	-0.0046	0.0465	-0.0015	-5.8	31
-0.0308	0.0007	0.0427	-0.0008	-5.7	31
-0.0165	-0.0008	0.0285	-0.0023	-5.6	31
-0.0075	-0.0038	0.009	-0.0046	-5.7	31
-0.0046	-0.0068	-0.0083	-0.0023	-5.5	31
-0.0038	-0.003	-0.021	-0.0046	-5.9	31
0.003	0.0007	-0.021	-0.0068	-5.5	31
-0.0008	0.0015	-0.0158	-0.0083	-5.7	31
-0.0068	0	-0.0135	-0.0046	-5.7	31
-0.0046	0.003	-0.0068	-0.0015	-5.6	31
0.0045	0.0067	0	-0.0015	-5.6	31
0.0105	0.0075	0.0097	0.0007	-5.7	31
0.0105	0.003	0.012	0.0015	-5.5	31
0.0082	-0.0015	0.0105	0.003	-5.7	31
0.0165	-0.0023	0.003	0.0015	-5.7	31
0.0195	-0.0053	-0.012	-0.0023	-5.4	31
0.0015	0.009	-0.0091	-0.003	-5.9	31
-0.0008	-0.003	-0.0046	-0.0053	-5.2	31
-0.0008	-0.027	0	-0.0083	-5.9	31
-0.0091	-0.0225	-0.0023	-0.0091	-5.4	31
-0.0068	-0.0143	-0.0075	-0.0068	-5.9	31
0.0007	-0.012	-0.0135	-0.0023	-5.5	31
-0.0023	-0.0105	-0.0361	0	-5.7	31
-0.0008	-0.0008	-0.0615	0.0007	-5.7	31
0.0127	0.0015	-0.0585	0.0007	-5.7	31
-0.0075	0.0007	-0.033	0.003	-5.7	31
-0.0465	-0.012	-0.0038	0.0045	-5.4	31
-0.0495	-0.012	0.033	0.0067	-5.6	31
-0.0263	-0.0015	0.057	0.0052	-5.7	31
-0.003	-0.0113	0.0712	0.0022	-5.7	31
0.018	-0.0091	0.0705	0.0007	-5.6	31
0.0442	0.0045	0.036	0.0007	-5.9	31
0.0555	0.0142	-0.012	0.003	-5.4	31
0.0322	0.0007	-0.0308	0.0007	-6	31
-0.0113	-0.0128	-0.03	0	-5.4	31
-0.027	-0.0068	-0.0361	0.0015	-5.7	31
-0.0113	0.0045	-0.042	0.003	-5.6	31
0.0015	0.027	-0.0511	0.003	-5.8	31
0.0097	0.0315	-0.0405	0.0045	-5.9	31
0.009	0.0217	-0.0256	0.0045	-5.6	31
0.0022	0.015	-0.0128	0.0037	-6	31
-0.0053	0.0045	0.0172	0.0015	-5.7	31
-0.0128	-0.0098	0.0435	-0.0023	-5.7	31
-0.0091	-0.0053	0.0727	0	-5.7	31
-0.0038	0.0232	0.0907	0.0007	-5.9	31
-0.0113	0.0285	0.093	0	-5.7	31
-0.0278	-0.024	0.084	-0.0038	-5.7	31
-0.0361	-0.093	0.0577	-0.0083	-5.9	31
-0.027	-0.0788	0.0202	-0.0046	-5.7	31
-0.0105	-0.0353	-0.0128	-0.0015	-6	31
0.0045	-0.0233	-0.0218	-0.0008	-5.7	31
0.0165	0.0045	-0.0248	0.003	-6	31
0.0345	0.0082	-0.027	0.0022	-5.7	31
0.0442	0.0142	-0.0158	0.003	-6.1	31
0.0367	0.0105	-0.0083	0.0052	-5.8	31
0.018	-0.0075	-0.0135	0.0052	-6	31
0.0015	-0.012	-0.0158	0.0007	-5.8	31
-0.0128	-0.0113	-0.015	-0.0038	-5.9	31
-0.021	-0.0083	-0.0203	-0.0023	-6	31
-0.033	-0.0015	-0.0293	0.0045	-6	31
-0.0413	0.033	-0.039	0.0067	-5.9	31
-0.0368	0.0547	-0.0436	0	-6	31
-0.0383	0.0547	-0.039	-0.0053	-5.9	31
-0.0158	0.0525	-0.042	-0.0046	-5.9	31
0.0292	0.0367	-0.0405	-0.0023	-6.1	31
0.0427	0.012	-0.0218	-0.0008	-5.7	31
0.0285	-0.0195	0.006	0	-6	31
0.0007	-0.0533	0.0375	0	-5.9	31
-0.0203	-0.09	0.0465	-0.0053	-6	31
-0.0383	-0.099	0.0427	-0.0091	-6.1	31
-0.033	-0.0458	0.027	-0.0091	-5.8	31
-0.0008	-0.015	0.0007	-0.0091	-5.9	31
0.015	-0.0248	-0.0038	-0.0083	-5.7	31
0.0232	-0.0225	-0.0113	-0.0083	-6.2	31
0.0165	-0.012	-0.0256	-0.0083	-5.9	31
0.009	0.009	-0.0256	-0.003	-5.8	31
0.006	0.0285	-0.0165	0.0015	-6	31
0.0015	0.0322	-0.0068	0.0022	-6	31
0.0127	0.0195	0.003	0.0045	-5.8	31
0.0142	0.0112	0.0217	0.0067	-6.1	31
0.0142	0.009	0.03	0.0067	-5.8	31
0.0105	0.0105	0.024	0.009	-5.9	31
0.0022	0.009	0.018	0.009	-5.9	31
0.003	0.009	-0.003	0.0075	-5.8	31
0.0105	0.0082	-0.021	0.0045	-6	31
0.027	0.009	-0.033	0.003	-5.9	31
0.0292	0.0157	-0.0308	0.0067	-6	31
0.0307	0.0195	-0.0143	0.0037	-6	31
0.0262	0.0195	-0.0046	0.0015	-5.8	31
0.009	0.0165	0.0112	0.0007	-6	31
-0.0015	0.0172	0.0217	-0.003	-5.9	31
-0.012	0.0112	0.0187	-0.0091	-5.9	31
-0.0181	-0.003	0.0187	-0.0113	-5.9	31
-0.0256	-0.0098	0.006	-0.0075	-5.9	31
-0.012	-0.012	-0.0098	-0.0053	-5.8	31
0.0052	-0.0113	-0.0075	-0.0038	-6.1	31
-0.0083	-0.006	-0.0091	-0.0053	-5.6	31
-0.0098	-0.0038	-0.0098	-0.0068	-6.1	31
-0.0053	0.0015	-0.0015	-0.0083	-5.6	31
-0.0158	0.0082	-0.003	-0.0083	-5.9	31
-0.0338	0.0007	-0.0053	-0.0053	-5.8	31
-0.0315	-0.0165	-0.006	-0.0068	-5.8	31
-0.0098	-0.0405	-0.0075	-0.0075	-5.9	31
0.0015	-0.0368	0.0015	-0.006	-5.7	31
0.0127	-0.0188	0.0142	-0.006	-5.9	31
0.0165	-0.0181	0.0225	-0.0038	-5.8	31
0.0135	-0.0068	0.021	-0.0008	-5.9	31
0.0082	-0.003	0.0112	0.0015	-5.9	31
0.0037	0.0007	0.003	0.0045	-5.9	31
-0.0181	0.0052	-0.0038	0.0067	-5.7	31
-0.048	0.0127	-0.006	0.0067	-5.9	31
-0.0338	0.0337	0.003	0.0067	-5.8	31
-0.0128	0.0345	0.009	0.0082	-5.9	31
-0.0023	0.0172	0.0037	0.0067	-5.8	31
0.0157	-0.0046	-0.0091	0.0045	-5.6	31
0.0412	-0.0158	-0.0105	0.0037	-6	31
0.0502	-0.024	0.0022	0.003	-5.5	31
0.0232	-0.0256	0.0067	0.0022	-6.1	31
0.0015	-0.003	-0.0008	-0.0008	-5.6	31
-0.0105	-0.0075	-0.006	-0.0046	-5.9	31
-0.0128	-0.0128	-0.0068	-0.006	-5.9	31
-0.012	0.0007	-0.0158	-0.0046	-5.7	31
-0.0165	0.0015	-0.0278	-0.0008	-5.8	31
-0.0143	0.0052	-0.024	0.0007	-5.7	31
-0.0113	-0.0015	-0.0203	-0.0008	-5.9	31
0.003	0.0045	-0.0218	0.0022	-5.9	31
0.0015	0.0142	-0.0105	0.0045	-6	31
-0.0173	0.0082	0.0022	0.003	-5.7	31
-0.0181	0.0075	0.012	0.0015	-6.1	31
-0.003	0.0022	0.0127	0.0015	-5.6	31
0.0082	0.0015	0.0097	0	-6	31
0.0097	-0.0008	0.0082	-0.0008	-5.8	31
0.009	-0.0105	0.0037	0	-5.8	31
0.0082	-0.0181	0.0015	0.0007	-6	31
0.0067	-0.012	0.0015	0	-5.7	31
0.0052	-0.0015	-0.0046	0.0007	-6	31
-0.0023	-0.0075	-0.0083	-0.0008	-5.7	31
-0.0083	-0.0068	-0.0128	0.0007	-6	31
-0.0053	0.0007	-0.0158	0.0037	-6	31
-0.0038	0.0007	-0.015	0.0015	-6	31
0.0007	-0.0068	-0.012	0.0037	-5.8	31
0.0052	-0.0105	-0.0015	0.0052	-5.9	31
0.0142	-0.0091	0.0067	0.0052	-5.9	31
0.0232	-0.0068	0.0165	0.0045	-5.8	31
0.0202	0.0007	0.024	0.0007	-5.9	31
0.0202	0.0007	0.0195	0.0015	-5.7	31
0.012	-0.003	-0.0015	0.0022	-6	31
-0.0075	0.0052	-0.0353	0.0045	-5.7	31
-0.0165	0.0015	-0.0346	0.003	-6.2	31
-0.0181	-0.012	-0.0158	-0.0008	-5.9	31
-0.0143	-0.0128	-0.0083	-0.003	-6	31
-0.0113	-0.0053	0.0097	-0.0015	-6.2	31
-0.0218	0.0037	0.0367	-0.0015	-5.9	31
-0.027	-0.0046	0.0562	-0.0046	-6	31
-0.012	-0.0143	0.0577	-0.0053	-6	31
-0.0165	-0.012	0.0337	-0.006	-5.8	31
-0.0173	-0.006	-0.0105	-0.0068	-6	31
0.0045	0.0015	-0.0346	-0.0046	-5.9	31
0.0067	0.003	-0.0308	-0.0015	-5.8	31
0.0082	0.0052	-0.0353	-0.0008	-6	31
0.0172	0.009	-0.0436	-0.0015	-5.9	31
0.0247	0.003	-0.042	-0.003	-6	31
0.021	-0.0053	-0.0278	-0.0015	-6	31
0.006	0.0015	-0.0188	0.0007	-5.9	31
0.0052	0.009	-0.012	0.0007	-6.1	31
0.0195	0.0015	-0.0143	0	-5.8	31
0.039	-0.0015	-0.0091	0.0007	-6.2	31
0.03	0.0142	0.0315	0.0015	-5.9	31
0.0007	-0.0128	0.0817	-0.0015	-6.2	31
-0.0008	-0.0473	0.0975	-0.006	-5.9	31
-0.0143	-0.027	0.0892	-0.0091	-6	31
-0.0315	-0.0135	0.0772	-0.0083	-6	31
-0.0181	-0.0105	0.0382	-0.0068	-6	31
-0.0113	0.009	-0.0023	-0.0023	-5.8	31
-0.0038	0.012	-0.0218	-0.0015	-6	31
-0.006	0.0067	-0.033	-0.003	-5.9	31
-0.0135	0.0052	-0.039	-0.006	-5.9	31
-0.0091	-0.0083	-0.033	-0.0075	-6.1	31
-0.012	-0.0128	-0.0315	-0.0053	-5.8	31
-0.012	-0.006	-0.0308	-0.003	-6	31
-0.0181	-0.003	-0.0225	-0.0008	-5.9	31
-0.0195	0	-0.0135	0.003	-5.9	31
-0.0083	0.012	-0.0091	0.003	-6	31
0.009	0.033	-0.0181	0.0015	-5.8	31
0.0157	0.0457	-0.027	0.0037	-6	31
0.0217	0.048	-0.0473	0.0067	-5.8	31
0.0382	0.0427	-0.0623	0.009	-6	31
0.0442	0.0345	-0.0473	0.0082	-5.8	31
0.0367	0.027	-0.0165	0.006	-6	31
0.0277	-0.0233	0.0045	0.003	-5.8	31
0.0172	-0.084	0.0217	-0.003	-6	31
-0.0075	-0.0863	0.0502	-0.0046	-5.7	31
-0.0218	-0.021	0.0577	-0.0008	-6	31
-0.006	0.0232	0.0457	-0.0008	-5.8	31
-0.006	-0.0091	0.0487	-0.003	-6	31
-0.03	-0.0503	0.0457	-0.0038	-6	31
-0.0315	-0.0885	0.0255	-0.0053	-5.8	31
-0.0165	-0.075	0.0082	-0.0023	-6	31
0.0022	-0.012	0.0015	0.0022	-5.7	31
0.0127	0.015	-0.0143	0.0007	-6.1	31
0.0097	0.0195	-0.0225	-0.0008	-5.9	31
0.009	0.027	-0.0046	0.0015	-5.9	31
-0.0083	0.0202	0.006	0.003	-6	31
-0.0278	0.003	0	0.003	-6	31
-0.027	-0.0203	-0.0135	0.0015	-5.9	31
-0.0203	-0.0046	-0.0203	0.0015	-6	31
-0.0128	0.0232	-0.0158	0.0022	-5.9	31
-0.0091	0.0247	-0.0105	0.0007	-5.9	31
-0.003	0.0345	0.0097	-0.0023	-6.2	31
0.0037	0.0232	0.018	-0.0046	-5.6	31
-0.0068	-0.0075	0.0052	-0.0068	-6.2	31
-0.0053	-0.0195	0	-0.0083	-5.7	31
0.003	-0.0165	-0.0075	-0.006	-6	31
0.0067	-0.0046	-0.015	-0.003	-5.9	31
0.0135	0.0037	-0.0128	0	-6	31
0.0105	0.0105	-0.0113	0.003	-6	31
0.0105	0.0112	-0.0098	0.003	-5.9	31
0.009	0.012	-0.0091	0.0015	-5.9	31
0.0082	0.0075	-0.012	0	-6	31
0.009	0.0045	-0.0128	-0.0015	-5.9	31
0.0135	0.0075	-0.0128	-0.0008	-5.9	31
0.0112	0.006	-0.0113	-0.0015	-6.1	31
-0.0008	0.0067	-0.012	-0.0015	-5.7	31
-0.0113	0.0015	-0.0165	-0.003	-6	31
-0.0233	0.0007	-0.0128	-0.0015	-5.9	31
-0.0323	0.0022	-0.0015	-0.0008	-5.9	31
-0.0346	-0.0008	0.003	-0.0008	-6.1	31
-0.015	-0.003	0.0015	-0.0015	-5.7	31
0.018	0.003	-0.0083	-0.0023	-6.1	31
0.027	0.0075	-0.0135	-0.0008	-5.7	31
0.0157	-0.0008	-0.0143	-0.0008	-6.1	31
0.0045	-0.0038	-0.0181	-0.0008	-5.8	31
-0.0008	-0.003	-0.0181	-0.0008	-6	31
-0.0105	-0.0008	-0.0165	0.0015	-6	31
-0.0143	0.0007	-0.0105	0.0007	-5.9	31
-0.0083	0	0.003	-0.0008	-5.9	31
-0.0038	-0.0083	0.009	-0.0015	-5.9	31
-0.0015	-0.0278	0.021	-0.0068	-5.9	31
-0.0015	-0.0233	0.0255	-0.0075	-5.7	31
0.0097	-0.0023	0.0165	-0.0046	-6	31
0.0255	0.0052	0.018	-0.0015	-5.7	31
0.0135	0.0022	0.0157	-0.0008	-6	31
-0.0046	-0.0053	0.0052	0.0007	-5.7	31
-0.0113	-0.003	0.006	0.0022	-6	31
-0.003	-0.0068	0.0135	0.0045	-5.9	31
0.0052	-0.0105	0.0127	0.0082	-6	31
0.009	-0.006	0.003	0.0082	-6	31
0.018	0.006	-0.0053	0.0082	-5.7	31
0.0097	0.0142	0.0105	0.0067	-6	31
0.0045	0.0075	0.0307	0.0052	-5.7	31
-0.0015	-0.003	0.0307	0.0037	-5.9	31
-0.027	-0.0188	0.0277	0.0052	-5.9	31
-0.0503	-0.0233	0.021	0.0045	-5.9	31
-0.0593	-0.0158	0.0127	0.0015	-5.7	31
-0.0361	-0.006	-0.0091	0.0007	-5.9	31
-0.0143	0.0015	-0.0458	-0.003	-5.7	31
0.003	0.0075	-0.0915	-0.0038	-5.8	31
0.0247	0.027	-0.123	-0.0046	-5.9	31
0.0472	0.0465	-0.1006	-0.0046	-5.8	31
0.0727	0.0412	-0.0465	-0.0015	-5.9	31
0.069	0.0225	0.024	0.0015	-5.7	31
0.0615	0.009	0.09	0	-6	31
0.0345	-0.0128	0.1267	-0.0053	-5.7	31
-0.021	-0.0653	0.1387	-0.0046	-6	31
-0.0578	-0.0706	0.1267	-0.0046	-5.7	31
-0.057	-0.039	0.0817	-0.0038	-5.8	31
-0.042	-0.042	0.0157	-0.0008	-5.9	31
-0.0315	-0.0128	-0.0098	0.0015	-5.9	31
-0.015	-0.0015	-0.012	0.0015	-6	31
-0.0083	0	-0.0338	0	-5.9	31
-0.003	0.0097	-0.045	-0.0008	-5.9	31
-0.0046	0.0015	-0.054	-0.0015	-5.9	31
-0.0015	0.009	-0.0608	-0.003	-6	31
0.0075	0.0045	-0.0623	-0.0053	-5.8	31
0.003	0.0082	-0.054	-0.0068	-6.2	31
0.009	0.0097	-0.0315	-0.0038	-5.9	31
0.0157	0.0142	-0.0165	-0.0015	-6	31
0.0217	0.0105	-0.0008	-0.0008	-5.9	31
0.0202	-0.0008	0.009	-0.0015	-5.8	31
0.018	-0.0008	0.012	-0.0015	-6.1	31
0.018	-0.0068	-0.0143	0.0007	-5.7	31
0.0075	0.003	-0.0428	0.0007	-6	31
0.0015	-0.0023	-0.0398	0.0007	-5.9	31
-0.0165	-0.0098	-0.027	-0.0008	-6	31
-0.0195	-0.0015	0.0052	-0.0008	-5.9	31
-0.0008	-0.003	0.0217	-0.0008	-6	31
-0.0068	-0.0083	0.0232	-0.0038	-5.8	31
-0.0105	-0.0105	0.0277	-0.0046	-6	31
-0.0143	-0.0091	0.0157	-0.0053	-5.7	31
-0.0128	-0.0105	0.003	-0.003	-6.1	31
-0.0023	-0.0038	-0.012	0	-5.8	31
-0.0008	0.0007	-0.0203	-0.0008	-5.9	31
0.0067	-0.0015	-0.0195	0.0015	-5.9	31
0.0217	0.009	-0.0113	0.0015	-5.7	31
0.0232	0.0307	0.0112	0.0022	-6	31
0.0165	0.0442	0.0405	0.0045	-5.8	31
0.0165	0.0277	0.042	0.0075	-5.9	31
0.003	-0.0165	0.012	0.0022	-6	31
-0.0128	-0.0443	0.0015	-0.003	-5.9	31
-0.033	-0.0256	-0.0008	-0.0038	-5.9	31
-0.0338	0.0045	0.009	0.0007	-5.7	31
-0.0105	0.0165	0.0217	0.0037	-5.9	31
-0.0008	0.0232	0.012	0.0045	-5.8	31
0.012	0.006	0.018	0.0052	-5.9	31
0.0067	-0.0128	0.0187	0.0045	-5.8	31
0.003	0.0015	0.0097	0.0045	-6	31
0.003	0.0157	-0.0083	0.0082	-5.7	31
-0.0015	0.0217	-0.027	0.0105	-6.1	31
0.0015	0.0195	-0.0256	0.009	-5.7	31
0.0075	0.0067	-0.0278	0.0082	-5.8	31
0.0157	-0.0405	-0.0308	0.0022	-5.7	31
0.0022	-0.084	-0.0278	-0.0023	-5.7	31
-0.0105	-0.0563	-0.012	-0.003	-5.8	31
-0.0091	-0.0233	0.0067	-0.0008	-5.7	31
-0.0053	-0.015	0.0195	0.0015	-5.8	31
-0.0083	-0.0023	0.0315	-0.0008	-5.7	31
-0.0128	0.003	0.024	0	-5.7	31
-0.0068	0.0045	0.0097	0	-5.6	31
-0.0046	0.0045	0.0052	0.0015	-6	31
-0.0023	0.003	-0.0015	-0.0008	-5.7	31
-0.003	0.0007	-0.006	-0.0015	-6	31
0.003	-0.0008	-0.0128	-0.0023	-5.7	31
0.0082	-0.0083	-0.0128	-0.003	-5.9	31
0.0112	-0.0105	-0.0068	0	-5.8	31
0.0075	0.003	-0.0075	0.0015	-5.6	31
-0.0075	0.0067	-0.0091	0.003	-5.9	31
-0.0083	0.009	-0.003	0.0007	-5.6	31
-0.0008	0.0097	0.0045	-0.0008	-6	31
0.0082	0.0082	-0.0008	-0.0015	-5.5	31
0.0165	0.009	-0.0075	-0.0038	-5.8	31
0.018	0.009	-0.012	-0.0046	-5.7	31
0.015	0.0105	-0.0181	-0.003	-5.8	31
0.006	0.009	-0.0143	0.0015	-5.7	31
-0.0068	0	-0.0091	0.0015	-5.6	31
-0.0165	-0.0046	0.0007	0.0022	-5.7	31
-0.0128	-0.003	0.0067	0.0015	-5.6	31
-0.0083	0.0015	0.0045	0.0015	-5.9	31
-0.0046	0.0067	0.003	0	-5.6	31
0	0.0052	-0.0008	-0.0008	-6	31
0.0022	0.0045	-0.0023	0	-5.6	31
0.0015	0.0015	-0.0023	-0.0023	-5.9	31
0.0007	-0.0105	0.0015	-0.0015	-5.6	31
0.0037	-0.0233	0.0037	-0.003	-5.7	31
0.0015	-0.0278	0.0052	-0.0053	-5.8	31
-0.0008	-0.0105	0.0052	-0.0038	-5.6	31
-0.0023	-0.0008	0.003	-0.003	-5.7	31
-0.0015	-0.0008	0.0022	-0.0023	-5.6	31
0.0015	0.003	0.0007	-0.003	-5.6	31
0.0007	-0.0015	-0.0015	-0.0046	-5.8	31
-0.0008	-0.003	-0.003	-0.0053	-5.9	31
0.0007	-0.0015	-0.0023	-0.0083	-5.6	31
0.0015	-0.0015	-0.0046	-0.0098	-5.8	31
0.0022	-0.0023	-0.0046	-0.012	-5.7	31
-0.0008	-0.0046	-0.0038	-0.0135	-5.7	31
-0.0015	-0.006	-0.003	-0.0165	-5.7	31
-0.0015	-0.0053	-0.0008	-0.0158	-5.6	31
-0.0015	-0.0008	0.0015	-0.0143	-5.9	31
-0.0008	0.0015	0.0007	-0.0098	-5.5	31
-0.0008	0.0007	-0.0008	0.0052	-6	31
0.0007	-0.0015	-0.0008	0.027	-5.6	31
0	-0.0023	-0.0023	0.042	-5.8	31
0	0	-0.0008	0.033	-5.7	31
-0.0008	0.0037	-0.0008	0.0105	-5.7	31
-0.0015	0.0045	0.0022	0.0015	-5.7	31
-0.0008	0	0.0067	0	-6	31
-0.0015	-0.0053	0.0052	0.0135	-5.8	31
-0.0015	-0.006	0.0052	0.0217	-5.9	31
-0.0023	-0.0038	0.003	0.012	-5.8	31
-0.0015	-0.0046	0.0007	0.0052	-5.7	31
0.0015	-0.003	-0.0008	0.0037	-5.9	31
0.0015	-0.0008	-0.0038	-0.0015	-5.6	31
-0.0008	-0.0015	-0.0075	-0.006	-6	31
-0.0046	-0.0015	-0.0075	-0.0068	-5.7	31
-0.006	-0.0023	-0.0068	-0.0068	-5.7	31
-0.0015	-0.0038	-0.0083	-0.0068	-5.8	31
0.0097	-0.0046	-0.0053	-0.0068	-5.7	31
0.0165	-0.0068	-0.0098	-0.0053	-6	31
0.0172	-0.0068	-0.0188	-0.0015	-5.8	31
0.0172	-0.0008	-0.0203	0.003	-5.9	31
0.0157	0.0045	-0.0256	0.0045	-5.9	31
0.018	0.0097	-0.024	0.0037	-5.7	31
0.0217	0.0165	-0.0098	0.0007	-5.7	31
0.0127	0.024	0.0022	-0.0046	-6	31
-0.0173	0.0247	0.0217	-0.0068	-5.8	31
-0.0465	0.0082	0.0307	-0.0091	-6.1	31
-0.0473	-0.0203	0.03	-0.0091	-5.7	31
-0.0233	-0.0323	0.033	-0.0068	-5.9	31
-0.0158	-0.0203	0.0255	-0.0053	-5.7	31
-0.0181	-0.0158	0.0142	-0.0038	-6	31
-0.0113	-0.0015	0.0052	0.0015	-6	31
-0.0068	0.0217	-0.0075	0.0037	-5.8	31
-0.0068	0.024	-0.0181	0.0052	-6	31
0	0.012	-0.0195	0.006	-5.7	31
0.009	-0.0098	-0.0143	0.0075	-5.9	31
0.0097	-0.0263	-0.0105	0.0037	-6	31
0.0105	-0.0368	-0.0105	0.0007	-5.9	31
0.0127	-0.042	-0.0128	0.0007	-5.7	31
0.0165	-0.012	-0.0203	-0.0015	-6.2	31
0.0195	0.009	-0.0165	-0.003	-5.7	31
0.0075	-0.0008	-0.003	-0.0053	-6	31
-0.0053	-0.0053	0.003	-0.006	-6	31
-0.0165	-0.0233	0.0022	-0.006	-6	31
-0.0173	-0.0188	-0.0023	-0.0038	-6.1	31
-0.003	-0.0053	-0.012	-0.0008	-5.9	31
0.003	-0.0038	-0.0165	-0.0015	-6.3	31
-0.0015	0.0045	-0.0143	-0.0023	-5.8	31
0.003	0.003	-0.0143	-0.0023	-6.3	31
0.012	0.0097	-0.0128	-0.003	-5.9	31
0.0187	0.0082	-0.0098	-0.0046	-6.1	31
0.0127	0.0075	-0.0046	-0.006	-6	31
0.0015	0.0127	0.0067	-0.0053	-6.1	31
-0.0083	0.0007	0.0135	-0.0075	-6.1	31
-0.024	-0.0075	0.0195	-0.0091	-6.1	31
-0.0105	-0.0015	0.0165	-0.0053	-6.1	31
0.0142	0.0045	0.0112	-0.003	-6.1	31
0.009	0.0052	0.0112	-0.0015	-6.3	31
0.0022	0.003	0.0082	-0.0023	-6.1	31
-0.0046	0.0015	0.009	-0.0008	-6.4	31
0.0015	-0.0008	0.0075	0.0007	-5.9	31
0.0075	-0.006	0.0037	0.0007	-6.4	31
-0.0083	-0.003	0.0052	-0.0008	-6.2	31
-0.0143	-0.003	0.0082	-0.0023	-6.2	31
-0.006	-0.0008	0.0045	-0.0015	-6.2	31
0.0022	0.003	0.0007	0	-6.1	31
0.0015	-0.0008	-0.0053	0.0045	-6.3	31
0.0007	-0.0023	-0.015	0.0067	-6.3	31
0.0007	-0.0068	-0.0158	0.0045	-6.2	31
-0.0008	-0.006	-0.0105	0.0007	-6.2	31
0	-0.003	-0.006	0.0007	-6.3	31
0.0082	-0.0015	0.0007	-0.0015	-6.1	31
0.0105	-0.0023	-0.0008	-0.0038	-6.3	31
-0.0015	-0.0053	-0.0105	-0.0046	-6.2	31
-0.0091	-0.0023	-0.0128	-0.003	-6.3	31
-0.0105	-0.0015	-0.012	0.0007	-6.3	31
-0.0083	-0.003	-0.0098	0.0037	-6.2	31
-0.0053	-0.0015	-0.0053	0.0045	-6.4	31
-0.0053	-0.0053	-0.0008	0.0052	-6	31
-0.0053	-0.0068	0.0045	0.0052	-6.3	31
-0.003	-0.0053	0.0052	0.0037	-6.2	31
-0.0008	-0.0053	0.0037	0.0007	-6.5	31
0.003	-0.0053	0.0022	-0.0015	-6.4	31
0.0045	-0.003	0.0037	-0.0015	-6.3	31
-0.003	-0.0015	0.0022	-0.0038	-6.3	31
-0.0113	-0.0008	-0.003	-0.006	-6.3	31
-0.0098	0.0052	-0.0068	-0.0023	-6.3	31
-0.0038	0.006	0.0007	-0.0015	-6.4	31
0.0022	0	0.0067	-0.0015	-6.3	31
0.0112	-0.0023	0.0052	0.0015	-6.5	31
0.0127	0.0022	0.0097	0.0052	-6.4	31
0.009	0.0067	0.0082	0.0075	-6.3	31
0.0052	0.0052	0.0075	0.0067	-6.6	31
-0.0015	-0.0023	0.0067	0.0067	-6.4	31
-0.0008	-0.012	0.003	0.0067	-6.6	31
0.003	-0.0105	0.003	0.0067	-6.5	31
0.006	-0.003	-0.0015	0.0037	-6.4	31
0.0052	-0.0023	-0.0015	0.0015	-6.7	31
-0.0015	-0.0008	-0.0008	0	-6.4	31
-0.0083	-0.0008	-0.0023	-0.0008	-6.6	31
-0.012	-0.0015	-0.0046	0	-6.7	31
-0.0038	-0.003	-0.0038	-0.0008	-6.7	31
0.0112	-0.003	-0.0008	-0.0015	-6.6	31
0.0157	-0.0008	0.006	-0.0015	-6.7	31
0.0022	-0.0008	0.012	0.0015	-6.4	31
-0.0053	0.0007	0.0142	0.0045	-6.9	31
-0.006	-0.0008	0.0097	0.0045	-6.5	31
-0.0053	-0.0015	0.0007	0.0015	-6.8	31
-0.0046	-0.0015	-0.0023	0.0015	-6.8	31
-0.0098	-0.0023	-0.003	0.0015	-6.6	31
-0.0068	-0.0015	-0.0038	-0.0023	-6.9	31
-0.0068	-0.003	-0.0053	-0.0046	-6.8	31
-0.0083	-0.003	-0.0083	-0.0075	-7.1	31
-0.0023	-0.006	-0.0083	-0.0083	-6.7	31
0.0022	-0.0053	-0.0068	-0.0075	-6.8	31
0.0075	-0.0046	-0.0083	-0.0083	-6.8	31
0.0022	-0.003	-0.0098	-0.0083	-7.1	31
-0.0075	-0.0046	-0.0068	-0.0068	-7	31
-0.0068	-0.0053	-0.0046	-0.006	-7.1	31
0.0045	-0.0015	-0.0015	-0.0038	-7	31
0.0105	-0.0008	0.0007	-0.0015	-7	31
0.012	0.0007	0.0045	-0.0015	-7.1	31
0.0112	0.0007	0.0045	-0.0008	-6.8	31
0.0105	-0.0015	0.0015	0.0015	-7.3	31
0.0187	-0.0046	0.0007	0.003	-6.8	31
0.0157	-0.0053	-0.003	0.0037	-7.5	31
-0.0008	-0.006	-0.0068	0.0045	-7	31
-0.0091	-0.003	-0.0068	0.0045	-7.3	31
-0.0195	0.0045	-0.0053	0.0052	-7.1	31
-0.0181	0.0052	-0.0053	0.0067	-7.4	31
-0.0128	0.003	-0.0091	0.0052	-7.4	31
-0.015	0	-0.0128	0.0015	-7.3	31
-0.0023	0.0022	-0.0046	0.0007	-7.4	31
0.0075	0.006	0.0082	0.0007	-7.4	31
0.0067	0.003	0.0112	-0.0038	-7.6	31
0.0015	-0.003	0.0052	-0.0046	-7.2	31
-0.0046	-0.0038	0.0045	-0.0046	-7.7	31
-0.0053	0	0.0075	-0.003	-7.3	31
-0.0046	-0.003	0.0007	-0.0038	-7.7	31
-0.0008	-0.0143	0.0015	-0.0053	-7.4	31
-0.006	-0.015	0.0052	-0.0068	-7.6	31
-0.0053	-0.0083	0.0022	-0.0053	-7.8	31
-0.0015	-0.0091	0.0015	-0.0015	-7.6	31
-0.0023	-0.0075	0	0	-8	31
-0.003	-0.0046	0.0015	0.0015	-7.7	31
-0.0075	-0.0046	0.0015	0.003	-8	31
-0.0046	-0.0038	0.0015	0.0037	-7.8	31
0.0007	-0.0023	0.003	0.0045	-8	31
0.003	0.0015	0.0007	0.0052	-8	31
0.0022	0.0015	-0.0015	0.006	-8.1	31
-0.0023	0.0007	-0.003	0.0052	-8	31
-0.0068	0	-0.0023	0.0045	-8.2	31
-0.0083	-0.0038	-0.0023	0.003	-8.2	31
-0.0046	-0.0046	-0.003	0.0015	-8.2	31
0.024	-0.0015	-0.0068	0.0045	-8.5	31
0.039	-0.0008	-0.0091	0.003	-8.3	31
0.015	-0.0015	-0.006	0.0015	-8.7	31
0.0112	-0.0015	-0.0053	0.0022	-8.4	31
0.003	0	-0.0015	0.0007	-8.9	31
-0.0165	0.0052	0.0007	0.003	-8.5	31
-0.0308	0.0127	0.0022	0.0045	-9	31
-0.0368	0.0105	0.0015	0.0045	-8.9	31
-0.015	0.0075	-0.0075	0.0045	-8.8	31
-0.0113	0.0037	0.0045	0	-9	31
-0.0218	-0.006	0.009	-0.0023	-9	31
-0.0218	-0.015	-0.0008	-0.0038	-9	31
-0.0015	-0.0158	-0.0046	-0.0046	-9	31
0.021	-0.0083	-0.0143	-0.0053	-9.3	31
0.0292	-0.0015	-0.0143	-0.0015	-9	31
0.0367	0.0037	-0.0091	0	-9.5	31
0.0142	0.006	-0.003	-0.0015	-9.4	31
-0.012	0.0022	0.0015	-0.003	-9.5	31
-0.0135	-0.0008	0.0052	-0.003	-9.5	31
-0.0053	-0.0053	0.0105	-0.003	-9.5	31
0.0045	-0.0053	0.0082	-0.003	-9.8	31
-0.0008	-0.006	0.009	-0.003	-9.4	31
-0.0015	-0.0046	0.0082	-0.0015	-9.9	31
0	-0.0008	0.0052	0	-9.5	31
-0.0113	-0.006	0.0105	0.0015	-10	31
-0.012	-0.006	0.015	0.0015	-10	31
0.0015	-0.006	0.0127	0	-9.9	31
0.012	-0.0083	0.0067	-0.003	-10.2	31
0.0292	-0.0075	0.003	-0.0053	-10.4	31
0.045	-0.0046	-0.0068	-0.0053	-10	31
0.0322	-0.003	-0.0105	-0.0105	-10.4	31
-0.0008	-0.006	-0.0158	-0.0105	-10.3	31
-0.0278	-0.0023	-0.0278	-0.0083	-10.5	31
-0.0458	0.0015	-0.033	-0.0068	-10.4	31
-0.039	0.0075	-0.0308	-0.0046	-10.5	31
-0.0053	0.0157	-0.0165	-0.0046	-10.8	31
0.0195	0.0015	-0.0008	-0.003	-10.6	31
0.024	-0.0105	0.009	-0.0046	-10.8	31
0.0127	-0.0068	0.012	-0.006	-10.8	31
0.0037	-0.0105	0.0142	-0.0046	-11	31
-0.003	-0.0068	0.0127	-0.0008	-11	31
-0.0098	-0.0015	0.0037	-0.0015	-11.2	31
-0.0195	-0.0046	0.0075	-0.003	-11.2	31
-0.0361	-0.0008	0.009	-0.003	-11.2	31
-0.0315	0.0015	0.0082	0.0007	-11.5	31
-0.0068	0.0052	0.0082	0.0007	-11.5	31
0.0157	0.0052	0.0015	-0.0008	-11.7	31
0.027	0.003	0.0015	-0.0015	-11.3	31
0.0165	0.0015	0.003	0.0007	-11.9	31
-0.003	0.003	-0.0015	0.0015	-11.5	31
0.0075	0.0015	-0.0053	0.0007	-12.1	31
0.0165	-0.0015	-0.0008	0.0015	-11.8	31
-0.0015	0.0022	-0.0046	0.003	-11.9	31
0.0045	0.0022	-0.0068	0.0052	-12.3	31
0.021	0.0007	0	0.0052	-12	31
0.0255	-0.0008	-0.006	0.0052	-12.3	31
0.0255	-0.0008	-0.006	0.0052	-12.3	31
0.0067	-0.003	-0.0015	0.0052	-12.4	31
-0.0075	-0.0053	-0.0046	0.0045	-12.4	31
0.0045	-0.0053	-0.0068	0.003	-12.6	31
0.0045	-0.0068	-0.0113	0.0015	-12.6	31
-0.0173	-0.0091	-0.015	-0.0008	-12.9	31
-0.027	-0.0091	-0.0203	-0.0008	-12.8	31
-0.0218	-0.0091	-0.0165	0	-13	31
-0.0233	-0.0091	-0.0105	-0.0015	-12.9	31
-0.0233	-0.0053	-0.0135	-0.0046	-12.9	31
-0.012	-0.003	-0.0105	-0.0053	-13.3	31
-0.0023	-0.0008	-0.003	-0.0053	-13.1	31
0.0045	0	-0.0046	-0.003	-13.6	31
-0.0015	-0.0015	0.0022	-0.003	-13.2	31
0.0045	-0.003	0.018	-0.006	-13.7	31
0.0007	-0.0038	0.0097	-0.006	-13.4	31
-0.0105	-0.0015	-0.0046	-0.0053	-13.6	31
-0.0083	0	0.0037	-0.0053	-13.8	31
-0.0083	-0.0008	0.0202	-0.0053	-13.9	31
-0.0008	-0.003	0.0202	-0.0053	-13.8	31
0.0082	-0.003	0.0067	-0.0008	-13.8	31
0.0255	-0.0046	0.003	0.0015	-14.1	31
0.036	-0.0083	0.003	-0.0008	-13.8	31
0.0307	-0.0083	0.003	0.0015	-14.3	31
0.0187	-0.006	0.0015	0.006	-13.9	31
0.0075	-0.003	0.0007	0.0075	-14.5	31
-0.003	-0.0008	0.0052	0.0067	-14.1	31
-0.0181	0.0007	-0.0015	0.006	-14.5	31
-0.0256	0.0015	-0.0008	0.0052	-14.4	31
-0.0278	-0.0008	0.0082	0.0045	-14.5	31
-0.024	0.0007	0.0075	0.0045	-14.5	31
-0.0188	0	-0.0008	0.0007	-14.6	31
0.0015	-0.003	-0.0128	-0.0008	-14.8	31
0.0142	-0.003	-0.0218	0.0022	-14.9	31
0.0232	-0.003	-0.0248	0.0007	-14.9	31
0.0397	-0.0023	-0.0203	-0.0008	-15	31
0.0292	-0.0046	-0.0113	-0.0023	-15.2	31
0.0052	-0.003	-0.0053	0.0007	-15.1	31
-0.0091	0.0007	-0.0083	0.003	-15.3	31
-0.0263	0.006	-0.0143	0.0037	-15.1	31
